"Freq [GHz]","re(S(Tx_p1,Tx_p1)) []","im(S(Tx_p1,Tx_p1)) []"
1,0.05349845681,0.03545274222
1.01,0.05615234945,0.03083280775
1.02,0.05840848259,0.02601380138
1.03,0.06025186202,0.02103005456
1.04,0.06167047778,0.01591702779
1.05,0.06265538806,0.01071104884
1.06,0.06320077985,0.005449045005
1.07,0.06330400617,0.0001682713324
1.08,0.06296559946,-0.005093962935
1.09,0.06218926117,-0.01030056775
1.1,0.06098182782,-0.01541494334
1.11,0.05935321358,-0.02040124695
1.12,0.05731633019,-0.02522465325
1.13,0.05488698468,-0.02985160641
1.14,0.05208375587,-0.03425006201
1.15,0.04892785056,-0.03838971698
1.16,0.04544294061,-0.04224222583
1.17,0.0416549823,-0.04578140168
1.18,0.03759201921,-0.0489834005
1.19,0.03328397035,-0.05182688736
1.2,0.02876240509,-0.05429318344
1.21,0.0240603067,-0.05636639274
1.22,0.01921182626,-0.05803350773
1.23,0.01425202895,-0.05928449311
1.24,0.009216634519,-0.06011234721
1.25,0.004141754006,-0.06051314069
1.26,-0.0009363753019,-0.06048603225
1.27,-0.005981654703,-0.06003326151
1.28,-0.0109583867,-0.05916011902
1.29,-0.01583153345,-0.05787489385
1.3,-0.02056696912,-0.05618879936
1.31,-0.02513172428,-0.05411587753
1.32,-0.02949422058,-0.05167288297
1.33,-0.03362449396,-0.04887914747
1.34,-0.03749440478,-0.04575642611
1.35,-0.04107783343,-0.0423287264
1.36,-0.04435085995,-0.03862212158
1.37,-0.04729192647,-0.03466454981
1.38,-0.04988198134,-0.03048560056
1.39,-0.05210460392,-0.02611629015
1.4,-0.05394610935,-0.02158882797
1.41,-0.05539563247,-0.0169363753
1.42,-0.05644519051,-0.01219279847
1.43,-0.05708972415,-0.007392418403
1.44,-0.05732711683,-0.002569758231
1.45,-0.05715819226,0.002240708965
1.46,-0.05658669031,0.007004810485
1.47,-0.05561922155,0.01168892055
1.48,-0.05426520108,0.0162602012
1.49,-0.05253676204,0.02068683589
1.5,-0.05044864981,0.02493825396
1.51,-0.04801809764,0.0289853445
1.52,-0.04526468489,0.03280065798
1.53,-0.04221017905,0.03635859436
1.54,-0.03887836268,0.03963557627
1.55,-0.0352948469,0.04261020607
1.56,-0.03148687271,0.04526340592
1.57,-0.02748310183,0.0475785397
1.58,-0.02331339863,0.04954151615
1.59,-0.01900860486,0.05114087266
1.6,-0.01460030888,0.05236783909
1.61,-0.01012061122,0.05321638139
1.62,-0.005601888103,0.05368322487
1.63,-0.001076554842,0.05376785705
1.64,0.003423169241,0.05347251031
1.65,0.00786549259,0.05280212452
1.66,0.01221927821,0.05176429023
1.67,0.01645426387,0.05036917287
1.68,0.02054127409,0.04862941878
1.69,0.02445242244,0.04656004385
1.7,0.02816130281,0.04417830579
1.71,0.03164316813,0.04150356108
1.72,0.03487509565,0.03855710783
1.73,0.0378361373,0.03536201573
1.74,0.04050745448,0.03194294466
1.75,0.04287243625,0.02832595314
1.76,0.04491680023,0.0245382984
1.77,0.04662867564,0.02060822932
1.78,0.04799866801,0.01656477416
1.79,0.04901990534,0.01243752437
1.8,0.04968806537,0.008256416389
1.81,0.05000138413,0.004051512818
1.82,0.04996064574,-0.0001472152256
1.83,0.04956915381,-0.004310103108
1.84,0.04883268475,-0.008408003417
1.85,0.04775942362,-0.01241249096
1.86,0.046359883,-0.01629606056
1.87,0.04464680582,-0.02003231627
1.88,0.0426350529,-0.02359615071
1.89,0.04034147622,-0.0269639133
1.9,0.037784779,-0.03011356631
1.91,0.03498536375,-0.03302482761
1.92,0.03196516952,-0.03567929935
1.93,0.02874749963,-0.03806058163
1.94,0.02535684131,-0.04015437063
1.95,0.02181867856,-0.04194854051
1.96,0.01815929976,-0.04343320875
1.97,0.0144056014,-0.0446007846
1.98,0.01058488952,-0.04544600044
1.99,0.006724680238,-0.04596592604
2,0.002852500829,-0.04615996586
2.01,-0.001004307104,-0.04602983939
2.02,-0.004818781058,-0.04557954516
2.03,-0.008564526239,-0.0448153086
2.04,-0.01221589804,-0.04374551446
2.05,-0.01574817711,-0.04238062444
2.06,-0.01913773591,-0.0407330807
2.07,-0.02236219548,-0.03881719627
2.08,-0.02540057159,-0.03664903318
2.09,-0.02823340916,-0.03424626937
2.1,-0.03084290424,-0.03162805553
2.11,-0.03321301272,-0.02881486297
2.12,-0.03532954524,-0.02582832369
2.13,-0.03718024762,-0.02269106408
2.14,-0.03875486662,-0.01942653326
2.15,-0.04004520049,-0.01605882763
2.16,-0.04104513434,-0.01261251277
2.17,-0.04175066011,-0.009112444074
2.18,-0.0421598813,-0.005583587435
2.19,-0.04227300248,-0.002050841252
2.2,-0.04209230401,0.00146113896
2.21,-0.0416221022,0.004928112134
2.22,-0.04086869543,0.008326418188
2.23,-0.03984029683,0.01163313842
2.24,-0.03854695407,0.01482624866
2.25,-0.03700045722,0.01788476422
2.26,-0.03521423514,0.02078887559
2.27,-0.0332032417,0.02352007421
2.28,-0.03098383245,0.02606126739
2.29,-0.02857363297,0.02839688171
2.3,-0.02599139974,0.03051295445
2.31,-0.02325687491,0.03239721234
2.32,-0.02039063576,0.03403913741
2.33,-0.01741394032,0.0354300196
2.34,-0.01434856999,0.03656299586
2.35,-0.01121667064,0.03743307572
2.36,-0.008040593048,0.03803715329
2.37,-0.004842734041,0.03837400586
2.38,-0.001645379362,0.03844427917
2.39,0.001529450643,0.03825045972
2.4,0.004660151429,0.03779683458
2.41,0.007725679752,0.03708943888
2.42,0.0107056933,0.03613599193
2.43,0.01358068352,0.03494582216
2.44,0.01633210089,0.0335297819
2.45,0.01894247166,0.03190015258
2.46,0.02139550563,0.03007054117
2.47,0.02367619409,0.0280557688
2.48,0.02577089747,0.02587175232
2.49,0.02766742228,0.02353537991
2.5,0.02935508688,0.02106438154
2.51,0.03082477576,0.01847719536
2.52,0.03206898221,0.01579283102
2.53,0.03308183918,0.01303073085
2.54,0.03385913827,0.01021063004
2.55,0.03439833701,0.007352416644
2.56,0.03469855435,0.004475992529
2.57,0.03476055483,0.001601136199
2.58,0.03458672142,-0.001252631638
2.59,0.03418101765,-0.004066178784
2.6,0.03354893931,-0.006820887737
2.61,0.03269745621,-0.009498776522
2.62,0.03163494464,-0.0120826134
2.63,0.03037111109,-0.01455602478
2.64,0.02891690788,-0.01690359563
2.65,0.02728444145,-0.01911096188
2.66,0.02548687405,-0.02116489426
2.67,0.02353831953,-0.02305337308
2.68,0.02145373423,-0.02476565367
2.69,0.01924880359,-0.02629232213
2.7,0.01693982549,-0.0276253411
2.71,0.01454359106,-0.02875808549
2.72,0.01207726388,-0.02968536802
2.73,0.009558258462,-0.03040345457
2.74,0.007004118778,-0.03091006936
2.75,0.004432397699,-0.03120439019
2.76,0.00186053819,-0.03128703379
2.77,-0.0006942429999,-0.03116003166
2.78,-0.003215068366,-0.03082679664
2.79,-0.005685508696,-0.03029208062
2.8,-0.008089687438,-0.02956192379
2.81,-0.01041237978,-0.028643596
2.82,-0.0126391058,-0.0275455306
2.83,-0.01475621725,-0.02627725151
2.84,-0.01675097734,-0.02484929396
2.85,-0.01861163325,-0.02327311971
2.86,-0.02032748088,-0.02156102722
2.87,-0.02188892161,-0.01972605762
2.88,-0.02328751073,-0.01778189713
2.89,-0.02451599744,-0.01574277661
2.9,-0.02556835624,-0.01362336901
2.91,-0.02643980964,-0.01143868541
2.92,-0.02712684222,-0.009203970447
2.93,-0.02762720599,-0.006934597691
2.94,-0.02793991728,-0.004645965841
2.95,-0.02806524528,-0.002353396303
2.96,-0.02800469236,-7.203286492E-05
2.97,-0.02776096659,0.002183255914
2.98,-0.02733794663,0.004397970989
2.99,-0.02674063941,0.006558073225
3,-0.02597513106,0.008650069358
3.01,-0.0250485314,0.01066109303
3.02,-0.02396891258,0.01257898046
3.03,-0.02274524227,0.01439234027
3.04,-0.02138731207,0.01609061723
3.05,-0.01990566151,0.01766414948
3.06,-0.01831149841,0.01910421902
3.07,-0.01661661599,0.02040309524
3.08,-0.01483330752,0.02155407129
3.09,-0.01297427893,0.02255149327
3.1,-0.01105256013,0.02339078202
3.11,-0.009081415527,0.02406844761
3.12,-0.007074254458,0.0245820965
3.13,-0.005044541989,0.02493043145
3.14,-0.003005710763,0.02511324436
3.15,-0.0009710743881,0.02513140208
3.16,0.001046257061,0.02498682556
3.17,0.003033458945,0.02468246238
3.18,0.004978070855,0.02422225321
3.19,0.006868071858,0.02361109226
3.2,0.008691951766,0.02285478223
3.21,0.01043877802,0.02195998411
3.22,0.01209825786,0.0209341622
3.23,0.01366079541,0.01978552481
3.24,0.01511754349,0.01852296109
3.25,0.01646044976,0.01715597448
3.26,0.01768229717,0.0156946132
3.27,0.01877673838,0.01414939832
3.28,0.01973832421,0.01253124988
3.29,0.0205625258,0.01085141162
3.3,0.02124575073,0.009121374751
3.31,0.02178535283,0.007352801249
3.32,0.02217963589,0.005557447292
3.33,0.02242785125,0.003747087182
3.34,0.02253018946,0.001933438295
3.35,0.02248776611,0.0001280875125
3.36,0.02230260195,-0.001657580447
3.37,0.02197759772,-0.003412452356
3.38,0.02151650368,-0.005125753079
3.39,0.02092388427,-0.00678710906
3.4,0.02020507818,-0.008386608366
3.41,0.01936615411,-0.00991485694
3.42,0.0184138626,-0.01136303079
3.43,0.01735558426,-0.01272292385
3.44,0.01619927481,-0.01398699126
3.45,0.01495340731,-0.0151483879
3.46,0.01362691195,-0.01620100198
3.47,0.01222911392,-0.01713948359
3.48,0.0107696696,-0.01795926804
3.49,0.009258501626,-0.01865659401
3.5,0.007705733266,-0.0192285164
3.51,0.006121622389,-0.01967291398
3.52,0.004516495567,-0.01998849172
3.53,0.002900682668,-0.02017477801
3.54,0.001284452329,-0.02023211675
3.55,-0.0003220512898,-0.02016165459
3.56,-0.001908870103,-0.01996532322
3.57,-0.003466291704,-0.01964581716
3.58,-0.004984906618,-0.01920656707
3.59,-0.006455662911,-0.01865170888
3.6,-0.007869917834,-0.01798604897
3.61,-0.009219486246,-0.01721502573
3.62,-0.01049668555,-0.01634466763
3.63,-0.01169437691,-0.01538154833
3.64,-0.01280600261,-0.01433273892
3.65,-0.01382561928,-0.01320575782
3.66,-0.01474792688,-0.01200851855
3.67,-0.01556829342,-0.01074927572
3.68,-0.01628277517,-0.009436569726
3.69,-0.01688813239,-0.008079170306
3.7,-0.01738184052,-0.006686019518
3.71,-0.01776209685,-0.005266174345
3.72,-0.01802782263,-0.003828749359
3.73,-0.01817866076,-0.002382859773
3.74,-0.018214969,-0.0009375652172
3.75,-0.01813780897,0.0004981854093
3.76,-0.01794893093,0.001915607715
3.77,-0.01765075449,0.003306133886
3.78,-0.01724634555,0.004661462776
3.79,-0.0167393895,0.005973607717
3.8,-0.01613416099,0.007234941805
3.81,-0.01543549047,0.008438240409
3.82,-0.01464872776,0.009576720686
3.83,-0.01377970284,0.01064407789
3.84,-0.01283468427,0.01163451831
3.85,-0.01182033542,0.01254278864
3.86,-0.01074366876,0.01336420175
3.87,-0.00961199867,0.01409465858
3.88,-0.008432892943,0.01473066623
3.89,-0.007214123349,0.01526935208
3.9,-0.005963615552,0.015708474
3.91,-0.004689398704,0.01604642651
3.92,-0.003399555031,0.01628224302
3.93,-0.002102169703,0.01641559409
3.94,-0.000805281308,0.0164467819
3.95,0.0004831667897,0.01637673082
3.96,0.001755373913,0.01620697437
3.97,0.003003728087,0.01593963858
3.98,0.004220850333,0.01557742195
3.99,0.005399637009,0.01512357214
4,0.006533299943,0.01458185961
4.01,0.007615404157,0.01395654834
4.02,0.008639902966,0.01325236393
4.03,0.009601170282,0.01247445931
4.04,0.01049402996,0.0116283781
4.05,0.011313782,0.01072001625
4.06,0.01205622562,0.009755581801
4.07,0.01271767883,0.008741553321
4.08,0.01329499477,0.007684637211
4.09,0.01378557447,0.006591724094
4.1,0.01418737616,0.005469844632
4.11,0.014498921,0.004326125041
4.12,0.01471929539,0.00316774255
4.13,0.0148481497,0.002001881114
4.14,0.01488569368,0.0008356876235
4.15,0.0148326884,-0.000323771112
4.16,0.01469043497,-0.001469550361
4.17,0.01446076018,-0.002594868194
4.18,0.01414599893,-0.003693144708
4.19,0.01374897399,-0.004758039523
4.2,0.01327297284,-0.005783487348
4.21,0.01272172213,-0.006763731413
4.22,0.01209935968,-0.007693354601
4.23,0.01141040436,-0.008567308105
4.24,0.01065972403,-0.00938093748
4.25,0.009852501797,-0.01013000595
4.26,0.008994200702,-0.01081071486
4.27,0.008090527257,-0.01141972121
4.28,0.007147393905,-0.0119541522
4.29,0.00617088075,-0.01241161662
4.3,0.005167196753,-0.01279021335
4.31,0.004142640673,-0.01308853653
4.32,0.003103561971,-0.01330567787
4.33,0.002056321933,-0.01344122571
4.34,0.001007255245,-0.01349526126
4.35,-3.736774893E-05,-0.01346835171
4.36,-0.001071377886,-0.01336154066
4.37,-0.002088742902,-0.01317633565
4.38,-0.003083601821,-0.01291469312
4.39,-0.004050297844,-0.01257900088
4.4,-0.004983409517,-0.01217205812
4.41,-0.005877780062,-0.01169705332
4.42,-0.00672854467,-0.01115754007
4.43,-0.007531155654,-0.01055741101
4.44,-0.008281405317,-0.009900870118
4.45,-0.008975446448,-0.009192403572
4.46,-0.009609810338,-0.008436749246
4.47,-0.01018142226,-0.007638865209
4.48,-0.01068761436,-0.006803897345
4.49,-0.01112613586,-0.005937146325
4.5,-0.01149516073,-0.00504403416
4.51,-0.01179329253,-0.004130070526
4.52,-0.01201956677,-0.003200819084
4.53,-0.01217345053,-0.002261863989
4.54,-0.01225483962,-0.001318776813
4.55,-0.01226405312,-0.0003770840383
4.56,-0.01220182561,0.0005577646477
4.57,-0.01206929695,0.001480427112
4.58,-0.0118679999,0.002385698402
4.59,-0.01159984557,0.003268539076
4.6,-0.01126710691,0.004124102109
4.61,-0.01087240032,0.004947758211
4.62,-0.01041866552,0.005735119457
4.63,-0.00990914395,0.006482061104
4.64,-0.009347355652,0.007184741504
4.65,-0.008737075,0.007839620026
4.66,-0.008082305329,0.008443472923
4.67,-0.007387252678,0.00899340709
4.68,-0.006656298818,0.009486871659
4.69,-0.005893973724,0.00992166743
4.7,-0.005104927691,0.0102959541
4.71,-0.004293903243,0.01060825531
4.72,-0.003465707015,0.01085746154
4.73,-0.002625181783,0.01104283079
4.74,-0.001777178778,0.01116398727
4.75,-0.0009265304711,0.01122091795
4.76,-7.802394967E-05,0.01121396715
4.77,0.0007636249548,0.01114382926
4.78,0.001593796664,0.01101153957
4.79,0.002407991845,0.01081846344
4.8,0.003201854295,0.01056628375
4.81,0.003971192591,0.01025698696
4.82,0.004712000435,0.009892847629
4.83,0.005420475596,0.009476411748
4.84,0.006093037375,0.009010478853
4.85,0.006726342542,0.008498083142
4.86,0.007317299684,0.007942473671
4.87,0.00786308192,0.007347093788
4.88,0.008361137968,0.00671555992
4.89,0.008809201536,0.006051639863
4.9,0.009205299022,0.005359230686
4.91,0.00954775554,0.004642336396
4.92,0.009835199269,0.00390504547
4.93,0.01006656415,0.003151508398
4.94,0.01024109098,0.002385915331
4.95,0.01035832688,0.001612473974
4.96,0.01041812326,0.0008353878028
4.97,0.01042063228,5.883473424E-05
4.98,0.01036630189,-0.0007130536742
4.99,0.01025586946,-0.001476212395
5,0.0100903542,-0.002226662394
5.01,0.009871048238,-0.002960529303
5.02,0.009599506621,-0.003674061244
5.03,0.009277536245,-0.004363645735
5.04,0.008907183754,-0.005025825621
5.05,0.008490722559,-0.005657313991
5.06,0.008030639024,-0.006255008032
5.07,0.007529617915,-0.006816001792
5.08,0.006990527188,-0.007337597819
5.09,0.006416402217,-0.007817317661
5.1,0.005810429521,-0.008252911206
5.11,0.005175930088,-0.008642364858
5.12,0.004516342378,-0.008983908539
5.13,0.003835205064,-0.009276021528
5.14,0.003136139609,-0.009517437133
5.15,0.002422832731,-0.009707146205
5.16,0.001699018841,-0.009844399523
5.17,0.0009684625129,-0.009928709048
5.18,0.0002349410513,-0.009959848078
5.19,-0.0004977727855,-0.009937850324
5.2,-0.001225927844,-0.009863007938
5.21,-0.001945811363,-0.009735868503
5.22,-0.002653765444,-0.009557231041
5.23,-0.003346203147,-0.009328141045
5.24,-0.004019624169,-0.009049884579
5.25,-0.004670630062,-0.008723981481
5.26,-0.005295938957,-0.008352177689
5.27,-0.005892399732,-0.007936436744
5.28,-0.00645700562,-0.007478930483
5.29,-0.006986907186,-0.006982028973
5.3,-0.007479424674,-0.006448289713
5.31,-0.007932059661,-0.005880446147
5.32,-0.008342506009,-0.00528139551
5.33,-0.008708660074,-0.004654186056
5.34,-0.009028630146,-0.004002003711
5.35,-0.009300745094,-0.003328158157
5.36,-0.009523562181,-0.002636068431
5.37,-0.009695874032,-0.001929248035
5.38,-0.009816714723,-0.001211289629
5.39,-0.009885364966,-0.0004858493247
5.4,-0.009901356365,0.0002433693543
5.41,-0.009864474723,0.0009726318222
5.42,-0.009774762371,0.001698189031
5.43,-0.009632519501,0.002416294277
5.44,-0.009438304477,0.003123220161
5.45,-0.009192933115,0.003815275656
5.46,-0.008897476904,0.004488823216
5.47,-0.00855326015,0.005140295877
5.48,-0.008161856049,0.005766214288
5.49,-0.00772508165,0.00636320361
5.5,-0.007244991725,0.00692801021
5.51,-0.006723871527,0.007457518098
5.52,-0.006164228438,0.007948765015
5.53,-0.00556878252,0.008398958124
5.54,-0.004940455955,0.008805489213
5.55,-0.004282361417,0.009165949335
5.56,-0.003597789365,0.009478142815
5.57,-0.002890194298,0.009740100541
5.58,-0.002163179999,0.009950092465
5.59,-0.001420483798,0.01010663922
5.6,-0.0006659599009,0.01020852279
5.61,9.643817137E-05,0.01025479615
5.62,0.000862675969,0.0102447918
5.63,0.001628657274,0.01017812912
5.64,0.002390243958,0.01005472044
5.65,0.003143276466,0.009874775838
5.66,0.003883594832,0.009638806501
5.67,0.004607060161,0.009347626675
5.68,0.005309576447,0.009002354087
5.69,0.005987112654,0.00860440883
5.7,0.006635724935,0.008155510649
5.71,0.007251578883,0.007657674603
5.72,0.007830971689,0.007113205069
5.73,0.008370354084,0.006524688083
5.74,0.00886635195,0.005894981993
5.75,0.00931578745,0.005227206443
5.76,0.009715699561,0.004524729684
5.77,0.01006336387,0.003791154249
5.78,0.01035631149,0.003030301011
5.79,0.01059234699,0.002246191686
5.8,0.01076956518,0.001443029815
5.81,0.01088636659,0.000625180316
5.82,0.01094147162,-0.0002028523295
5.83,0.01093393316,-0.001036447164
5.84,0.01086314749,-0.001870891004
5.85,0.01072886354,-0.002701403756
5.86,0.01053119029,-0.003523164648
5.87,0.01027060214,-0.004331339282
5.88,0.009947942351,-0.005121107321
5.89,0.009564424317,-0.005887690693
5.9,0.009121630729,-0.006626382133
5.91,0.008621510471,-0.007332573901
5.92,0.008066373292,-0.008001786503
5.93,0.007458882195,-0.008629697234
5.94,0.006802043533,-0.009212168366
5.95,0.006099194839,-0.009745274781
5.96,0.005353990378,-0.01022533088
5.97,0.00457038449,-0.01064891656
5.98,0.003752612756,-0.01101290211
5.99,0.002905171067,-0.01131447176
6,0.002032792668,-0.01155114582
