"Freq [GHz]","re(S(Tx_p1,Tx_p1)) []","im(S(Tx_p1,Tx_p1)) []"
1,0.1208700565,0.1186574003
1.01,0.1300314288,0.1083878193
1.02,0.1383256306,0.097404448
1.03,0.1456963531,0.08578053767
1.04,0.1520935145,0.07359383223
1.05,0.1574736205,0.06092603404
1.06,0.1618000783,0.04786224052
1.07,0.1650434624,0.03449035607
1.08,0.1671817297,0.02090048332
1.09,0.1682003823,0.007184298125
1.1,0.1680925776,-0.006565587118
1.11,0.1668591839,-0.0202562675
1.12,0.1645087812,-0.03379519213
1.13,0.1610576086,-0.04709080875
1.14,0.1565294562,-0.06005320162
1.15,0.1509555044,-0.07259471825
1.16,0.1443741111,-0.08463058054
1.17,0.1368305472,-0.09607947576
1.18,0.1283766843,-0.1068641234
1.19,0.1190706355,-0.1169118135
1.2,0.1089763517,-0.1261549133
1.21,0.09816317692,-0.1345313376
1.22,0.08670536621,-0.1419849805
1.23,0.07468156814,-0.1484661046
1.24,0.06217427704,-0.1539316859
1.25,0.04926925798,-0.1583457105
1.26,0.03605494911,-0.1616794225
1.27,0.02262184527,-0.1639115211
1.28,0.00906186748,-0.1650283037
1.29,-0.004532277235,-0.1650237573
1.3,-0.01806774125,-0.1638995947
1.31,-0.03145218222,-0.1616652364
1.32,-0.044594405,-0.1583377385
1.33,-0.05740499494,-0.1539416674
1.34,-0.06979693808,-0.148508921
1.35,-0.081686224,-0.1420784995
1.36,-0.09299242686,-0.1346962254
1.37,-0.1036392606,-0.1264144172
1.38,-0.1135551047,-0.1172915164
1.39,-0.1226734961,-0.1073916736
1.4,-0.1309335846,-0.09678429339
1.41,-0.1382805481,-0.08554354397
1.42,-0.144665965,-0.07374783379
1.43,-0.1500481414,-0.06147925906
1.44,-0.1543923897,-0.04882302625
1.45,-0.1576712584,-0.0358668537
1.46,-0.1598647109,-0.02270035658
1.47,-0.1609602506,-0.009414419508
1.48,-0.1609529947,0.003899438578
1.49,-0.1598456931,0.01714970287
1.5,-0.1576486938,0.03024549993
1.51,-0.1543798559,0.04309722922
1.52,-0.1500644092,0.05561718441
1.53,-0.1447347627,0.06772016017
1.54,-0.138430263,0.07932404014
1.55,-0.1311969046,0.09035036194
1.56,-0.1230869944,0.1007248554
1.57,-0.1141587722,0.1103779499
1.58,-0.1044759908,0.119245248
1.59,-0.09410745816,0.1272679613
1.6,-0.0831265454,0.134393306
1.61,-0.07161066391,0.1405748555
1.62,-0.05964071531,0.145772847
1.63,-0.04730051848,0.1499544418
1.64,-0.03467621746,0.1530939343
1.65,-0.02185567473,0.1551729128
1.66,-0.008927853947,0.1561803667
1.67,0.004017803231,0.1561127424
1.68,0.01689200205,0.154973947
1.69,0.0296062167,0.1527752987
1.7,0.04207330521,0.1495354262
1.71,0.05420811275,0.1452801167
1.72,0.06592805935,0.1400421143
1.73,0.07715370764,0.13386087
1.74,0.08780930685,0.1267822455
1.75,0.09782330929,0.1188581732
1.76,0.1071288557,0.110146274
1.77,0.1156642261,0.1007094376
1.78,0.1233732531,0.09061536555
1.79,0.1302056954,0.07993608383
1.8,0.1361175673,0.06874742521
1.81,0.1410714245,0.05712848754
1.82,0.1450366026,0.04516107071
1.83,0.1479894064,0.03292909655
1.84,0.1499132514,0.02051801598
1.85,0.1507987527,0.008014207438
1.86,0.1506437653,-0.004495628952
1.87,0.1494533717,-0.01692507735
1.88,0.1472398199,-0.02918860793
1.89,0.144022411,-0.04120217013
1.9,0.1398273377,-0.05288377338
1.91,0.1346874749,-0.06415405109
1.92,0.1286421253,-0.07493680416
1.93,0.121736719,-0.08515952009
1.94,0.1140224732,-0.09475386429
1.95,0.1055560113,-0.1036561401
1.96,0.09639894648,-0.1118077142
1.97,0.08661743149,-0.1191554057
1.98,0.07628167841,-0.1256518338
1.99,0.06546545225,-0.1312557251
2,0.05424554139,-0.1359321757
2.01,0.04270120928,-0.1396528676
2.02,0.03091363093,-0.1423962387
2.03,0.01896531851,-0.1441476036
2.04,0.006939539965,-0.1448992271
2.05,-0.005080265101,-0.1446503471
2.06,-0.01701106819,-0.1434071494
2.07,-0.02877082924,-0.1411826942
2.08,-0.04027906441,-0.1379967936
2.09,-0.05145740047,-0.1338758434
2.1,-0.06223011183,-0.1288526088
2.11,-0.07252463652,-0.122965967
2.12,-0.08227206772,-0.1162606074
2.13,-0.09140761728,-0.1087866935
2.14,-0.09987104825,-0.1005994866
2.15,-0.1076070735,-0.09175893715
2.16,-0.1145657175,-0.08232924362
2.17,-0.1207026397,-0.07237838498
2.18,-0.1259794161,-0.06197762818
2.19,-0.1303637788,-0.05120101527
2.2,-0.1338298101,-0.04012483349
2.21,-0.1363580928,-0.02882707235
2.22,-0.1379358123,-0.0173868714
2.23,-0.1385568137,-0.005883962756
2.24,-0.1382216104,0.005601887749
2.25,-0.1369373471,0.01699143674
2.26,-0.1347177158,0.02820651302
2.27,-0.1315828269,0.03917055691
2.28,-0.1275590357,0.04980914548
2.29,-0.1226787259,0.06005050009
2.3,-0.1169800524,0.06982597276
2.31,-0.110506645,0.07907050789
2.32,-0.1033072748,0.08772307654
2.33,-0.09543548756,0.09572708002
2.34,-0.086949204,0.1030307204
2.35,-0.07791029317,0.1095873351
2.36,-0.06838411957,0.1153556942
2.37,-0.0584390687,0.1203002575
2.38,-0.04814605398,0.1243913908
2.39,-0.0375780088,0.1276055391
2.4,-0.02680936723,0.1299253569
2.41,-0.01591553725,0.1313397936
2.42,-0.004972370121,0.1318441352
2.43,0.005944370261,0.1314400004
2.44,0.01675953433,0.1301352936
2.45,0.02739910646,0.1279441127
2.46,0.03779071359,0.1248866158
2.47,0.04786411932,0.1209888449
2.48,0.05755170021,0.1162825103
2.49,0.06678890086,0.1108047361
2.5,0.07551466484,0.10459777
2.51,0.08367183857,0.0977086585
2.52,0.09120754542,0.09018889046
2.53,0.09807352761,0.08209401242
2.54,0.1042264537,0.07348321721
2.55,0.1096281898,0.06441891006
2.56,0.1142460327,0.05496625474
2.57,0.1180529037,0.04519270342
2.58,0.1210275014,0.03516751333
2.59,0.1231544142,0.02496125406
2.6,0.1244241899,0.01464530871
2.61,0.1248333634,0.004291372564
2.62,0.1243844431,-0.006029047102
2.63,0.123085855,-0.01624512673
2.64,0.1209518456,-0.02628721415
2.65,0.1180023459,-0.03608730485
2.66,0.1142627952,-0.04557950361
2.67,0.109763929,-0.05470046835
2.68,0.1045415299,-0.06338983321
2.69,0.09863614633,-0.07159060791
2.7,0.09209277906,-0.07924955102
2.71,0.08496053892,-0.08631751439
2.72,0.07729227837,-0.09274975671
2.73,0.06914419933,-0.09850622423
2.74,0.06057544045,-0.1035517967
2.75,0.05164764666,-0.1078564975
2.76,0.04242452438,-0.1113956658
2.77,0.03297138536,-0.1141500913
2.78,0.02335468258,-0.1161061094
2.79,0.01364154155,-0.1172556571
2.8,0.003899290169,-0.1175962897
2.81,-0.005805009371,-0.1171311581
2.82,-0.01540502351,-0.1158689471
2.83,-0.02483560178,-0.113823776
2.84,-0.03403321973,-0.1110150616
2.85,-0.04293640726,-0.1074673456
2.86,-0.05148615948,-0.1032100876
2.87,-0.05962632744,-0.09827742519
2.88,-0.06730398596,-0.09270790325
2.89,-0.07446977633,-0.08654417499
2.9,-0.08107822161,-0.07983267615
2.91,-0.08708801249,-0.07262327561
2.92,-0.09246226203,-0.06496890475
2.93,-0.09716872764,-0.05692516823
2.94,-0.1011799991,-0.04854993931
2.95,-0.1044736515,-0.03990294241
2.96,-0.1070323624,-0.03104532607
2.97,-0.1088439922,-0.02203922937
2.98,-0.1099016288,-0.01294734481
2.99,-0.1102035942,-0.003832480836
3,-0.1097534163,0.005242872973
3.01,-0.108559763,0.01421697509
3.02,-0.1066363427,0.02302925256
3.03,-0.1040017699,0.03162070998
3.04,-0.1006793972,0.03993432433
3.05,-0.09669711732,0.04791542278
3.06,-0.09208713363,0.0555120412
3.07,-0.08688570367,0.06267526085
3.08,-0.08113285628,0.06935952124
3.09,-0.07487208493,0.07552290702
3.1,-0.06815001967,0.08112740728
3.11,-0.06101607998,0.08613914555
3.12,-0.0535221113,0.09052857923
3.13,-0.04572200772,0.09427066727
3.14,-0.03767132376,0.09734500527
3.15,-0.02942687794,0.09973592727
3.16,-0.02104635097,0.1014325738
3.17,-0.01258788149,0.1024289264
3.18,-0.004109662073,0.1027238074
3.19,0.004330461547,0.1023208475
3.2,0.01267538539,0.1012284195
3.21,0.02086913354,0.09945953979
3.22,0.02885723319,0.09703173887
3.23,0.03658707599,0.09396690187
3.24,0.04400826331,0.09029108012
3.25,0.05107293304,0.08603427576
3.26,0.05773606602,0.08123020096
3.27,0.06395576997,0.07591601369
3.28,0.06969353928,0.07013203211
3.29,0.07491448899,0.06392142973
3.3,0.07958756171,0.05732991368
3.31,0.08368570609,0.05040538842
3.32,0.0871860261,0.0431976075
3.33,0.09006990018,0.03575781572
3.34,0.09232306982,0.02813838439
3.35,0.09393569724,0.02039244232
3.36,0.09490239198,0.012573505
3.37,0.09522220672,0.004735104654
3.38,0.09489860238,-0.0030695762
3.39,0.09393938334,-0.01078806538
3.4,0.09235660323,-0.01836895322
3.41,0.09016644254,-0.02576223402
3.42,0.0873890589,-0.03291963458
3.43,0.08404841154,-0.03979492749
3.44,0.08017206132,-0.04634422734
3.45,0.07579094793,-0.0525262679
3.46,0.07093914618,-0.05830265853
3.47,0.06565360305,-0.06363811823
3.48,0.05997385779,-0.06850068605
3.49,0.05394174696,-0.07286190655
3.5,0.04760109667,-0.07669698933
3.51,0.0409974044,-0.07998494176
3.52,0.03417751248,-0.08270867434
3.53,0.02718927583,-0.08485507817
3.54,0.02008122611,-0.0864150744
3.55,0.01290223471,-0.08738363543
3.56,0.005701177034,-0.08775977831
3.57,-0.001473399893,-0.08754653031
3.58,-0.008573603916,-0.08675086761
3.59,-0.01555251639,-0.08538362744
3.6,-0.02236450075,-0.08345939483
3.61,-0.02896549903,-0.08099636497
3.62,-0.03531331437,-0.07801618227
3.63,-0.04136787785,-0.0745437577
3.64,-0.04709149775,-0.07060706572
3.65,-0.05244909004,-0.06623692254
3.66,-0.05740838842,-0.06146674741
3.67,-0.06194013286,-0.05633230877
3.68,-0.06601823562,-0.05087145718
3.69,-0.06961992372,-0.04512384706
3.7,-0.07272585725,-0.03913064918
3.71,-0.07532022306,-0.03293425609
3.72,-0.07739080325,-0.02657798254
3.73,-0.07892901852,-0.02010576304
3.74,-0.07992994626,-0.01356184857
3.75,-0.08039231354,-0.00699050468
3.76,-0.08031846539,-0.0004357129417
3.77,-0.07971430891,0.006059122267
3.78,-0.0785892338,0.01245145962
3.79,-0.07695601018,0.01869989751
3.8,-0.07483066474,0.0247644398
3.81,-0.07223233616,0.03060674885
3.82,-0.06918311125,0.03619038435
3.83,-0.06570784304,0.0414810265
3.84,-0.06183395229,0.0464466821
3.85,-0.05759121402,0.05105787246
3.86,-0.05301153071,0.05528780209
3.87,-0.04812869381,0.05911250713
3.88,-0.04297813552,0.0625109829
3.89,-0.03759667233,0.06546528987
3.9,-0.03202224256,0.06796063773
3.91,-0.02629363945,0.06998544705
3.92,-0.02045024185,0.07153138867
3.93,-0.01453174431,0.07259340059
3.94,-0.008577888419,0.07316968275
3.95,-0.002628197227,0.07326166985
3.96,0.003278285529,0.07287398278
3.97,0.009103249651,0.07201435931
3.98,0.01480936454,0.07069356465
3.99,0.0203605155,0.06892528288
4,0.02572202889,0.06672599022
4.01,0.03086088467,0.06411481117
4.02,0.03574591505,0.06111335882
4.03,0.04034798825,0.05774556057
4.04,0.04464017614,0.0540374707
4.05,0.04859790498,0.05001707112
4.06,0.05219908836,0.04571406197
4.07,0.05542424186,0.04115964347
4.08,0.05825657876,0.03638629073
4.09,0.06068208646,0.03142752307
4.1,0.0626895834,0.02631766954
4.11,0.06427075642,0.0210916322
4.12,0.06542017844,0.01578464881
4.13,0.06613530674,0.01043205662
4.14,0.06641646219,0.005069058692
4.15,0.06626678964,-0.0002695056451
4.16,0.06569220022,-0.005549384691
4.17,0.06470129609,-0.01073713128
4.18,0.0633052785,-0.01580031129
4.19,0.06151783982,-0.02070770252
4.2,0.05935504079,-0.02542948273
4.21,0.05683517384,-0.02993740574
4.22,0.05397861356,-0.03420496463
4.23,0.05080765577,-0.03820754112
4.24,0.04734634611,-0.04192254035
4.25,0.04362029972,-0.04532951041
4.26,0.03965651321,-0.04841024597
4.27,0.03548317027,-0.05114887577
4.28,0.03112944248,-0.05353193337
4.29,0.02662528649,-0.05554841118
4.3,0.02200123913,-0.05718979761
4.31,0.01728821182,-0.05845009724
4.32,0.01251728555,-0.05932583438
4.33,0.007719507941,-0.05981604004
4.34,0.002925693535,-0.05992222284
4.35,-0.001833771306,-0.05964832415
4.36,-0.006529117752,-0.0590006582
4.37,-0.01113137692,-0.05798783761
4.38,-0.01561255429,-0.05662068521
4.39,-0.01994579506,-0.05491213293
4.4,-0.02410553961,-0.05287710858
4.41,-0.02806766808,-0.0505324115
4.42,-0.03180963345,-0.04789657817
4.43,-0.0353105823,-0.04498973864
4.44,-0.03855146281,-0.04183346506
4.45,-0.04151511942,-0.03845061336
4.46,-0.04418637381,-0.03486515918
4.47,-0.04655209185,-0.03110202931
4.48,-0.04860123649,-0.02718692973
4.49,-0.05032490624,-0.02314617155
4.5,-0.05171635952,-0.01900649582
4.51,-0.05277102472,-0.01479489858
4.52,-0.05348649643,-0.01053845706
4.53,-0.05386251783,-0.006264158386
4.54,-0.05390094981,-0.001998731552
4.55,-0.05360572722,0.002231516044
4.56,-0.05298280266,0.006400856723
4.57,-0.05204007855,0.01048429431
4.58,-0.05078732805,0.01445770871
4.59,-0.0492361055,0.01829799261
4.6,-0.04739964731,0.02198317936
4.61,-0.04529276389,0.0254925616
4.62,-0.04293172367,0.02880679998
4.63,-0.04033412997,0.03190802139
4.64,-0.03751879175,0.03477990644
4.65,-0.034505589,0.03740776567
4.66,-0.03131533395,0.03977860436
4.67,-0.02796962888,0.04188117571
4.68,-0.02449072151,0.04370602225
4.69,-0.02090135905,0.04524550551
4.7,-0.01722464171,0.04649382397
4.71,-0.0134838766,0.04744701936
4.72,-0.009702433078,0.04810297165
4.73,-0.005903600222,0.04846138277
4.74,-0.002110447357,0.04852374963
4.75,0.00165431154,0.04829332663
4.76,0.005368448851,0.0477750782
4.77,0.009010349005,0.04697562186
4.78,0.01255912819,0.04590316229
4.79,0.01599474749,0.04456741715
4.8,0.01929811884,0.04297953499
4.81,0.02245120343,0.04115200626
4.82,0.02543710193,0.03909856785
4.83,0.02824013636,0.03683410197
4.84,0.03084592316,0.03437453009
4.85,0.03324143724,0.03173670269
4.86,0.03541506684,0.02893828557
4.87,0.03735665904,0.02599764343
4.88,0.03905755589,0.02293372155
4.89,0.04051062111,0.01976592624
4.9,0.04171025743,0.01651400483
4.91,0.04265241464,0.01319792588
4.92,0.04333458854,0.009837760413
4.93,0.04375581104,0.006453564699
4.94,0.04391663151,0.003065265302
4.95,0.04381908984,-0.0003074529476
4.96,0.04346668151,-0.003645255546
4.97,0.04286431497,-0.006929262892
4.98,0.04201826182,-0.01014115034
4.99,0.04093610026,-0.01326324325
5,0.03962665215,-0.01627860666
5.01,0.03809991437,-0.01917112912
5.02,0.03636698479,-0.02192560038
5.03,0.03443998357,-0.02452778265
5.04,0.03233197017,-0.0269644752
5.05,0.03005685674,-0.02922357201
5.06,0.02762931843,-0.03129411239
5.07,0.02506470112,-0.03316632439
5.08,0.02237892716,-0.03483166103
5.09,0.01958839975,-0.03628282915
5.1,0.01670990636,-0.03751381103
5.11,0.01376052186,-0.0385198788
5.12,0.01075751179,-0.03929760165
5.13,0.007718236357,-0.03984484602
5.14,0.004660055568,-0.04016076901
5.15,0.001600236019,-0.04024580495
5.16,-0.001444140225,-0.04010164562
5.17,-0.004456264241,-0.03973121421
5.18,-0.007419685956,-0.03913863333
5.19,-0.01031839656,-0.03832918731
5.2,-0.0131369073,-0.03730927918
5.21,-0.01586032434,-0.03608638265
5.22,-0.01847441938,-0.03466898936
5.23,-0.02096569577,-0.03306655183
5.24,-0.02332144994,-0.03128942243
5.25,-0.02552982788,-0.02934878879
5.26,-0.02757987651,-0.02725660604
5.27,-0.02946158984,-0.02502552616
5.28,-0.03116594978,-0.02266882501
5.29,-0.03268496147,-0.02020032723
5.3,-0.03401168309,-0.01763432958
5.31,-0.03514025022,-0.01498552298
5.32,-0.03606589453,-0.01226891369
5.33,-0.036784957,-0.009499743971
5.34,-0.0372948956,-0.006693412631
5.35,-0.03759428756,-0.003865395793
5.36,-0.03768282622,-0.001031168228
5.37,-0.03756131266,0.001793874393
5.38,-0.03723164215,0.004594492009
5.39,-0.0366967856,0.007355675122
5.4,-0.03596076613,0.0100627179
5.41,-0.03502863095,0.01270128914
5.42,-0.03390641872,0.01525750076
5.43,-0.03260112263,0.01771797373
5.44,-0.03112064929,0.02006990092
5.45,-0.02947377379,0.0223011069
5.46,-0.02767009105,0.02440010437
5.47,-0.02571996377,0.02635614691
5.48,-0.02363446721,0.0281592781
5.49,-0.02142533096,0.02980037661
5.5,-0.01910487818,0.03127119725
5.51,-0.01668596229,0.03256440778
5.52,-0.01418190167,0.03367362136
5.53,-0.01160641238,0.03459342458
5.54,-0.008973539455,0.03531940087
5.55,-0.006297586812,0.03584814934
5.56,-0.003593046206,0.03617729887
5.57,-0.0008745254966,0.03630551752
5.58,0.001843323506,0.03623251714
5.59,0.004545877296,0.03595905317
5.6,0.007218612745,0.03548691969
5.61,0.009847178689,0.03481893971
5.62,0.01241746674,0.03395895069
5.63,0.01491568105,0.03291178539
5.64,0.01732840665,0.03168324813
5.65,0.01964267619,0.03028008647
5.66,0.02184603476,0.02870995849
5.67,0.02392660241,0.02698139573
5.68,0.02587313423,0.02510376193
5.69,0.02767507765,0.02308720781
5.7,0.02932262672,0.02094262182
5.71,0.03080677305,0.01868157741
5.72,0.03211935326,0.01631627663
5.73,0.03325309264,0.01385949056
5.74,0.03420164482,0.01132449667
5.75,0.03495962718,0.008725013405
5.76,0.0355226519,0.006075132218
5.77,0.03588735235,0.003389247388
5.78,0.03605140477,0.0006819838664
5.79,0.03601354498,-0.00203187651
5.8,0.03577357998,-0.004737470136
5.81,0.0353323945,-0.007419927736
5.82,0.03469195217,-0.01006445112
5.83,0.03385529133,-0.01265639021
5.84,0.03282651555,-0.01518132004
5.85,0.03161077862,-0.01762511722
5.86,0.03021426414,-0.01997403574
5.87,0.02864415972,-0.02221478139
5.88,0.02690862583,-0.02433458474
5.89,0.02501675931,-0.02632127212
5.9,0.02297855182,-0.02816333418
5.91,0.02080484309,-0.02984999187
5.92,0.01850726945,-0.03137125917
5.93,0.01609820752,-0.03271800246
5.94,0.0135907135,-0.033881996
5.95,0.01099845823,-0.03485597329
5.96,0.008335658247,-0.03563367391
5.97,0.005617003153,-0.03620988552
5.98,0.002857579719,-0.0365804808
5.99,7.279292628E-05,-0.03674244895
6,-0.002721715591,-0.03669392161
