"Freq [GHz]","re(S(Tx_p1,Tx_p1)) []","im(S(Tx_p1,Tx_p1)) []"
1,0.09796286136,0.06597909435
1.01,0.1026554509,0.05745740577
1.02,0.106608873,0.04860752174
1.03,0.1098006974,0.03949377182
1.04,0.1122141387,0.03018195149
1.05,0.1138381433,0.0207388216
1.06,0.1146674306,0.01123160415
1.07,0.1147024896,0.001727478285
1.08,0.1139495314,-0.007706919328
1.09,0.1124203981,-0.017005986
1.1,0.1101324294,-0.02610563248
1.11,0.1071082871,-0.03494374668
1.12,0.1033757421,-0.04346063829
1.13,0.09896742242,-0.05159946072
1.14,0.09392052748,-0.05930660748
1.15,0.0882765095,-0.06653207999
1.16,0.08208072562,-0.07322982422
1.17,0.07538206346,-0.07935803384
1.18,0.06823254362,-0.08487941787
1.19,0.06068690212,-0.08976143103
1.2,0.05280215669,-0.09397646535
1.21,0.04463716014,-0.09750200211
1.22,0.03625214472,-0.1003207232
1.23,0.02770826105,-0.1024205814
1.24,0.01906711524,-0.1037948299
1.25,0.01039030807,-0.1044420111
1.26,0.001738979628,-0.1043659044
1.27,-0.006826637051,-0.103575436
1.28,-0.01524764981,-0.1020845495
1.29,-0.02346692555,-0.09991204023
1.3,-0.03142948967,-0.09708135526
1.31,-0.03908290378,-0.09362035976
1.32,-0.04637761907,-0.08956107336
1.33,-0.05326730297,-0.08493937839
1.34,-0.05970913666,-0.07979470267
1.35,-0.06566408185,-0.07416967983
1.36,-0.07109711483,-0.06810979012
1.37,-0.07597742664,-0.06166298477
1.38,-0.08027858827,-0.05487929714
1.39,-0.08397867999,-0.04781044391
1.4,-0.08706038447,-0.04050941959
1.41,-0.08951104351,-0.03303008765
1.42,-0.09132267842,-0.02542677145
1.43,-0.09249197456,-0.01775384839
1.44,-0.09302023074,-0.01006535022
1.45,-0.09291327434,-0.002414572611
1.46,-0.09218134367,0.005146303015
1.47,-0.09083893868,0.01256657276
1.48,-0.08890464211,0.01979735591
1.49,-0.08640091278,0.02679192072
1.5,-0.08335385318,0.0335059879
1.51,-0.07979295379,0.03989801005
1.52,-0.07575081642,0.04592942516
1.53,-0.07126285922,0.05156488262
1.54,-0.06636700603,0.0567724407
1.55,-0.06110336283,0.06152373419
1.56,-0.05551388411,0.06579411179
1.57,-0.04964203191,0.06956274248
1.58,-0.04353243049,0.07281269094
1.59,-0.03723051939,0.07553096178
1.6,-0.03078220765,0.07770851321
1.61,-0.0242335319,0.07934024035
1.62,-0.01763032093,0.08042492934
1.63,-0.01101786933,0.08096518286
1.64,-0.004440622465,0.08096731871
1.65,0.002058124933,0.08044124253
1.66,0.008436514451,0.07940029644
1.67,0.01465439211,0.07786108534
1.68,0.02067355717,0.0758432828
1.69,0.02645799018,0.07336941852
1.7,0.03197405889,0.07046464953
1.71,0.03719070099,0.06715651747
1.72,0.04207958291,0.063474694
1.73,0.04661523378,0.05945071698
1.74,0.05077515452,0.05511771944
1.75,0.05453990147,0.05051015403
1.76,0.05789314492,0.04566351497
1.77,0.06082170252,0.04061406002
1.78,0.06331554823,0.03539853455
1.79,0.06536779725,0.03005389997
1.8,0.06697466796,0.02461706843
1.81,0.06813542166,0.01912464588
1.82,0.06885228144,0.01361268523
1.83,0.06913033139,0.008116451192
1.84,0.06897739765,0.00267019855
1.85,0.06840391272,-0.002693035032
1.86,0.06742276489,-0.007941620299
1.87,0.06604913427,-0.01304551085
1.88,0.06430031738,-0.01797639991
1.89,0.06219554207,-0.02270785868
1.9,0.05975577458,-0.02721545596
1.91,0.05700352063,-0.03147685861
1.92,0.05396262245,-0.03547191275
1.93,0.05065805341,-0.03918270588
1.94,0.04711571218,-0.04259360998
1.95,0.04336221804,-0.04569130615
1.96,0.03942470904,-0.04846479122
1.97,0.03533064448,-0.05090536702
1.98,0.03110761327,-0.05300661326
1.99,0.0267831494,-0.05476434475
2,0.02238455586,-0.05617655418
2.01,0.01793873798,-0.05724334155
2.02,0.01347204725,-0.05796683137
2.03,0.009010136409,-0.05835107901
2.04,0.004577826447,-0.05840196756
2.05,0.0001989861198,-0.05812709638
2.06,-0.004103575689,-0.05753566289
2.07,-0.008308204485,-0.0566383389
2.08,-0.01239448146,-0.05544714287
2.09,-0.01634329158,-0.05397530939
2.1,-0.0201368787,-0.05223715724
2.11,-0.02375888782,-0.05024795729
2.12,-0.02719439517,-0.04802380136
2.13,-0.03042992626,-0.0455814732
2.14,-0.03345346289,-0.04293832262
2.15,-0.03625443952,-0.04011214372
2.16,-0.03882372989,-0.03712105806
2.17,-0.04115362474,-0.03398340344
2.18,-0.0432378015,-0.03071762907
2.19,-0.0450712868,-0.02734219751
2.2,-0.04665041289,-0.02387549383
2.21,-0.04797276876,-0.02033574237
2.22,-0.04903714714,-0.01674093112
2.23,-0.04984348813,-0.01310874398
2.24,-0.0503928205,-0.009456500646
2.25,-0.05068720153,-0.005801104249
2.26,-0.0507296563,-0.002158996285
2.27,-0.05052411711,0.001453881351
2.28,-0.0500753639,0.005022117669
2.29,-0.04938896625,0.008530857692
2.3,-0.04847122759,0.0119658219
2.31,-0.04732913213,0.01531332061
2.32,-0.04597029491,0.0185602639
2.33,-0.0444029153,0.02169416774
2.34,-0.04263573427,0.02470315704
2.35,-0.04067799542,0.02757596632
2.36,-0.03853941,0.03030193855
2.37,-0.03623012578,0.03287102309
2.38,-0.03376069963,0.03527377312
2.39,-0.03114207369,0.03750134338
2.4,-0.02838555481,0.03954548869
2.41,-0.02550279684,0.04139856384
2.42,-0.02250578545,0.04305352525
2.43,-0.0194068249,0.04450393486
2.44,-0.01621852637,0.04574396659
2.45,-0.01295379707,0.0467684156
2.46,-0.009625829747,0.04757271043
2.47,-0.006248091864,0.04815292834
2.48,-0.002834313804,0.04850581356
2.49,0.0006015244561,0.04862879861
2.5,0.004045208863,0.04852002832
2.51,0.007482309576,0.04817838651
2.52,0.01089820258,0.04760352467
2.53,0.01427809514,0.04679589259
2.54,0.01760705559,0.04575677014
2.55,0.02087004776,0.04448829984
2.56,0.02405197058,0.04299351946
2.57,0.02713770283,0.04127639409
2.58,0.03011215354,0.03934184692
2.59,0.03296031781,0.03719578794
2.6,0.03566733833,0.03484513988
2.61,0.03821857227,0.03229786053
2.62,0.04059966357,0.0295629607
2.63,0.04279662009,0.02665051703
2.64,0.04479589548,0.02357167891
2.65,0.0465844751,0.02033866872
2.66,0.04814996552,0.01696477486
2.67,0.04948068695,0.01346433678
2.68,0.05056576767,0.009852721527
2.69,0.05139523996,0.006146291343
2.7,0.05196013632,0.002362361869
2.71,0.05225258524,-0.00148084936
2.72,0.05226590543,-0.00536428432
2.73,0.05199469746,-0.00926811593
2.74,0.05143493182,-0.01317182951
2.75,0.05058403217,-0.01705431417
2.76,0.04944095288,-0.02089396381
2.77,0.04800624956,-0.02466878758
2.78,0.04628214165,-0.02835652908
2.79,0.04427256603,-0.0319347939
2.8,0.04198322058,-0.03538118474
2.81,0.03942159678,-0.03867344329
2.82,0.03659700055,-0.04178959792
2.83,0.03352056047,-0.04470811624
2.84,0.03020522274,-0.04740806134
2.85,0.02666573221,-0.04986925053
2.86,0.02291859909,-0.05207241529
2.87,0.01898205099,-0.05399936119
2.88,0.01487596994,-0.05563312617
2.89,0.01062181445,-0.05695813604
2.9,0.006242526551,-0.05796035546
2.91,0.001762424056,-0.0586274331
2.92,-0.002792921644,-0.05894883949
2.93,-0.007396821742,-0.05891599603
2.94,-0.01202161953,-0.05852239383
2.95,-0.01663885245,-0.05776370091
2.96,-0.02121942587,-0.05663785659
2.97,-0.02573379731,-0.05514515158
2.98,-0.03015217024,-0.05328829295
2.99,-0.03444469588,-0.05107245259
3,-0.03858168168,-0.04850529848
3.01,-0.04253380504,-0.04559700789
3.02,-0.04627233049,-0.04236026167
3.03,-0.04976932879,-0.03881021945
3.04,-0.0529978961,-0.03496447506
3.05,-0.05593237151,-0.03084299212
3.06,-0.05854855092,-0.02646801976
3.07,-0.06082389562,-0.02186398861
3.08,-0.06273773362,-0.01705738728
3.09,-0.06427145181,-0.01207661998
3.1,-0.06540867729,-0.006951845826
3.11,-0.066135446,-0.00171480074
3.12,-0.066440357,0.003601397089
3.13,-0.06631471083,0.00896245695
3.14,-0.0657526303,0.01433313926
3.15,-0.06475116252,0.01967749161
3.16,-0.06331036073,0.02495909562
3.17,-0.06143334491,0.03014132274
3.18,-0.05912634016,0.03518759733
3.19,-0.0563986921,0.04006166476
3.2,-0.05326285858,0.04472786281
3.21,-0.04973437743,0.04915139393
3.22,-0.04583180982,0.05329859643
3.23,-0.04157665939,0.05713721223
3.24,-0.03699326712,0.06063664908
3.25,-0.03210868251,0.06376823488
3.26,-0.02695251152,0.06650546209
3.27,-0.02155674206,0.06882421991
3.28,-0.01595554812,0.07070301229
3.29,-0.01018507361,0.07212315963
3.3,-0.004283197296,0.07306898243
3.31,0.001710719499,0.0735279649
3.32,0.007756100894,0.07349089709
3.33,0.01381143811,0.07295199391
3.34,0.01983458284,0.07190898978
3.35,0.02578305021,0.07036320767
3.36,0.03161432896,0.0683196017
3.37,0.0372861966,0.06578677248
3.38,0.04275703703,0.06277695462
3.39,0.0479861582,0.05930597616
3.4,0.05293410721,0.05539318981
3.41,0.05756298036,0.05106137613
3.42,0.06183672563,0.04633661899
3.43,0.06572143499,0.04124815398
3.44,0.0691856242,0.03582819057
3.45,0.07220049767,0.0301117091
3.46,0.07474019603,0.02413623378
3.47,0.0767820243,0.01794158339
3.48,0.07830665857,0.01156960114
3.49,0.07929832931,0.005063865772
3.5,0.07974497954,-0.001530614201
3.51,0.07963839636,-0.008167720766
3.52,0.07897431443,-0.01480055893
3.53,0.07775249031,-0.02138179897
3.54,0.0759767467,-0.02786402576
3.55,0.07365498599,-0.03420009261
3.56,0.07079917254,-0.04034347678
3.57,0.06742528359,-0.04624863392
3.58,0.06355322889,-0.05187134861
3.59,0.05920673927,-0.05716907824
3.6,0.05441322481,-0.06210128739
3.61,0.04920360334,-0.06662977005
3.62,0.04361210042,-0.07071895694
3.63,0.03767602207,-0.07433620553
3.64,0.03143550177,-0.07745207008
3.65,0.02493322354,-0.08004054964
3.66,0.01821412299,-0.0820793117
3.67,0.01132506859,-0.08354988963
3.68,0.004314525454,-0.08443785198
3.69,-0.002767795944,-0.08473294234
3.7,-0.009871303287,-0.08442918816
3.71,-0.01694489562,-0.08352497756
3.72,-0.02393734324,-0.08202310329
3.73,-0.03079767147,-0.07993077321
3.74,-0.03747554513,-0.07725958699
3.75,-0.04392165101,-0.07402547887
3.76,-0.05008807498,-0.07024862691
3.77,-0.05592867103,-0.06595332899
3.78,-0.06139941913,-0.06116784637
3.79,-0.06645876913,-0.05592421597
3.8,-0.0710679678,-0.05025803235
3.81,-0.07519136652,-0.04420820129
3.82,-0.07879670696,-0.03781666632
3.83,-0.08185538237,-0.03112811051
3.84,-0.08434267246,-0.02418963553
3.85,-0.08623794972,-0.01705042044
3.86,-0.08752485546,-0.009761362721
3.87,-0.08819144411,-0.002374704306
3.88,-0.0882302944,0.005056354606
3.89,-0.0876385864,0.01247805091
3.9,-0.08641814379,0.01983646019
3.91,-0.0845754406,0.0270779013
3.92,-0.08212157249,0.034149341
3.93,-0.07907219251,0.04099879527
3.94,-0.07544741164,0.04757572426
3.95,-0.07127166485,0.0538314178
3.96,-0.06657354358,0.05971936842
3.97,-0.06138559576,0.06519562879
3.98,-0.05574409478,0.07021915096
3.99,-0.04968877931,0.07475210453
4,-0.04326256561,0.07876017126
4.01,-0.03651123471,0.08221281376
4.02,-0.02948309671,0.08508351607
4.03,-0.0222286348,0.08734999417
4.04,-0.01480013162,0.08899437478
4.05,-0.007251281001,0.09000334078
4.06,0.000363212168,0.09036824232
4.07,0.007988040643,0.09008517242
4.08,0.01556770909,0.08915500655
4.09,0.0230469506,0.0875834057
4.1,0.03037114236,0.08538078299
4.11,0.03748671705,0.08256223385
4.12,0.04434156694,0.07914743036
4.13,0.05088543749,0.07516048046
4.14,0.05707030732,0.07062975315
4.15,0.06285075167,0.06558767088
4.16,0.06818428644,0.06007047079
4.17,0.07303169017,0.05411793658
4.18,0.07735730145,0.04777310314
4.19,0.0811292894,0.04108193603
4.2,0.08431989508,0.0340929885
4.21,0.08690564205,0.02685703856
4.22,0.08886751432,0.0194267089
4.23,0.09019110043,0.01185607269
4.24,0.09086670236,0.004200248216
4.25,0.09088940861,-0.003485014418
4.26,0.09025913083,-0.01114375144
4.27,0.08898060361,-0.01872020506
4.28,0.08706334766,-0.02615924141
4.29,0.08452159649,-0.03340676361
4.3,0.0813741873,-0.04041011663
4.31,0.07764441686,-0.04711848098
4.32,0.07335986366,-0.05348325208
4.33,0.06855217751,-0.05945840241
4.34,0.0632568386,-0.06500082375
4.35,0.05751288746,-0.07007064677
4.36,0.05136262844,-0.07463153559
4.37,0.04485130861,-0.07865095508
4.38,0.0380267749,-0.08210040893
4.39,0.030939112,-0.08495564649
4.4,0.02364026389,-0.0871968372
4.41,0.01618364199,-0.08880871094
4.42,0.00862372293,-0.08978066359
4.43,0.001015639067,-0.09010682692
4.44,-0.006585235027,-0.08978610235
4.45,-0.01412369697,-0.08882215849
4.46,-0.02154512865,-0.08722339247
4.47,-0.0287959028,-0.08500285558
4.48,-0.03582378094,-0.08217814372
4.49,-0.04257829977,-0.07877125383
4.5,-0.0490111428,-0.07480840729
4.51,-0.05507649481,-0.07031984189
4.52,-0.060731376,-0.06533957403
4.53,-0.06593595378,-0.0599051331
4.54,-0.07065382955,-0.05405727017
4.55,-0.0748522985,-0.04783964324
4.56,-0.07850258054,-0.0412984818
4.57,-0.08158002067,-0.03448223299
4.58,-0.08406425738,-0.02744119255
4.59,-0.08593935787,-0.02022712313
4.6,-0.08719391932,-0.01289286313
4.61,-0.08782113544,-0.005491929062
4.62,-0.08781882802,0.001921885493
4.63,-0.08718944341,0.00929491125
4.64,-0.08594001409,0.01657400179
4.65,-0.08408208577,0.02370692634
4.66,-0.08163161084,0.03064275371
4.67,-0.07860880907,0.03733222463
4.68,-0.07503799684,0.04372810949
4.69,-0.07094738637,0.04978554901
4.7,-0.06636885661,0.05546237523
4.71,-0.06133769784,0.06071941051
4.72,-0.05589233186,0.06552074231
4.73,-0.05007401027,0.0698339719
4.74,-0.04392649313,0.07363043515
4.75,-0.03749571066,0.07688539397
4.76,-0.03082941063,0.07957819703
4.77,-0.02397679426,0.08169240878
4.78,-0.0169881434,0.08321590603
4.79,-0.009914442036,0.08414094143
4.8,-0.002806994883,0.08446417375
4.81,0.004282953843,0.08418666485
4.82,0.01130459869,0.08331384359
4.83,0.01820794537,0.08185543729
4.84,0.02494417442,0.07982537137
4.85,0.03146599361,0.07724163826
4.86,0.03772797623,0.07412613674
4.87,0.04368688305,0.07050448326
4.88,0.04930196544,0.06640579671
4.89,0.05453524758,0.06186245872
4.9,0.05935178575,0.05690985131
4.91,0.06371990294,0.05158607417
4.92,0.06761139716,0.04593164389
4.93,0.07100172209,0.03998917749
4.94,0.07387013903,0.03380306292
4.95,0.07619983905,0.027419119
4.96,0.07797803488,0.0208842476
4.97,0.07919602195,0.01424608071
4.98,0.07984920851,0.007552625094
4.99,0.07993711481,0.00085190731
5,0.07946334165,-0.005808378257
5.01,0.07843550889,-0.0123812157
5.02,0.07686516454,-0.01882060568
5.03,0.07476766554,-0.02508189275
5.04,0.07216203136,-0.03112207971
5.05,0.0690707717,-0.03690012648
5.06,0.06551969008,-0.04237723168
5.07,0.0615376648,-0.04751709475
5.08,0.05715640934,-0.05228615689
5.09,0.05241021417,-0.05665381932
5.1,0.04733567201,-0.06059263728
5.11,0.04197138906,-0.06407848873
5.12,0.03635768418,-0.06709071666
5.13,0.03053627875,-0.06961224427
5.14,0.02454997943,-0.07162966241
5.15,0.01844235635,-0.07313328899
5.16,0.0122574193,-0.07411720029
5.17,0.006039294218,-0.07457923402
5.18,-0.0001680974728,-0.07452096481
5.19,-0.006321354347,-0.07394765229
5.2,-0.01237790297,-0.07286816274
5.21,-0.01829629619,-0.07129486505
5.22,-0.02403649957,-0.0692435022
5.23,-0.02956016402,-0.06673303953
5.24,-0.03483088274,-0.06378549108
5.25,-0.0398144307,-0.06042572585
5.26,-0.04447898518,-0.05668125544
5.27,-0.0487953259,-0.05258200505
5.28,-0.05273701358,-0.04816006972
5.29,-0.05628054579,-0.04344945789
5.3,-0.05940548937,-0.03848582424
5.31,-0.06209458864,-0.03330619417
5.32,-0.06433384899,-0.02794868182
5.33,-0.06611259556,-0.02245220406
5.34,-0.06742350698,-0.01685619254
5.35,-0.06826262416,-0.01120030594
5.36,-0.0686293346,-0.005524144615
5.37,-0.06852633255,0.0001330303155
5.38,-0.06795955577,0.005732571348
5.39,-0.06693809972,0.01123671062
5.4,-0.06547411006,0.01660881563
5.41,-0.06358265475,0.02181363299
5.42,-0.0612815769,0.02681751856
5.43,-0.05859132984,0.03158865244
5.44,-0.05553479585,0.03609723761
5.45,-0.05213709022,0.04031568085
5.46,-0.04842535229,0.04421875501
5.47,-0.04442852528,0.04778374174
5.48,-0.0401771266,0.05099055385
5.49,-0.03570301068,0.05382183693
5.5,-0.03103912604,0.05626304969
5.51,-0.02621926851,0.05830252287
5.52,-0.02127783262,0.05993149665
5.53,-0.01624956274,0.06114413671
5.54,-0.01116930613,0.06193752913
5.55,-0.006071769378,0.06231165464
5.56,-0.0009912801549,0.06226934279
5.57,0.00403844422,0.06181620664
5.58,0.008984519751,0.06096055898
5.59,0.01381510886,0.0597133109
5.6,0.01849962223,0.05808785393
5.61,0.02300890816,0.0560999268
5.62,0.0273154283,0.05376746818
5.63,0.03139341879,0.0511104567
5.64,0.03521903587,0.04815073974
5.65,0.03877048533,0.04491185235
5.66,0.04202813512,0.04141882792
5.67,0.04497461071,0.03769800209
5.68,0.04759487285,0.03377681138
5.69,0.04987627758,0.02968358832
5.7,0.05180861845,0.02544735439
5.71,0.05338415104,0.02109761237
5.72,0.05459759994,0.01666413975
5.73,0.05544614867,0.01217678436
5.74,0.05592941289,0.007665263959
5.75,0.05604939749,0.003158970794
5.76,0.05581043835,-0.001313217341
5.77,0.05521912937,-0.005723118528
5.78,0.05428423581,-0.01004341946
5.79,0.05301659482,-0.01424783847
5.8,0.0514290041,-0.01831127803
5.81,0.04953609992,-0.0222099658
5.82,0.04735422553,-0.02592158359
5.83,0.04490129107,-0.02942538369
5.84,0.04219662632,-0.03270229195
5.85,0.03926082744,-0.03573499741
5.86,0.03611559881,-0.03850802806
5.87,0.0327835914,-0.04100781271
5.88,0.02928823872,-0.0432227288
5.89,0.02565359159,-0.04514313634
5.9,0.02190415293,-0.04676139803
5.91,0.01806471366,-0.04807188583
5.92,0.01416019075,-0.04907097439
5.93,0.01021546858,-0.04975702168
5.94,0.006255244465,-0.05013033741
5.95,0.002303879324,-0.0501931397
5.96,-0.001614745707,-0.04994950079
5.97,-0.00547736589,-0.04940528234
5.98,-0.009261462068,-0.04856806121
5.99,-0.01294538178,-0.04744704634
6,-0.01650845179,-0.04605298778
