"Freq [GHz]","re(S(Tx_p1,Tx_p1)) []","im(S(Tx_p1,Tx_p1)) []"
1,0.07254118086,0.05797293567
1.01,0.07699395065,0.05177121457
1.02,0.08091873952,0.04522483985
1.03,0.08428858238,0.03837883367
1.04,0.08708037917,0.03128034665
1.05,0.08927506304,0.02397832298
1.06,0.09085773938,0.01652315236
1.07,0.0918177945,0.008966311316
1.08,0.09214897327,0.001359996597
1.09,0.09184942521,-0.006243246715
1.1,0.09092171856,-0.01379089962
1.11,0.08937282242,-0.02123084337
1.12,0.08721405694,-0.02851173069
1.13,0.08446101217,-0.03558335129
1.14,0.08113343596,-0.04239698904
1.15,0.07725509192,-0.04890576814
1.16,0.07285358842,-0.05506498581
1.17,0.06796017998,-0.06083242911
1.18,0.06260954253,-0.06616867349
1.19,0.05683952407,-0.07103736101
1.2,0.05069087283,-0.07540545622
1.21,0.04420694471,-0.07924347775
1.22,0.03743339232,-0.08252570415
1.23,0.03041783784,-0.08523035232
1.24,0.02320953209,-0.08733972739
1.25,0.01585900242,-0.08884034304
1.26,0.008417691823,-0.08972301127
1.27,0.0009375921504,-0.0899829012
1.28,-0.006529126149,-0.08961956644
1.29,-0.01393048488,-0.08863694089
1.3,-0.02121506692,-0.0870433031
1.31,-0.02833238035,-0.08485120952
1.32,-0.03523321522,-0.08207739708
1.33,-0.04186999041,-0.07874265605
1.34,-0.04819708808,-0.07487167405
1.35,-0.05417117332,-0.07049285239
1.36,-0.05975149668,-0.06563809627
1.37,-0.06490017756,-0.06034258027
1.38,-0.06958246626,-0.05464449099
1.39,-0.07376698299,-0.04858474869
1.4,-0.07742593218,-0.04220671012
1.41,-0.08053529048,-0.03555585459
1.42,-0.08307496732,-0.02867945568
1.43,-0.08502893684,-0.02162624103
1.44,-0.08638534034,-0.01444604261
1.45,-0.08713655865,-0.007189440121
1.46,-0.08727925394,9.25999109E-05
1.47,-0.08681438074,0.007349086788
1.48,-0.08574716628,0.01452936732
1.49,-0.08408706031,0.02158348398
1.5,-0.08184765487,0.02846252698
1.51,-0.0790465747,0.03511897768
1.52,-0.07570533926,0.04150704096
1.53,-0.07184919729,0.04758296417
1.54,-0.06750693534,0.05330534036
1.55,-0.06271066167,0.0586353938
1.56,-0.05749556719,0.06353724556
1.57,-0.05189966526,0.06797815763
1.58,-0.04596351225,0.07192875358
1.59,-0.03972991104,0.07536321449
1.6,-0.03324359951,0.07825944879
1.61,-0.02655092649,0.08059923478
1.62,-0.0196995174,0.08236833503
1.63,-0.01273793215,0.08355658197
1.64,-0.005715317675,0.08415793407
1.65,0.001318942292,0.08417050236
1.66,0.008315577711,0.08359654728
1.67,0.01522578049,0.08244244602
1.68,0.022001548,0.08071863055
1.69,0.02859601938,0.07843949713
1.7,0.03496380231,0.07562328793
1.71,0.04106128791,0.07229194577
1.72,0.04684695154,0.06847094318
1.73,0.05228163749,0.06418908708
1.74,0.05732882548,0.05947830059
1.75,0.0619548773,0.05437338364
1.76,0.06612926173,0.04891175429
1.77,0.0698247564,0.04313317253
1.78,0.07301762516,0.03707944872
1.79,0.07568776984,0.03079413895
1.8,0.07781885543,0.02432222925
1.81,0.07939840796,0.01770981127
1.82,0.08041788446,0.01100375169
1.83,0.08087271463,0.00425135766
1.84,0.08076231417,-0.002499959211
1.85,0.08009006969,-0.009203017905
1.86,0.07886329556,-0.01581119978
1.87,0.0770931631,-0.02227877464
1.88,0.07479460275,-0.02856121893
1.89,0.07198618012,-0.03461552362
1.9,0.0686899469,-0.04040048985
1.91,0.06493126783,-0.04587701019
1.92,0.06073862515,-0.05100833354
1.93,0.0561434019,-0.05576031203
1.94,0.05117964599,-0.06010162811
1.95,0.04588381651,-0.06400400033
1.96,0.04029451449,-0.06744236666
1.97,0.03445219986,-0.07039504387
1.98,0.02839889689,-0.07284386222
1.99,0.02217789019,-0.07477427456
2,0.01583341345,-0.07617543914
2.01,0.009410333271,-0.07704027586
2.02,0.002953830293,-0.07736549555
2.03,-0.003490920087,-0.07715160231
2.04,-0.009879065124,-0.0764028691
2.05,-0.01616638802,-0.07512728681
2.06,-0.02230961493,-0.07333648738
2.07,-0.02826671349,-0.07104564177
2.08,-0.03399718087,-0.06827333344
2.09,-0.03946231931,-0.0650414086
2.1,-0.04462549733,-0.06137480433
2.11,-0.04945239476,-0.05730135594
2.12,-0.05391123006,-0.0528515851
2.13,-0.05797296837,-0.04805847026
2.14,-0.06161150895,-0.04295720131
2.15,-0.06480385086,-0.03758492002
2.16,-0.06753023575,-0.03198044844
2.17,-0.069774267,-0.02618400718
2.18,-0.07152300449,-0.02023692552
2.19,-0.07276703448,-0.01418134562
2.2,-0.07350051424,-0.008059922881
2.21,-0.07372119139,-0.001915524506
2.22,-0.0734303978,0.004209071395
2.23,-0.07263301852,0.01027147423
2.24,-0.07133743584,0.0162299747
2.25,-0.06955544926,0.02204383189
2.26,-0.06730217204,0.02767355173
2.27,-0.0645959051,0.03308115486
2.28,-0.06145798954,0.03823043223
2.29,-0.05791263877,0.04308718652
2.3,-0.05398675159,0.04761945793
2.31,-0.04970970787,0.05179773284
2.32,-0.04511314805,0.05559513392
2.33,-0.04023073848,0.05898759058
2.34,-0.03509792401,0.06195398863
2.35,-0.02975166999,0.06447629832
2.36,-0.02423019525,0.06653967989
2.37,-0.01857269822,0.06813256624
2.38,-0.0128190781,0.06924672211
2.39,-0.007009652971,0.06987727965
2.4,-0.001184877001,0.0700227503
2.41,0.004614941384,0.06968501296
2.42,0.01034991836,0.06886927887
2.43,0.01598086865,0.06758403343
2.44,0.02146957273,0.06584095576
2.45,0.02677903544,0.06365481646
2.46,0.03187373419,0.06104335471
2.47,0.03671985531,0.05802713556
2.48,0.04128551677,0.05462938854
2.49,0.04554097587,0.05087582899
2.5,0.04945882072,0.04679446335
2.51,0.05301414407,0.04241537997
2.52,0.05618469856,0.03777052697
2.53,0.05895103245,0.03289347881
2.54,0.06129660493,0.02781919322
2.55,0.06320788049,0.02258376042
2.56,0.06467440177,0.01722414615
2.57,0.06568884062,0.01177793071
2.58,0.06624702708,0.006283045444
2.59,0.06634795636,0.0007775088862
2.6,0.06599377392,-0.004700835851
2.61,0.06518973882,-0.01011458053
2.62,0.06394416593,-0.0154270063
2.63,0.06226834745,-0.02060233164
2.64,0.06017645444,-0.02560595193
2.65,0.0576854193,-0.03040466918
2.66,0.05481480006,-0.03496691034
2.67,0.05158662761,-0.03926293279
2.68,0.04802523705,-0.04326501577
2.69,0.04415708441,-0.04694763633
2.7,0.04001055027,-0.05028762896
2.71,0.03561573148,-0.05326432783
2.72,0.03100422279,-0.05585969069
2.73,0.02620888973,-0.05805840392
2.74,0.0212636346,-0.05984796803
2.75,0.01620315702,-0.0612187632
2.76,0.01106271086,-0.06216409462
2.77,0.005877859247,-0.06268021739
2.78,0.0006842292868,-0.06276634113
2.79,-0.004482731797,-0.06242461422
2.8,-0.009587997412,-0.06166008813
2.81,-0.01459719764,-0.06048066219
2.82,-0.01947684901,-0.05889700925
2.83,-0.02419457641,-0.05692248303
2.84,-0.02871932583,-0.0545730079
2.85,-0.03302156634,-0.05186695185
2.86,-0.03707348024,-0.04882498398
2.87,-0.04084914005,-0.04546991716
2.88,-0.04432467119,-0.04182653751
2.89,-0.04747839959,-0.03792142163
2.9,-0.05029098302,-0.03378274314
2.91,-0.05274552571,-0.02944006975
2.92,-0.05482767536,-0.02492415257
2.93,-0.05652570218,-0.02026670883
2.94,-0.0578305595,-0.01550019987
2.95,-0.05873592572,-0.01065760573
2.96,-0.05923822746,-0.005772197929
2.97,-0.05933664393,-0.0008773121027
2.98,-0.05903309258,0.003993878106
2.99,-0.05833219636,0.008808584278
3,-0.05724123297,0.01353462214
3.01,-0.05577006644,0.01814062468
3.02,-0.05393106192,0.02259624816
3.03,-0.0517389841,0.02687236956
3.04,-0.0492108803,0.03094127429
3.05,-0.04636594906,0.03477683297
3.06,-0.04322539519,0.03835466614
3.07,-0.0398122725,0.04165229591
3.08,-0.0361513152,0.04464928367
3.09,-0.0322687594,0.047327353
3.1,-0.02819215578,0.04967049706
3.11,-0.02395017492,0.05166506994
3.12,-0.01957240657,0.05329986149
3.13,-0.01508915436,0.05456615511
3.14,-0.01053122716,0.05545776847
3.15,-0.005929728791,0.05597107688
3.16,-0.001315847284,0.05610501935
3.17,0.003279354805,0.05586108741
3.18,0.007825147627,0.05524329701
3.19,0.01229133748,0.05425814361
3.2,0.01664846509,0.05291454114
3.21,0.02086799755,0.05122374525
3.22,0.02492251254,0.04919926145
3.23,0.02878587376,0.04685673898
3.24,0.0324333965,0.04421385114
3.25,0.03584200226,0.04129016305
3.26,0.03899036148,0.03810698783
3.27,0.04185902359,0.03468723213
3.28,0.04443053357,0.03105523227
3.29,0.04668953434,0.02723658214
3.3,0.04862285448,0.02325795389
3.31,0.05021958076,0.01914691291
3.32,0.05147111511,0.0149317282
3.33,0.05237121583,0.01064117945
3.34,0.05291602288,0.006304362223
3.35,0.05310406714,0.001950492381
3.36,0.05293626381,-0.002391288763
3.37,0.05241589005,-0.006692107429
3.38,0.05154854715,-0.01092354716
3.39,0.05034210758,-0.01505783422
3.4,0.04880664744,-0.01906801736
3.41,0.04695436479,-0.02292814093
3.42,0.04479948462,-0.0266134101
3.43,0.04235815104,-0.03010034723
3.44,0.03964830761,-0.03336693853
3.45,0.03668956668,-0.03639276986
3.46,0.03350306863,-0.03915915123
3.47,0.030111332,-0.04164922884
3.48,0.02653809568,-0.04384808445
3.49,0.02280815408,-0.04574282113
3.5,0.01894718658,-0.04732263528
3.51,0.0149815823,-0.04857887426
3.52,0.01093826145,-0.04950507953
3.53,0.006844494326,-0.05009701513
3.54,0.002727719412,-0.05035268129
3.55,-0.001384638552,-0.0502723133
3.56,-0.005465349081,-0.04985836575
3.57,-0.009487553994,-0.0491154823
3.58,-0.01342494183,-0.0480504513
3.59,-0.01725191752,-0.04667214767
3.6,-0.02094376622,-0.0449914615
3.61,-0.02447681033,-0.04302121392
3.62,-0.02782855871,-0.04077606089
3.63,-0.03097784706,-0.03827238561
3.64,-0.03390496888,-0.03552818038
3.65,-0.03659179589,-0.03256291863
3.66,-0.03902188747,-0.02939741815
3.67,-0.0411805884,-0.02605369641
3.68,-0.04305511418,-0.02255481895
3.69,-0.0446346238,-0.01892474188
3.7,-0.04591027922,-0.01518814957
3.71,-0.04687529152,-0.01137028861
3.72,-0.04752495331,-0.007496799091
3.73,-0.0478566575,-0.003593544414
3.74,-0.04786990217,0.0003135593644
3.75,-0.04756628172,0.004198713477
3.76,-0.04694946448,0.008036404608
3.77,-0.04602515687,0.01180157019
3.78,-0.04480105462,0.01546975979
3.79,-0.0432867812,0.01901729158
3.8,-0.0414938142,0.02242140286
3.81,-0.03943540003,0.02566039374
3.82,-0.03712645758,0.02871376315
3.83,-0.03458347162,0.03156233617
3.84,-0.03182437661,0.03418838213
3.85,-0.02886843173,0.0365757226
3.86,-0.02573608805,0.03870982872
3.87,-0.02244884863,0.04057790727
3.88,-0.01902912261,0.04216897504
3.89,-0.0155000742,0.04347392098
3.9,-0.01188546762,0.04448555593
3.91,-0.008209508882,0.04519864957
3.92,-0.004496685647,0.04560995452
3.93,-0.0007716060534,0.04571821739
3.94,0.002941162391,0.04552417688
3.95,0.006617252821,0.04503054898
3.96,0.0102326569,0.04424199939
3.97,0.0137638796,0.04316510347
3.98,0.01718808981,0.04180829403
3.99,0.020483266,0.04018179729
4,0.02362833583,0.03829755757
4.01,0.02660330894,0.03616915123
4.02,0.02938940211,0.0338116904
4.03,0.03196915598,0.03124171728
4.04,0.03432654266,0.02847708963
4.05,0.03644706352,0.02553685831
4.06,0.03831783663,0.02244113763
4.07,0.03992767336,0.01921096946
4.08,0.0412671436,0.0158681819
4.09,0.04232862932,0.01243524348
4.1,0.04310636618,0.008935113993
4.11,0.04359647288,0.005391092616
4.12,0.04379696822,0.001826664666
4.13,0.04370777581,-0.001734652281
4.14,0.04333071632,-0.005269461777
4.15,0.04266948758,-0.008754640463
4.16,0.0417296325,-0.01216748762
4.17,0.04051849526,-0.01548587134
4.18,0.0390451659,-0.01868837044
4.19,0.03732041394,-0.02175441116
4.2,0.03535661128,-0.02466439782
4.21,0.03316764507,-0.02739983663
4.22,0.03076882108,-0.02994345184
4.23,0.02817675825,-0.03227929354
4.24,0.02540927515,-0.03439283648
4.25,0.02248526907,-0.03627106922
4.26,0.0194245886,-0.03790257312
4.27,0.01624790043,-0.03927759078
4.28,0.01297655149,-0.0403880833
4.29,0.009632426989,-0.04122777634
4.3,0.006237805651,-0.0417921944
4.31,0.002815212791,-0.04207868342
4.32,-0.0006127276257,-0.04208642139
4.33,-0.00402344107,-0.04181641704
4.34,-0.007394549687,-0.04127149668
4.35,-0.01070401776,-0.0404562792
4.36,-0.01393029446,-0.03937713956
4.37,-0.01705245292,-0.03804216095
4.38,-0.02005032486,-0.03646107601
4.39,-0.02290462979,-0.03464519755
4.4,-0.02559709799,-0.0326073391
4.41,-0.02811058657,-0.03036172609
4.42,-0.0304291878,-0.02792389802
4.43,-0.03253832903,-0.02531060243
4.44,-0.03442486364,-0.02253968131
4.45,-0.03607715241,-0.0196299507
4.46,-0.03748513476,-0.0166010744
4.47,-0.03864038958,-0.01347343242
4.48,-0.03953618508,-0.01026798524
4.49,-0.04016751756,-0.007006134652
4.5,-0.04053113874,-0.003709582102
4.51,-0.04062557152,-0.0004001855436
4.52,-0.04045111422,0.002900184362
4.53,-0.04000983313,0.006169787703
4.54,-0.03930554355,0.009387157518
4.55,-0.03834377947,0.01253123982
4.56,-0.03713175203,0.01558153052
4.57,-0.03567829725,0.0185182084
4.58,-0.03399381311,0.02132226324
4.59,-0.03209018668,0.02397561829
4.6,-0.02998071169,0.02646124631
4.61,-0.02767999701,0.02876327844
4.62,-0.02520386691,0.03086710516
4.63,-0.02256925342,0.03275946879
4.64,-0.01979408188,0.0344285468
4.65,-0.01689715013,0.03586402558
4.66,-0.01389800237,0.03705716408
4.67,-0.01081679837,0.03800084694
4.68,-0.007674179012,0.03868962687
4.69,-0.004491128993,0.03911975592
4.7,-0.001288837569,0.03928920552
4.71,0.001911441664,0.03919767515
4.72,0.005088531093,0.03884658967
4.73,0.008221468574,0.0382390852
4.74,0.01128964516,0.03737998392
4.75,0.01427294019,0.03627575767
4.76,0.01715185281,0.03493448086
4.77,0.01990762916,0.03336577292
4.78,0.02252238428,0.03158073065
4.79,0.02497921804,0.02959185106
4.8,0.02726232428,0.02741294505
4.81,0.02935709249,0.02505904269
4.82,0.03125020139,0.02254629063
4.83,0.03292970373,0.0198918424
4.84,0.03438510182,0.01711374222
4.85,0.03560741339,0.01423080332
4.86,0.03658922715,0.01126248129
4.87,0.03732474793,0.008228743566
4.88,0.03780983099,0.005149935804
4.89,0.03804200529,0.002046646004
4.9,0.03802048571,-0.001060432637
4.91,0.03774617395,-0.004150639277
4.92,0.03722164834,-0.007203482467
4.93,0.03645114251,-0.01019877576
4.94,0.03544051313,-0.01311677101
4.95,0.03419719694,-0.01593828846
4.96,0.0327301574,-0.01864484276
4.97,0.03104982129,-0.02121876415
4.98,0.02916800573,-0.0236433139
4.99,0.02709783613,-0.02590279332
5,0.02485365558,-0.02798264565
5.01,0.0224509264,-0.02986955013
5.02,0.01990612436,-0.03155150756
5.03,0.01723662647,-0.03301791701
5.04,0.01446059297,-0.03425964288
5.05,0.01159684433,-0.03526907226
5.06,0.008664734175,-0.03604016178
5.07,0.005684018891,-0.03656847411
5.08,0.002674724828,-0.03685120349
5.09,-0.0003429859957,-0.03688719044
5.1,-0.003348950805,-0.03667692537
5.11,-0.006323140697,-0.03622254123
5.12,-0.009245794075,-0.0355277951
5.13,-0.01209754801,-0.0345980391
5.14,-0.01485956662,-0.03344018057
5.15,-0.01751366571,-0.03206263202
5.16,-0.02004243268,-0.0304752511
5.17,-0.02242934109,-0.02868927102
5.18,-0.02465885898,-0.0267172219
5.19,-0.02671655031,-0.02457284366
5.2,-0.02858916885,-0.02227099093
5.21,-0.03026474382,-0.01982753079
5.22,-0.03173265687,-0.01725923383
5.23,-0.03298370974,-0.01458365954
5.24,-0.03401018232,-0.01181903656
5.25,-0.03480588052,-0.008984138741
5.26,-0.03536617398,-0.006098157869
5.27,-0.035688023,-0.00318057381
5.28,-0.03576999485,-0.0002510230745
5.29,-0.03561226919,0.002670833395
5.3,-0.03521663262,0.005565442277
5.31,-0.03458646251,0.008413488901
5.32,-0.03372670011,0.01119602636
5.33,-0.03264381317,0.01389460181
5.34,-0.03134574847,0.01649137925
5.35,-0.02984187444,0.01896925766
5.36,-0.02814291433,0.02131198414
5.37,-0.0262608705,0.02350426085
5.38,-0.02420894015,0.0255318454
5.39,-0.02200142332,0.02738164381
5.4,-0.01965362362,0.02904179549
5.41,-0.01718174244,0.03050174974
5.42,-0.0146027674,0.03175233318
5.43,-0.01193435572,0.03278580774
5.44,-0.009194713443,0.03359591877
5.45,-0.006402471181,0.03417793309
5.46,-0.003576557364,0.03452866659
5.47,-0.0007360697853,0.03464650135
5.48,0.002099853662,0.03453139209
5.49,0.004912164179,0.03418486199
5.5,0.007682030313,0.03360998794
5.51,0.0103909644,0.0328113753
5.52,0.01302094635,0.03179512235
5.53,0.01555454392,0.03056877484
5.54,0.0179750287,0.02914127075
5.55,0.02026648701,0.02752287588
5.56,0.022413925,0.02572511051
5.57,0.02440336716,0.02376066792
5.58,0.02622194777,0.02164332502
5.59,0.02785799447,0.01938784605
5.6,0.02930110356,0.01700987973
5.61,0.03054220648,0.01452585081
5.62,0.03157362706,0.01195284658
5.63,0.03238912912,0.009308499281
5.64,0.03298395422,0.006610865157
5.65,0.03335484925,0.003878300929
5.66,0.03350008371,0.001129338655
5.67,0.03341945662,-0.001617440261
5.68,0.03311429306,-0.004343531004
5.69,0.0325874303,-0.007030630395
5.7,0.03184319374,-0.009660760183
5.71,0.03088736282,-0.01221638775
5.72,0.02972712717,-0.01468054344
5.73,0.02837103324,-0.01703693366
5.74,0.02682892199,-0.01927004909
5.75,0.0251118579,-0.02136526714
5.76,0.02323204989,-0.02330894817
5.77,0.02120276477,-0.02508852462
5.78,0.01903823373,-0.02669258261
5.79,0.01675355254,-0.02811093542
5.8,0.0143645763,-0.02933468842
5.81,0.01188780926,-0.03035629492
5.82,0.009340290655,-0.03116960274
5.83,0.006739477249,-0.03176989111
5.84,0.004103123453,-0.03215389771
5.85,0.001449159799,-0.03231983566
5.86,-0.001204429357,-0.03226740046
5.87,-0.003839728085,-0.03199776681
5.88,-0.006439010243,-0.0315135753
5.89,-0.008984859128,-0.03081890926
5.9,-0.0114602846,-0.02991926181
5.91,-0.01384883688,-0.02882149344
5.92,-0.0161347163,-0.02753378039
5.93,-0.01830287817,-0.02606555434
5.94,-0.02033913218,-0.02442743366
5.95,-0.02223023562,-0.02263114688
5.96,-0.02396397974,-0.02068944888
5.97,-0.02552926883,-0.01861603034
5.98,-0.02691619137,-0.01642542122
5.99,-0.02811608289,-0.0141328888
6,-0.02912158,-0.01175433116
