"Freq [GHz]","re(S(Tx_p1,Tx_p1)) []","im(S(Tx_p1,Tx_p1)) []"
1,0.07973166562,0.04827538369
1.01,0.08303712221,0.04130008431
1.02,0.0857338573,0.03410660876
1.03,0.08780830549,0.0267482743
1.04,0.08925161085,0.01927913883
1.05,0.0900596532,0.01175358061
1.06,0.09023303656,0.004225879372
1.07,0.08977704022,-0.003250198043
1.08,0.08870153328,-0.0106218039
1.09,0.08702085355,-0.0178374046
1.1,0.08475365237,-0.02484716127
1.11,0.08192270676,-0.03160329309
1.12,0.07855470092,-0.03806042036
1.13,0.07467997915,-0.04417588496
1.14,0.07033227252,-0.04991004566
1.15,0.06554840179,-0.05522654618
1.16,0.06036795933,-0.06009255415
1.17,0.05483297287,-0.06447896935
1.18,0.04898755398,-0.06836059984
1.19,0.04287753447,-0.07171630498
1.2,0.0365500937,-0.07452910455
1.21,0.03005338003,-0.07678625349
1.22,0.02343612962,-0.07847928212
1.23,0.01674728565,-0.07960400194
1.24,0.01003562109,-0.08016047734
1.25,0.003349368227,-0.08015296414
1.26,-0.003264142426,-0.07958981557
1.27,-0.009758830666,-0.07848335726
1.28,-0.01609020012,-0.0768497325
1.29,-0.02221565414,-0.07470871951
1.3,-0.02809479176,-0.07208352267
1.31,-0.03368968157,-0.0690005398
1.32,-0.03896511154,-0.06548910775
1.33,-0.04388881325,-0.06158122877
1.34,-0.04843165891,-0.05731128019
1.35,-0.05256783008,-0.05271571007
1.36,-0.05627495716,-0.04783272158
1.37,-0.05953422891,-0.04270194891
1.38,-0.06233047171,-0.03736412752
1.39,-0.06465219828,-0.03186076153
1.4,-0.06649162615,-0.02623379114
1.41,-0.06784466609,-0.02052526274
1.42,-0.06871088133,-0.0147770045
1.43,-0.06909341825,-0.009030309911
1.44,-0.06899890975,-0.003325631935
1.45,-0.06843735267,0.002297710043
1.46,-0.06742196065,0.007801808172
1.47,-0.06596899426,0.013150427
1.48,-0.06409757018,0.01830924538
1.49,-0.06182945152,0.02324607782
1.5,-0.05918882144,0.02793107379
1.51,-0.05620204217,0.03233689374
1.52,-0.05289740202,0.03643886096
1.53,-0.04930485257,0.04021508837
1.54,-0.04545573851,0.04364657982
1.55,-0.0413825227,0.04671730556
1.56,-0.03711850873,0.04941425185
1.57,-0.03269756352,0.05172744481
1.58,-0.02815384226,0.05364994898
1.59,-0.02352151804,0.05517784125
1.6,-0.01883451822,0.05631016075
1.61,-0.01412626995,0.05704883598
1.62,-0.009429456398,0.05739859024
1.63,-0.004775785878,0.05736682668
1.64,-0.0001957753282,0.05696349461
1.65,0.004281450274,0.05620093859
1.66,0.008628341243,0.05509373218
1.67,0.01281908814,0.0536584981
1.68,0.01682976741,0.05191371686
1.69,0.02063846691,0.04987952575
1.7,0.02422539086,0.04757751032
1.71,0.02757294385,0.04503049033
1.72,0.03066579375,0.04226230234
1.73,0.03349091354,0.03929758083
1.74,0.03603760248,0.03616153997
1.75,0.03829748689,0.03287975796
1.76,0.04026450122,0.02947796575
1.77,0.04193485023,0.02598184196
1.78,0.04330695329,0.02241681566
1.79,0.04438137164,0.0188078786
1.8,0.04516072023,0.01517940819
1.81,0.04564956511,0.01155500265
1.82,0.04585430808,0.007957329336
1.83,0.04578305993,0.004407987235
1.84,0.04544550406,0.0009273844629
1.85,0.04485275195,-0.002465368685
1.86,0.04401719226,-0.005752550631
1.87,0.04295233518,-0.008917903104
1.88,0.04167265382,-0.01194668931
1.89,0.04019342422,-0.01482573577
1.9,0.03853056553,-0.01754345801
1.91,0.03670048221,-0.02008987055
1.92,0.03471990945,-0.02245658168
1.93,0.0326057634,-0.02463677376
1.94,0.03037499751,-0.02662516978
1.95,0.02804446623,-0.02841798718
1.96,0.0256307971,-0.03001287996
1.97,0.02315027227,-0.03140887012
1.98,0.02061872027,-0.03260626978
1.99,0.01805141878,-0.03360659517
2,0.01546300888,-0.03441247381
2.01,0.01286742125,-0.03502754622
2.02,0.01027781456,-0.03545636363
2.03,0.007706526209,-0.03570428296
2.04,0.005165035318,-0.0357773604
2.05,0.002663937834,-0.0356822451
2.06,0.0002129334576,-0.03542607405
2.07,-0.002179176077,-0.03501636948
2.08,-0.004504477924,-0.03446094
2.09,-0.006755928925,-0.03376778637
2.1,-0.008927327069,-0.03294501309
2.11,-0.01101327448,-0.03200074663
2.12,-0.01300913291,-0.03094306091
2.13,-0.01491097272,-0.02977991104
2.14,-0.01671551646,-0.02851907541
2.15,-0.01842007813,-0.02716810694
2.16,-0.02002249933,-0.0257342935
2.17,-0.02152108338,-0.02422462773
2.18,-0.02291452855,-0.02264578629
2.19,-0.02420186166,-0.02100411843
2.2,-0.02538237298,-0.01930564352
2.21,-0.02645555364,-0.0175560574
2.22,-0.02742103649,-0.01576074678
2.23,-0.0282785413,-0.0139248114
2.24,-0.02902782526,-0.01205309301
2.25,-0.02966863948,-0.01015021061
2.26,-0.03020069215,-0.008220600883
2.27,-0.03062361901,-0.006268563083
2.28,-0.03093696144,-0.004298307306
2.29,-0.03114015267,-0.002314005125
2.3,-0.03123251214,-0.0003198415671
2.31,-0.03121324833,0.001679932648
2.32,-0.03108146973,0.003680949667
2.33,-0.03083620415,0.005678674928
2.34,-0.0304764257,0.00766836047
2.35,-0.03000108938,0.00964500213
2.36,-0.02940917259,0.01160330156
2.37,-0.02869972296,0.01353763396
2.38,-0.02787191181,0.01544202229
2.39,-0.02692509248,0.01731011875
2.4,-0.02585886252,0.01913519411
2.41,-0.02467312888,0.02091013536
2.42,-0.02336817508,0.02262745219
2.43,-0.02194472919,0.02427929259
2.44,-0.02040403171,0.02585746759
2.45,-0.01874790201,0.02735348544
2.46,-0.0169788024,0.02875859486
2.47,-0.01509989853,0.03006383747
2.48,-0.01311511526,0.03126010875
2.49,-0.01102918661,0.03233822733
2.5,-0.008847699117,0.0332890119
2.51,-0.006577127395,0.03410336506
2.52,-0.004224861119,0.03477236334
2.53,-0.001799222631,0.0352873525
2.54,0.0006905255506,0.03564004702
2.55,0.003234183917,0.0358226329
2.56,0.005820630315,0.03582787235
2.57,0.008437845832,0.03564920946
2.58,0.01107295244,0.03528087537
2.59,0.01371226252,0.03471799183
2.6,0.01634134017,0.03395667164
2.61,0.01894507422,0.03299411497
2.62,0.02150776255,0.03182869998
2.63,0.02401320726,0.03046006664
2.64,0.0264448202,0.02888919243
2.65,0.02878573801,0.02711845891
2.66,0.03101894589,0.0251517078
2.67,0.03312740916,0.0229942858
2.68,0.03509421136,0.02065307709
2.69,0.036902698,0.01813652268
2.7,0.03853662439,0.01545462602
2.71,0.03998030635,0.01261894412
2.72,0.04121877233,0.009642563936
2.73,0.0422379155,0.006540063552
2.74,0.04302464423,0.003327458111
2.75,0.04356702942,2.213046689E-05
2.76,0.04385444726,-0.003357253293
2.77,0.04387771562,-0.00679084312
2.78,0.04362922282,-0.0102577186
2.79,0.04310304711,-0.01373601627
2.8,0.04229506549,-0.01720306982
2.81,0.04120305051,-0.0206355623
2.82,0.03982675378,-0.02400968923
2.83,0.03816797498,-0.02730133149
2.84,0.03623061536,-0.03048623647
2.85,0.03402071469,-0.03354020631
2.86,0.03154647098,-0.03643929146
2.87,0.02881824222,-0.03915998808
2.88,0.02584852965,-0.04167943747
2.89,0.02265194229,-0.0439756259
2.9,0.01924514243,-0.04602758293
2.91,0.01564677228,-0.04781557644
2.92,0.01187736167,-0.04932130253
2.93,0.007959217522,-0.05052806852
2.94,0.003916295332,-0.05142096712
2.95,-0.0002259464917,-0.05198704017
2.96,-0.004440708539,-0.05221543017
2.97,-0.008700027551,-0.05209751796
2.98,-0.01297496757,-0.05162704516
2.99,-0.01723582375,-0.05080021979
3,-0.02145233728,-0.04961580389
3.01,-0.02559391983,-0.04807518199
3.02,-0.02962988577,-0.04618240943
3.03,-0.03352969027,-0.0439442396
3.04,-0.03726317137,-0.0413701296
3.05,-0.04080079403,-0.03847222378
3.06,-0.0441138941,-0.03526531477
3.07,-0.04717492007,-0.03176678206
3.08,-0.04995767054,-0.02799650816
3.09,-0.05243752533,-0.0239767726
3.1,-0.05459166802,-0.01973212439
3.11,-0.05639929809,-0.01528923349
3.12,-0.05784183044,-0.01067672233
3.13,-0.0589030806,-0.005924978341
3.14,-0.05956943365,-0.001065948844
3.15,-0.0598299953,0.003867080306
3.16,-0.05967672346,0.008839720715
3.17,-0.05910453896,0.01381673033
3.18,-0.05811141415,0.01876227332
3.19,-0.05669843819,0.02364018897
3.2,-0.05486985839,0.02841426744
3.21,-0.05263309657,0.03304853023
3.22,-0.04999874023,0.03750751306
3.23,-0.04698050804,0.04175654885
3.24,-0.04359518974,0.04576204845
3.25,-0.03986256044,0.04949177676
3.26,-0.03580526981,0.05291512194
3.27,-0.03144870664,0.05600335526
3.28,-0.02682083973,0.05872987949
3.29,-0.02195203587,0.06107046352
3.3,-0.01687485639,0.06300346112
3.31,-0.01162383348,0.0645100119
3.32,-0.006235228033,0.06557422255
3.33,-0.0007467706714,0.06618332665
3.34,0.00480261208,0.06632782149
3.35,0.01037308437,0.06600158058
3.36,0.01592419819,0.06520194052
3.37,0.02141519877,0.06392976136
3.38,0.02680533585,0.0621894597
3.39,0.03205417836,0.05998901381
3.4,0.03712192984,0.05733994059
3.41,0.04196974226,0.05425724426
3.42,0.04656002545,0.05075933681
3.43,0.05085674983,0.04686793073
3.44,0.05482573959,0.04260790452
3.45,0.05843495422,0.03800714188
3.46,0.06165475569,0.03309634556
3.47,0.06445815924,0.02790882735
3.48,0.06682106537,0.0224802754
3.49,0.06872247121,0.01684850084
3.5,0.07014465928,0.01105316545
3.51,0.07107336193,0.005135492366
3.52,0.07149789998,-0.0008620378242
3.53,0.07141129421,-0.006896003404
3.54,0.07081034868,-0.01292236773
3.55,0.06969570481,-0.01889681281
3.56,0.06807186585,-0.02477507758
3.57,0.06594719108,-0.03051329824
3.58,0.06333385973,-0.03606834793
3.59,0.06024780466,-0.04139817297
3.6,0.05670861613,-0.04646212296
3.61,0.05273941625,-0.05122127217
3.62,0.04836670496,-0.05563872934
3.63,0.04362017853,-0.05967993365
3.64,0.03853252199,-0.06331293414
3.65,0.03313917682,-0.06650865046
3.66,0.02747808583,-0.06924111263
3.67,0.02158941702,-0.07148767784
3.68,0.01551526846,-0.07322922242
3.69,0.009299356636,-0.07445030741
3.7,0.002986690472,-0.07513931608
3.71,-0.00337676635,-0.07528856244
3.72,-0.009744442134,-0.07489436953
3.73,-0.01606951029,-0.07395711681
3.74,-0.02230524607,-0.0724812562
3.75,-0.02840538399,-0.0704752964
3.76,-0.03432447329,-0.06795175556
3.77,-0.04001822841,-0.06492708259
3.78,-0.04544387185,-0.06142154751
3.79,-0.0505604665,-0.0574591017
3.8,-0.05532923493,-0.05306720899
3.81,-0.05971386303,-0.04827664893
3.82,-0.0636807854,-0.04312129353
3.83,-0.06719945047,-0.03763785943
3.84,-0.07024256288,-0.03186563705
3.85,-0.07278630137,-0.02584619917
3.86,-0.07481051033,-0.01962309087
3.87,-0.07629886339,-0.01324150341
3.88,-0.07723899776,-0.006747934592
3.89,-0.07762261817,-0.0001898381524
3.9,-0.07744556952,0.006384735007
3.91,-0.07670787769,0.01292750092
3.92,-0.07541375799,0.01939030918
3.93,-0.07357159128,0.02572550917
3.94,-0.07119386785,0.03188631302
3.95,-0.06829709937,0.03782715248
3.96,-0.06490169977,0.0435040268
3.97,-0.06103183574,0.04887483898
3.98,-0.05671524817,0.05389971767
3.99,-0.05198304574,0.0585413222
4,-0.04686947247,0.06276512839
4.01,-0.04141165086,0.06653969273
4.02,-0.0356493027,0.06983689314
4.03,-0.02962444977,0.07263214405
4.04,-0.02338109669,0.07490458446
4.05,-0.01696489846,0.07663723726
4.06,-0.01042281533,0.07781713875
4.07,-0.003802757559,0.07843543715
4.08,0.002846776954,0.07848745965
4.09,0.009477069505,0.07797274713
4.1,0.01603954891,0.07689505659
4.11,0.02248615851,0.07526233117
4.12,0.02876971888,0.07308663806
4.13,0.03484428366,0.07038407476
4.14,0.04066548536,0.06717464459
4.15,0.0461908689,0.06348210233
4.16,0.05138020991,0.05933377126
4.17,0.05619581558,0.0547603332
4.18,0.06060280569,0.04979559302
4.19,0.06456937162,0.04447621969
4.2,0.0680670114,0.03884146584
4.21,0.07107073906,0.03293286803
4.22,0.07355926665,0.02679393018
4.23,0.07551515762,0.02046979262
4.24,0.07692495042,0.01400688937
4.25,0.07777925144,0.007452596297
4.26,0.07807279669,0.0008548730223
4.27,0.07780448178,-0.005738098771
4.28,0.07697736008,-0.01227827771
4.29,0.07559860915,-0.01871812301
4.3,0.07367946594,-0.02501094988
4.31,0.07123513108,-0.03111127735
4.32,0.06828464347,-0.03697516571
4.33,0.0648507259,-0.04256054121
4.34,0.06095960329,-0.04782750543
4.35,0.0566407949,-0.05273862688
4.36,0.05192688216,-0.05725921295
4.37,0.04685325429,-0.06135755985
4.38,0.0414578334,-0.06500517897
4.39,0.03578078161,-0.06817699785
4.4,0.0298641923,-0.07085153439
4.41,0.02375176808,-0.07301104309
4.42,0.01748848791,-0.07464163229
4.43,0.01112026615,-0.07573335167
4.44,0.004693606052,-0.07628024949
4.45,-0.001744749608,-0.07628039926
4.46,-0.008148167885,-0.07573589579
4.47,-0.01447047252,-0.07465282085
4.48,-0.02066628555,-0.07304117888
4.49,-0.02669136104,-0.07091480334
4.5,-0.03250290853,-0.06829123463
4.51,-0.03805990368,-0.06519157073
4.52,-0.0433233838,-0.06164029175
4.53,-0.0482567262,-0.05766506007
4.54,-0.05282590721,-0.05329649756
4.55,-0.05699974007,-0.04856794185
4.56,-0.06075008999,-0.04351518369
4.57,-0.06405206488,-0.03817618736
4.58,-0.06688418049,-0.03259079663
4.59,-0.06922849882,-0.02680042835
4.6,-0.07107073895,-0.02084775637
4.61,-0.07240035966,-0.01477638803
4.62,-0.07321061336,-0.008630535915
4.63,-0.07349857124,-0.002454687328
4.64,-0.07326511949,0.003706725927
4.65,-0.07251492705,0.009809654987
4.66,-0.07125638512,0.01581075608
4.67,-0.06950151937,0.02166770501
4.68,-0.06726587552,0.02733950158
4.69,-0.06456837949,0.0327867618
4.7,-0.0614311734,0.03797199569
4.71,-0.05787942879,0.04285986876
4.72,-0.0539411388,0.04741744516
4.73,-0.04964689089,0.05161441111
4.74,-0.04502962224,0.05542327669
4.75,-0.04012435959,0.05881955506
4.76,-0.0349679458,0.06178191763
4.77,-0.02959875528,0.06429232442
4.78,-0.02405640057,0.06633612879
4.79,-0.01838143225,0.06790215595
4.8,-0.01261503476,0.06898275504
4.81,-0.006798720223,0.06957382442
4.82,-0.000974022723,0.06967481057
4.83,0.004817804616,0.0692886805
4.84,0.01053608761,0.06842186844
4.85,0.01614102174,0.06708419737
4.86,0.02159395364,0.06528877617
4.87,0.02685765111,0.06305187362
4.88,0.03189656005,0.06039277024
4.89,0.03667704618,0.05733358941
4.9,0.0411676202,0.05389910937
4.91,0.04533914469,0.05011655754
4.92,0.04916502146,0.04601538901
4.93,0.05262135821,0.0416270511
4.94,0.05568711342,0.03698473579
4.95,0.05834421868,0.03212312208
4.96,0.06057767783,0.02707811037
4.97,0.06237564236,0.02188655089
4.98,0.06372946298,0.0165859683
4.99,0.06463371702,0.01121428455
5,0.06508621198,0.005809542135
5.01,0.06508796538,0.0004096297793
5.02,0.06464316139,-0.004947987446
5.03,0.06375908494,-0.0102265316
5.04,0.06244603395,-0.01539016708
5.05,0.06071721078,-0.02040424572
5.06,0.05858859389,-0.02523554025
5.07,0.05607879095,-0.02985246426
5.08,0.05320887479,-0.03422527754
5.09,0.05000220358,-0.03832627525
5.1,0.04648422688,-0.04212995983
5.11,0.04268227912,-0.04561319468
5.12,0.03862536223,-0.04875533856
5.13,0.03434391926,-0.05153836025
5.14,0.02986960069,-0.05394693267
5.15,0.02523502539,-0.05596850628
5.16,0.02047353788,-0.05759336135
5.17,0.01561896398,-0.05881463922
5.18,0.01070536646,-0.05962835247
5.19,0.005766802621,-0.06003337444
5.2,0.0008370854561,-0.06003140829
5.21,-0.004050449805,-0.05962693641
5.22,-0.008863172253,-0.05882715061
5.23,-0.01356937334,-0.05764186415
5.24,-0.01813847501,-0.05608340637
5.25,-0.02254122646,-0.0541665011
5.26,-0.02674988848,-0.05190812997
5.27,-0.03073840404,-0.04932738183
5.28,-0.03448255421,-0.04644528979
5.29,-0.03796009864,-0.04328465701
5.3,-0.04115089959,-0.03986987294
5.31,-0.04403702928,-0.03622672142
5.32,-0.04660285969,-0.03238218215
5.33,-0.04883513477,-0.02836422714
5.34,-0.05072302482,-0.02420161371
5.35,-0.05225816281,-0.0199236755
5.36,-0.05343466294,-0.01556011318
5.37,-0.05424912157,-0.01114078619
5.38,-0.05470060079,-0.006695507238
5.39,-0.05479059517,-0.002253840618
5.4,-0.05452298226,0.002155093912
5.41,-0.05390395745,0.006502810676
5.42,-0.0529419541,0.0107616397
5.43,-0.05164754967,0.01490489935
5.44,-0.05003335888,0.01890705883
5.45,-0.04811391497,0.02274388982
5.46,-0.04590554005,0.02639260615
5.47,-0.04342620579,0.029831991
5.48,-0.04069538556,0.03304251084
5.49,-0.03773389936,0.03600641577
5.5,-0.03456375258,0.0387078257
5.51,-0.03120797017,0.04113280213
5.52,-0.02769042712,0.04326940547
5.53,-0.02403567688,0.04510773765
5.54,-0.02026877862,0.04663997021
5.55,-0.01641512482,0.04786035797
5.56,-0.01250027021,0.04876523852
5.57,-0.008549763302,0.04935301784
5.58,-0.004588981564,0.04962414262
5.59,-0.0006429712495,0.04958105962
5.6,0.003263707071,0.04922816283
5.61,0.007107126415,0.04857172894
5.62,0.01086413388,0.04761984205
5.63,0.01451248297,0.04638230821
5.64,0.01803095706,0.04487056075
5.65,0.02139948342,0.04309755727
5.66,0.02459923728,0.04107766913
5.67,0.02761273552,0.03882656449
5.68,0.0304239196,0.03636108575
5.69,0.03301822756,0.0336991224
5.7,0.03538265482,0.03085948026
5.71,0.03750580384,0.02786174803
5.72,0.03937792239,0.02472616215
5.73,0.04099093082,0.02147347081
5.74,0.04233843821,0.01812479815
5.75,0.04341574778,0.01470150933
5.76,0.04421985173,0.01122507751
5.77,0.04474941599,0.007716953374
5.78,0.04500475517,0.004198438035
5.79,0.04498779817,0.0006905599488
5.8,0.0447020451,-0.002786043448
5.81,0.0441525158,-0.006211238847
5.82,0.04334569079,-0.009565504361
5.83,0.04228944506,-0.01283003054
5.84,0.04099297548,-0.0159868147
5.85,0.03946672233,-0.01901874822
5.86,0.03772228575,-0.02190969648
5.87,0.03577233764,-0.02464457125
5.88,0.03363052981,-0.02720939537
5.89,0.03131139887,-0.0295913595
5.9,0.02883026874,-0.03177887105
5.91,0.02620315117,-0.03376159508
5.92,0.0234466451,-0.03553048738
5.93,0.02057783529,-0.03707781971
5.94,0.01761419101,-0.03839719741
5.95,0.01457346508,-0.03948356944
5.96,0.01147359401,-0.04033323114
5.97,0.008332599586,-0.04094382
5.98,0.005168492474,-0.04131430451
5.99,0.001999178157,-0.0414449666
6,-0.001157634327,-0.04133737788
