"Freq [GHz]","re(S(Tx_p1,Tx_p1)) []","im(S(Tx_p1,Tx_p1)) []"
1,0.0489716382,0.02918726184
1.01,0.05107252022,0.02492363404
1.02,0.05280314471,0.02051039329
1.03,0.05415300027,0.01597979074
1.04,0.05511440576,0.01136479547
1.05,0.05568255609,0.006698843845
1.06,0.05585554568,0.002015586356
1.07,0.05563436943,-0.002651365912
1.08,0.05502290138,-0.007268693322
1.09,0.05402785137,-0.01180361618
1.1,0.0526587001,-0.0162241378
1.11,0.05092761324,-0.02049928022
1.12,0.04884933545,-0.02459931078
1.13,0.04644106518,-0.02849595791
1.14,0.0437223114,-0.03216261434
1.15,0.04071473348,-0.03557452641
1.16,0.03744196559,-0.03870896797
1.17,0.03392942707,-0.04154539761
1.18,0.03020412038,-0.04406559818
1.19,0.02629441828,-0.04625379755
1.2,0.02222984201,-0.04809676986
1.21,0.01804083215,-0.04958391658
1.22,0.0137585142,-0.05070732686
1.23,0.009414460542,-0.05146181691
1.24,0.00504045084,-0.05184494827
1.25,0.0006682326127,-0.05185702494
1.26,-0.003670716033,-0.05150106951
1.27,-0.007945419752,-0.05078277886
1.28,-0.01212563358,-0.04971045964
1.29,-0.01618206311,-0.04829494447
1.3,-0.02008657555,-0.04654948948
1.31,-0.02381240009,-0.04448965429
1.32,-0.02733431622,-0.04213316541
1.33,-0.03062882844,-0.03949976432
1.34,-0.03367432632,-0.03661104156
1.35,-0.03645122865,-0.03349025823
1.36,-0.03894211087,-0.03016215641
1.37,-0.04113181473,-0.02665276005
1.38,-0.0430075397,-0.02298916802
1.39,-0.04455891549,-0.01919934099
1.4,-0.0457780553,-0.01531188386
1.41,-0.04665958968,-0.01135582539
1.42,-0.04720068073,-0.007360396935
1.43,-0.04740101699,-0.0033548119
1.44,-0.04726278906,0.0006319523821
1.45,-0.04679064643,0.004571368621
1.46,-0.04599163602,0.008435567812
1.47,-0.04487512319,0.01219754018
1.48,-0.04345269591,0.01583132736
1.49,-0.04173805308,0.01931220439
1.5,-0.03974687806,0.02261685023
1.51,-0.03749669855,0.02572350567
1.52,-0.03500673409,0.02861211743
1.53,-0.03229773237,0.03126446759
1.54,-0.02939179605,0.03366428751
1.55,-0.02631220119,0.0357973555
1.56,-0.0230832091,0.03765157771
1.57,-0.01972987297,0.03921705181
1.58,-0.01627784097,0.04048611317
1.59,-0.01275315725,0.0414533635
1.6,-0.009182062586,0.0421156817
1.61,-0.005590796061,0.04247221745
1.62,-0.002005399445,0.04252436742
1.63,0.001548474347,0.04227573478
1.64,0.005045747227,0.04173207248
1.65,0.008462094984,0.04090121093
1.66,0.01177411812,0.03979297086
1.67,0.01495950326,0.03841906226
1.68,0.01799717399,0.03679297041
1.69,0.02086743014,0.03492983001
1.7,0.02355207458,0.03284628862
1.71,0.02603452673,0.03056036053
1.72,0.02829992202,0.02809127249
1.73,0.03033519695,0.02545930243
1.74,0.03212915899,0.02268561275
1.75,0.03367254133,0.01979207933
1.76,0.03495804204,0.01680111781
1.77,0.03598034773,0.01373550852
1.78,0.03673614168,0.01061822132
1.79,0.03722409667,0.007472241916
1.8,0.0374448528,0.004320400765
1.81,0.03740098076,0.00118520602
1.82,0.03709693092,-0.001911318334
1.83,0.03653896911,-0.004947787954
1.84,0.03573509961,-0.007903606128
1.85,0.03469497623,-0.01075910325
1.86,0.03342980249,-0.01349566684
1.87,0.03195222158,-0.01609586125
1.88,0.03027619754,-0.01854353637
1.89,0.02841688832,-0.02082392454
1.9,0.02639051221,-0.0229237253
1.91,0.02421420851,-0.02483117739
1.92,0.02190589388,-0.02653611776
1.93,0.01948411539,-0.02803002732
1.94,0.01696790154,-0.0293060634
1.95,0.01437661249,-0.03035907876
1.96,0.01172979058,-0.03118562745
1.97,0.009047012456,-0.03178395757
1.98,0.00634774376,-0.03215399135
1.99,0.003651197556,-0.0322972929
2,0.0009761975316,-0.03221702407
2.01,-0.001658953096,-0.0319178892
2.02,-0.004236596028,-0.03140606919
2.03,-0.006739834871,-0.03068914572
2.04,-0.009152643886,-0.02977601646
2.05,-0.01145996783,-0.02867680208
2.06,-0.01364781232,-0.02740274592
2.07,-0.01570332413,-0.02596610737
2.08,-0.01761486116,-0.02438004974
2.09,-0.0193720516,-0.02265852392
2.1,-0.02096584214,-0.02081614848
2.11,-0.02238853512,-0.01886808756
2.12,-0.02363381453,-0.01682992727
2.13,-0.02469676085,-0.01471755184
2.14,-0.0255738551,-0.01254702034
2.15,-0.02626297201,-0.01033444499
2.16,-0.02676336283,-0.008095872001
2.17,-0.02707562819,-0.005847165752
2.18,-0.02720168121,-0.003603897183
2.19,-0.02714470176,-0.001381237184
2.2,-0.02690908207,0.0008061443283
2.21,-0.02650036461,0.002944172983
2.22,-0.02592517285,0.005019457586
2.23,-0.02519113552,0.007019370306
2.24,-0.02430680529,0.008932118961
2.25,-0.02328157258,0.01074681106
2.26,-0.0221255753,0.01245350929
2.27,-0.02084960539,0.01404327826
2.28,-0.01946501297,0.01550822234
2.29,-0.01798360886,0.01684151456
2.3,-0.01641756645,0.01803741662
2.31,-0.0147793235,0.01909129002
2.32,-0.01308148486,0.01999959851
2.33,-0.01133672672,0.02075990219
2.34,-0.009557703161,0.02137084334
2.35,-0.007756955678,0.02183212456
2.36,-0.005946826323,0.02214447944
2.37,-0.004139375021,0.02230963639
2.38,-0.002346301612,0.02233027598
2.39,-0.0005788731098,0.0222099824
2.4,0.001152143435,0.02195318965
2.41,0.002836542077,0.021565123
2.42,0.004464732837,0.02105173636
2.43,0.006027790052,0.02041964622
2.44,0.007517494025,0.01967606281
2.45,0.008926365876,0.01882871906
2.46,0.01024769554,0.01788579816
2.47,0.0114755629,0.01685586016
2.48,0.01260485221,0.01574776842
2.49,0.01363125977,0.01457061643
2.5,0.01455129521,0.01333365556
2.51,0.0153622765,0.01204622439
2.52,0.01606231898,0.01071768002
2.53,0.01665031874,0.009357332005
2.54,0.01712593076,0.007974379187
2.55,0.017489542,0.006577849968
2.56,0.01774224018,0.005176546328
2.57,0.01788577835,0.003778991905
2.58,0.01792253601,0.002393384412
2.59,0.01785547697,0.001027552615
2.6,0.01768810478,-0.0003110819774
2.61,0.01742441582,-0.001615538571
2.62,0.01706885094,-0.002879305634
2.63,0.01662624583,-0.004096364505
2.64,0.01610178072,-0.005261208087
2.65,0.01550092999,-0.006368854693
2.66,0.01482941184,-0.007414857158
2.67,0.01409313881,-0.008395307355
2.68,0.01329816922,-0.00930683632
2.69,0.01245066014,-0.01014661019
2.7,0.01155682214,-0.01091232219
2.71,0.0106228761,-0.01160218105
2.72,0.009655012446,-0.01221489593
2.73,0.008659352979,-0.01274965847
2.74,0.007641915533,-0.013206122
2.75,0.006608581628,-0.01358437856
2.76,0.005565067235,-0.01388493374
2.77,0.004516896759,-0.01410868006
2.78,0.003469380276,-0.01425686898
2.79,0.002427594048,-0.01433108196
2.8,0.001396364297,-0.01433320104
2.81,0.0003802541754,-0.01426537908
2.82,-0.0006164461366,-0.01413001009
2.83,-0.001589726347,-0.01392970003
2.84,-0.002535860104,-0.0136672381
2.85,-0.003451406366,-0.01334556913
2.86,-0.004333208274,-0.01296776696
2.87,-0.005178389742,-0.01253700934
2.88,-0.005984349992,-0.01205655421
2.89,-0.006748756263,-0.01152971783
2.9,-0.007469534961,-0.01095985462
2.91,-0.008144861487,-0.01035033894
2.92,-0.008773149018,-0.009704548903
2.93,-0.009353036483,-0.009025852087
2.94,-0.009883375999,-0.008317593351
2.95,-0.01036322002,-0.007583084591
2.96,-0.01079180841,-0.006825596437
2.97,-0.01116855574,-0.006048351817
2.98,-0.01149303888,-0.005254521264
2.99,-0.01176498526,-0.004447219868
3,-0.01198426185,-0.003629505717
3.01,-0.01215086503,-0.002804379667
3.02,-0.01226491157,-0.001974786278
3.03,-0.01232663068,-0.001143615721
3.04,-0.01233635739,-0.0003137064638
3.05,-0.01229452718,0.0005121514601
3.06,-0.01220167195,0.001331212811
3.07,-0.01205841738,0.002140773329
3.08,-0.01186548157,0.002938165955
3.09,-0.01162367504,0.003720757278
3.1,-0.01133390188,0.004485944403
3.11,-0.01099716215,0.005231152411
3.12,-0.01061455523,0.005953832595
3.13,-0.01018728414,0.006651461599
3.14,-0.009716660618,0.007321541618
3.15,-0.009204110806,0.007961601761
3.16,-0.008651181401,0.008569200679
3.17,-0.008059546044,0.009141930526
3.18,-0.007431011789,0.009677422318
3.19,-0.006767525445,0.0101733527
3.2,-0.006071179589,0.01062745216
3.21,-0.005344218053,0.01103751458
3.22,-0.004589040682,0.01140140823
3.23,-0.00380820718,0.01171708804
3.24,-0.003004439841,0.01198260895
3.25,-0.002180625011,0.01219614055
3.26,-0.001339813095,0.01235598251
3.27,-0.0004852169814,0.01246058088
3.28,0.0003797912678,0.012508545
3.29,0.001251685557,0.01249866488
3.3,0.002126792833,0.01242992876
3.31,0.003001302155,0.01230154075
3.32,0.003871275823,0.01211293827
3.33,0.004732662564,0.01186380902
3.34,0.005581312804,0.01155410731
3.35,0.006412995963,0.0111840695
3.36,0.007223419753,0.0107542283
3.37,0.008008251374,0.01026542571
3.38,0.00876314052,0.009718824317
3.39,0.009483744057,0.009115916869
3.4,0.01016575222,0.008458533766
3.41,0.01080491616,0.007748848375
3.42,0.01139707661,0.006989379959
3.43,0.01193819355,0.00618299408
3.44,0.01242437646,0.005332900323
3.45,0.01285191513,0.004442647247
3.46,0.01321731054,0.003516114466
3.47,0.01351730573,0.002557501801
3.48,0.01374891623,0.001571315468
3.49,0.01390945984,0.0005623512996
3.5,0.01399658545,-0.0004643249869
3.51,0.01400830057,-0.00150340041
3.52,0.01394299735,-0.002549340165
3.53,0.01379947671,-0.003596415768
3.54,0.01357697042,-0.004638735765
3.55,0.01327516072,-0.005670278844
3.56,0.01289419741,-0.006684929152
3.57,0.01243471196,-0.007676513601
3.58,0.0118978286,-0.008638840912
3.59,0.01128517215,-0.009565742151
3.6,0.01059887233,-0.01045111244
3.61,0.009841564546,-0.01128895357
3.62,0.009016386908,-0.01207341717
3.63,0.008126973498,-0.01279884813
3.64,0.007177443745,-0.01345982792
3.65,0.006172387933,-0.01405121737
3.66,0.005116848836,-0.01456819877
3.67,0.004016299512,-0.0150063167
3.68,0.002876617341,-0.01536151736
3.69,0.001704054406,-0.01563018601
3.7,0.0005052043606,-0.01580918223
3.71,-0.0007130340445,-0.01589587258
3.72,-0.001943496576,-0.01588816039
3.73,-0.003178796037,-0.01578451246
3.74,-0.004411367429,-0.01558398218
3.75,-0.00563351547,-0.01528622902
3.76,-0.006837464151,-0.0148915341
3.77,-0.008015407998,-0.01440081151
3.78,-0.009159564678,-0.01381561543
3.79,-0.01026222858,-0.01313814265
3.8,-0.011315825,-0.01237123059
3.81,-0.01231296444,-0.01151835065
3.82,-0.01324649681,-0.01058359684
3.83,-0.01410956483,-0.009571669665
3.84,-0.01489565651,-0.008487855431
3.85,-0.0155986561,-0.007338000839
3.86,-0.01621289315,-0.006128483142
3.87,-0.0167331893,-0.00486617592
3.88,-0.01715490241,-0.003558410682
3.89,-0.01747396762,-0.002212934501
3.9,-0.01768693499,-0.0008378639393
3.91,-0.01779100341,0.0005583644671
3.92,-0.01778405045,0.001967046839
3.93,-0.01766465789,0.003379267368
3.94,-0.01743213253,0.00478595615
3.95,-0.01708652234,0.006177949034
3.96,-0.01662862743,0.007546049091
3.97,-0.01606000596,0.008881089266
3.98,-0.01538297466,0.01017399577
3.99,-0.01460060401,0.01141585174
4,-0.01371670802,0.01259796078
4.01,-0.01273582853,0.01371190977
4.02,-0.01166321419,0.01474963061
4.03,-0.0105047941,0.01570346041
4.04,-0.009267146242,0.01656619957
4.05,-0.007957461002,0.01733116743
4.06,-0.006583499746,0.01799225496
4.07,-0.005153548904,0.01854397412
4.08,-0.003676369726,0.01898150343
4.09,-0.002161144046,0.0193007295
4.1,-0.000617416411,0.01949828401
4.11,0.000944967067,0.0195715759
4.12,0.002515922719,0.01951881854
4.13,0.004085195767,0.01933905148
4.14,0.005642428764,0.0190321567
4.15,0.007177231535,0.01859886913
4.16,0.008679252165,0.01804078121
4.17,0.01013824851,0.01736034161
4.18,0.01154415971,0.01656084783
4.19,0.01288717728,0.0156464328
4.2,0.01415781511,0.01462204545
4.21,0.01534697801,0.01349342543
4.22,0.01644602822,0.01226707191
4.23,0.0174468494,0.01095020683
4.24,0.01834190765,0.009550732701
4.25,0.01912430902,0.008077185209
4.26,0.01978785319,0.006538680903
4.27,0.02032708274,0.004944860356
4.28,0.0207373278,0.003305827085
4.29,0.02101474559,0.001632082666
4.3,0.02115635451,-6.554153657E-05
4.31,0.02116006265,-0.00177595558
4.32,0.02102469028,-0.00348788461
4.33,0.02074998619,-0.005189944478
4.34,0.02033663776,-0.006870718806
4.35,0.01978627454,-0.008518836948
4.36,0.01910146533,-0.01012305233
4.37,0.01828570868,-0.01167232056
4.38,0.01734341687,-0.01315587689
4.39,0.01627989338,-0.01456331227
4.4,0.01510130399,-0.01588464764
4.41,0.01381464166,-0.01711040585
4.42,0.01242768539,-0.01823168064
4.43,0.01094895327,-0.01924020225
4.44,0.009387650015,-0.02012839908
4.45,0.007753609401,-0.0208894551
4.46,0.006057231804,-0.02151736232
4.47,0.004309417384,-0.02200696824
4.48,0.002521495282,-0.02235401755
4.49,0.0007051493158,-0.02255518807
4.5,-0.001127659334,-0.02260812044
4.51,-0.00296477193,-0.02251144136
4.52,-0.004793913925,-0.0222647802
4.53,-0.006602778111,-0.02186877878
4.54,-0.00837910858,-0.02132509419
4.55,-0.01011078493,-0.02063639471
4.56,-0.0117859061,-0.01980634856
4.57,-0.01339287333,-0.01883960579
4.58,-0.01492047154,-0.01774177323
4.59,-0.0163579486,-0.01651938262
4.6,-0.01769509205,-0.01517985216
4.61,-0.01892230245,-0.01373144174
4.62,-0.02003066311,-0.01218320197
4.63,-0.02101200549,-0.01054491749
4.64,-0.0218589699,-0.00882704481
4.65,-0.02256506099,-0.007040645165
4.66,-0.02312469765,-0.005197312698
4.67,-0.0235332569,-0.003309098582
4.68,-0.02378711145,-0.001388431485
4.69,-0.02388366069,0.0005519650505
4.7,-0.02382135467,0.002499157771
4.71,-0.02359971112,0.004440090838
4.72,-0.02321932513,0.006361674321
4.73,-0.02268187149,0.00825087346
4.74,-0.02199009962,0.01009479807
4.75,-0.02114782109,0.0118807915
4.76,-0.02015988963,0.01359651844
4.77,-0.01903217407,0.01523005111
4.78,-0.0177715239,0.01676995308
4.79,-0.01638572805,0.0182053602
4.8,-0.01488346689,0.01952605803
4.81,-0.01327425785,0.02072255526
4.82,-0.01156839499,0.02178615256
4.83,-0.009776882872,0.02270900634
4.84,-0.00791136518,0.02348418696
4.85,-0.005984048572,0.024105731
4.86,-0.004007622236,0.02456868717
4.87,-0.001995173708,0.02486915545
4.88,3.9898507E-05,0.02500431922
4.89,0.002083974905,0.02497247018
4.9,0.004123306947,0.02477302566
4.91,0.006144110382,0.02440653834
4.92,0.008132659299,0.02387469825
4.93,0.01007538025,0.02318032685
4.94,0.01195894582,0.02232736338
4.95,0.01377036693,0.02132084344
4.96,0.01549708333,0.0201668699
4.97,0.01712705154,0.01887257632
4.98,0.0186488297,0.01744608317
4.99,0.02005165868,0.01589644691
5,0.02132553888,0.01423360257
5.01,0.02246130219,0.01246829984
5.02,0.02345067853,0.01061203333
5.03,0.02428635663,0.0086769674
5.04,0.02496203834,0.006675855991
5.05,0.02547248637,0.004621958013
5.06,0.02581356486,0.002528948916
5.07,0.02598227258,0.0004108289494
5.08,0.02597676851,-0.001718171204
5.09,0.02579638949,-0.003843686823
5.1,0.02544165989,-0.005951316885
5.11,0.0249142931,-0.00802672249
5.12,0.02421718492,-0.01005572529
5.13,0.02335439872,-0.01202440526
5.14,0.02233114248,-0.01391919705
5.15,0.02115373793,-0.01572698443
5.16,0.01982958184,-0.0174351919
5.17,0.0183670997,-0.01903187309
5.18,0.01677569223,-0.02050579511
5.19,0.01506567485,-0.02184651839
5.2,0.01324821069,-0.02304447136
5.21,0.01133523735,-0.02409101947
5.22,0.009339388193,-0.024978528
5.23,0.007273908428,-0.02570041831
5.24,0.005152566639,-0.02625121695
5.25,0.002989562402,-0.02662659739
5.26,0.0007994305428,-0.02682341404
5.27,-0.001403057287,-0.02683972817
5.28,-0.003602993037,-0.02667482572
5.29,-0.00578543402,-0.02632922665
5.3,-0.007935505288,-0.02580468586
5.31,-0.01003850193,-0.02510418558
5.32,-0.01207999058,-0.02423191929
5.33,-0.01404590942,-0.02319326717
5.34,-0.01592266599,-0.02199476333
5.35,-0.01769723208,-0.02064405497
5.36,-0.01935723517,-0.01914985362
5.37,-0.02089104551,-0.01752187898
5.38,-0.02228785852,-0.01577079552
5.39,-0.0235377717,-0.01390814239
5.4,-0.02463185563,-0.01194625698
5.41,-0.02556221842,-0.009898192836
5.42,-0.02632206329,-0.007777632177
5.43,-0.02690573873,-0.005598793946
5.44,-0.02730878094,-0.003376337744
5.45,-0.02752794817,-0.001125264451
5.46,-0.02756124676,0.001139185844
5.47,-0.02740794862,0.003401637894
5.48,-0.02706860003,0.005646686598
5.49,-0.02654502166,0.007859002852
5.5,-0.02584029975,0.01002343919
5.51,-0.02495876856,0.01212513449
5.52,-0.02390598408,0.01414961705
5.53,-0.02268868929,0.0160829052
5.54,-0.02131477101,0.0179116049
5.55,-0.01979320881,0.01962300354
5.56,-0.01813401614,0.02120515923
5.57,-0.01634817417,0.02264698511
5.58,-0.01444755875,0.02393832787
5.59,-0.012444861,0.02507004015
5.6,-0.01035350194,0.02603404604
5.61,-0.00818754198,0.02682339944
5.62,-0.005961585651,0.0274323347
5.63,-0.003690682337,0.02785630925
5.64,-0.001390223686,0.02809203782
5.65,0.0009241616193,0.02813751807
5.66,0.00323671499,0.02799204745
5.67,0.005531656229,0.02765623096
5.68,0.007793292229,0.02713198002
5.69,0.01000612534,0.02642250218
5.7,0.01215496063,0.02553228186
5.71,0.01422501126,0.02446705221
5.72,0.01620200136,0.02323375823
5.73,0.01807226549,0.02184051141
5.74,0.01982284411,0.02029653616
5.75,0.02144157444,0.0186121085
5.76,0.02291717586,0.0167984872
5.77,0.02423932948,0.01486783803
5.78,0.02539875111,0.01283315162
5.79,0.0263872573,0.01070815531
5.8,0.02719782374,0.008507219784
5.81,0.02782463588,0.00624526112
5.82,0.0282631311,0.003937638761
5.83,0.02851003242,0.001600050291
5.84,0.02856337321,-0.000751576332
5.85,0.02842251294,-0.003101192346
5.86,0.02808814375,-0.005432738766
5.87,0.0275622877,-0.007730257232
5.88,0.0268482849,-0.00997800033
5.89,0.02595077237,-0.01216054063
5.9,0.02487565393,-0.01426287767
5.91,0.02363006122,-0.01627054213
5.92,0.02222230613,-0.0181696965
5.93,0.02066182501,-0.01994723146
5.94,0.01895911491,-0.02159085736
5.95,0.0171256625,-0.02308919016
5.96,0.01517386588,-0.02443183114
5.97,0.01311695004,-0.02560943988
5.98,0.01096887648,-0.02661380005
5.99,0.008744247601,-0.02743787735
6,0.006458206465,-0.0280758694
