"Freq [GHz]","re(S(Tx_p1,Tx_p1)) []","im(S(Tx_p1,Tx_p1)) []"
1,0.0672004295,0.04389962928
1.01,0.07035986594,0.0380990285
1.02,0.07302022,0.03207441156
1.03,0.07516594033,0.02586882822
1.04,0.0767852159,0.01952636321
1.05,0.07787003842,0.01309180831
1.06,0.07841623572,0.006610331513
1.07,0.07842347624,0.000127145978
1.08,0.07789524474,-0.006312818773
1.09,0.0768387897,-0.01266524089
1.1,0.07526504321,-0.01888672303
1.11,0.07318851403,-0.02493509961
1.12,0.07062715504,-0.03076973232
1.13,0.06760220634,-0.03635179163
1.14,0.06413801536,-0.04164452244
1.15,0.06026183563,-0.04661349185
1.16,0.05600360603,-0.05122681756
1.17,0.05139571227,-0.0554553752
1.18,0.04647273271,-0.05927298336
1.19,0.04127117052,-0.06265656516
1.2,0.03582917444,-0.0655862853
1.21,0.03018625033,-0.06804566204
1.22,0.02438296575,-0.07002165334
1.23,0.01846064998,-0.07150471702
1.24,0.0124610916,-0.07248884462
1.25,0.006426236133,-0.07297156917
1.26,0.0003978858705,-0.07295394705
1.27,-0.005582595896,-0.07244051443
1.28,-0.01147457403,-0.07143921897
1.29,-0.01723842208,-0.06996132749
1.3,-0.02283579219,-0.06802131082
1.31,-0.02822987257,-0.06563670671
1.32,-0.03338563067,-0.06282796239
1.33,-0.03827004066,-0.05961825802
1.34,-0.04285229355,-0.05603331267
1.35,-0.04710398878,-0.05210117454
1.36,-0.05099930604,-0.04785199709
1.37,-0.05451515644,-0.04331780302
1.38,-0.05763131213,-0.03853223796
1.39,-0.06033051383,-0.03353031584
1.4,-0.06259855571,-0.02834815787
1.41,-0.06442434744,-0.02302272722
1.42,-0.06579995322,-0.01759156133
1.43,-0.06672060799,-0.01209250385
1.44,-0.06718471086,-0.006563438149
1.45,-0.06719379638,-0.001042024312
1.46,-0.06675248405,0.00443455854
1.47,-0.06586840693,0.009829862845
1.48,-0.06455211999,0.0151084144
1.49,-0.06281698947,0.02023594381
1.5,-0.06067906411,0.02517960608
1.51,-0.05815692961,0.02990818695
1.52,-0.05527154765,0.03439229481
1.53,-0.05204608076,0.03860453701
1.54,-0.0485057047,0.04251967959
1.55,-0.04467740972,0.0461147896
1.56,-0.04058979246,0.04936935933
1.57,-0.03627283999,0.05226541191
1.58,-0.03175770777,0.05478758778
1.59,-0.02707649306,0.05692321186
1.6,-0.02226200562,0.05866234134
1.61,-0.01734753714,0.05999779397
1.62,-0.01236663123,0.06092515713
1.63,-0.007352855442,0.06144277802
1.64,-0.002339576851,0.06155173522
1.65,0.002640257259,0.06125579235
1.66,0.007554332244,0.06056133438
1.67,0.01237117112,0.05947728748
1.68,0.01706033056,0.05801502309
1.69,0.0215925866,0.0561882474
1.7,0.02594010917,0.05401287711
1.71,0.03007662432,0.05150690262
1.72,0.03397756336,0.04869023991
1.73,0.03762019826,0.04558457225
1.74,0.04098376254,0.04221318297
1.75,0.04404955724,0.03860078074
1.76,0.04680104152,0.03477331848
1.77,0.04922390766,0.03075780742
1.78,0.05130614023,0.02658212747
1.79,0.05303805942,0.02227483534
1.8,0.05441234858,0.01786497166
1.81,0.05542406606,0.01338186837
1.82,0.05607064169,0.008854957673
1.83,0.05635185817,0.004313583642
1.84,0.0562698179,-0.0002131822024
1.85,0.05582889572,-0.004696720412
1.86,0.05503567806,-0.009109037086
1.87,0.05389888947,-0.01342293038
1.88,0.05242930688,-0.01761214913
1.89,0.05063966275,-0.02165154278
1.9,0.04854453768,-0.02551720186
1.91,0.04616024351,-0.02918658836
1.92,0.04350469788,-0.03263865533
1.93,0.04059729102,-0.03585395542
1.94,0.03745874595,-0.03881473763
1.95,0.03411097295,-0.0415050322
1.96,0.03057691933,-0.04391072324
1.97,0.0268804156,-0.04601960901
1.98,0.02304601879,-0.04782144963
1.99,0.01909885425,-0.04930800237
2,0.01506445653,-0.05047304445
2.01,0.01096861058,-0.05131238349
2.02,0.006837194065,-0.05182385593
2.03,0.002696021618,-0.05200731347
2.04,-0.001429307975,-0.05186459804
2.05,-0.005513560946,-0.05139950559
2.06,-0.009532013269,-0.05061773913
2.07,-0.01346059022,-0.04952685152
2.08,-0.01727600008,-0.04813617856
2.09,-0.02095586138,-0.04645676283
2.1,-0.0244788231,-0.04450126901
2.11,-0.02782467724,-0.04228389124
2.12,-0.03097446348,-0.03982025318
2.13,-0.03391056518,-0.03712730138
2.14,-0.03661679677,-0.03422319282
2.15,-0.03907848183,-0.03112717709
2.16,-0.04128252189,-0.02785947417
2.17,-0.04321745556,-0.02444114831
2.18,-0.04487350797,-0.02089397886
2.19,-0.04624263036,-0.01724032876
2.2,-0.04731852967,-0.01350301133
2.21,-0.04809668838,-0.009705156184
2.22,-0.04857437433,-0.005870074805
2.23,-0.04875064089,-0.002021126674
2.24,-0.0486263174,0.00181841357
2.25,-0.04820399017,0.005625487177
2.26,-0.04748797419,0.009377379936
2.27,-0.04648427584,0.01305184782
2.28,-0.04520054688,0.016627239
2.29,-0.04364603,0.02008261177
2.3,-0.04183149632,0.02339784765
2.31,-0.03976917519,0.02655375939
2.32,-0.03747267674,0.02953219317
2.33,-0.0349569076,0.03231612471
2.34,-0.03223798022,0.03488974876
2.35,-0.02933311628,0.03723856163
2.36,-0.02626054478,0.03934943638
2.37,-0.02303939521,0.04121069033
2.38,-0.01968958642,0.04281214465
2.39,-0.01623171174,0.04414517565
2.4,-0.01268692088,0.04520275775
2.41,-0.009076799279,0.04597949771
2.42,-0.005423245418,0.04647166014
2.43,-0.001748346717,0.04667718409
2.44,0.001925745326,0.04659569068
2.45,0.005576940184,0.04622848174
2.46,0.009183332905,0.04557852943
2.47,0.01272332765,0.04465045688
2.48,0.01617575954,0.04345050999
2.49,0.01952001423,0.04198652045
2.5,0.02273614453,0.04026786017
2.51,0.02580498359,0.03830538729
2.52,0.0287082539,0.03611138408
2.53,0.03142867174,0.03369948695
2.54,0.03395004627,0.0310846089
2.55,0.03625737297,0.02828285477
2.56,0.03833692071,0.02531142979
2.57,0.04017631211,0.02218854165
2.58,0.04176459659,0.01893329676
2.59,0.04309231578,0.0155655912
2.6,0.04415156086,0.0121059967
2.61,0.04493602137,0.008575642474
2.62,0.04544102533,0.004996093399
2.63,0.04566357025,0.001389225113
2.64,0.04560234477,-0.002222903195
2.65,0.04525774085,-0.005818177707
2.66,0.04463185627,-0.009374559876
2.67,0.04372848735,-0.01287021661
2.68,0.04255311181,-0.01628365
2.69,0.04111286184,-0.01959382587
2.7,0.0394164874,-0.02278030038
2.71,0.03747430987,-0.02582334401
2.72,0.03529816616,-0.02870406208
2.73,0.03290134359,-0.03140451122
2.74,0.03029850581,-0.03390781088
2.75,0.02750561003,-0.03619824941
2.76,0.02453981599,-0.03826138384
2.77,0.02141938721,-0.04008413274
2.78,0.01816358482,-0.04165486169
2.79,0.01479255471,-0.04296346054
2.8,0.01132720855,-0.04400141205
2.81,0.007789099273,-0.04476185142
2.82,0.004200291753,-0.04523961614
2.83,0.0005832294482,-0.04543128588
2.84,-0.003039402283,-0.04533521197
2.85,-0.006644815356,-0.04495153618
2.86,-0.0102102598,-0.0442821987
2.87,-0.0137131654,-0.04333093497
2.88,-0.01713128335,-0.04210326137
2.89,-0.02044282682,-0.04060644971
2.9,-0.02362660988,-0.03884949058
2.91,-0.02666218354,-0.03684304566
2.92,-0.02952996825,-0.03459938912
2.93,-0.03221138195,-0.03213233849
2.94,-0.03468896265,-0.02945717521
2.95,-0.03694648497,-0.0265905553
2.96,-0.03896906953,-0.02355041067
2.97,-0.04074328471,-0.0203558415
2.98,-0.04225723983,-0.01702700044
2.99,-0.0435006691,-0.01358496914
3,-0.04446500584,-0.01005162792
3.01,-0.04514344619,-0.006449519399
3.02,-0.04553100198,-0.002801706817
3.03,-0.04562454213,0.000868372031
3.04,-0.04542282238,0.004537054305
3.05,-0.04492650289,0.008180604165
3.06,-0.04413815359,0.01177536635
3.07,-0.04306224702,0.01529792032
3.08,-0.04170513876,0.01872523386
3.09,-0.04007503527,0.02203481524
3.1,-0.03818194941,0.02520486285
3.11,-0.03603764371,0.02821441124
3.12,-0.03365556174,0.03104347262
3.13,-0.03105074791,0.03367317285
3.14,-0.02823975611,0.03608588088
3.15,-0.02524054778,0.03826533081
3.16,-0.02207237998,0.04019673557
3.17,-0.01875568404,0.04186689154
3.18,-0.01531193578,0.04326427316
3.19,-0.01176351779,0.04437911698
3.2,-0.008133574933,0.0452034943
3.21,-0.004445863822,0.04573137207
3.22,-0.0007245973343,0.04595866126
3.23,0.003005714849,0.04588325257
3.24,0.006720428604,0.04550503891
3.25,0.01039492953,0.04482592449
3.26,0.01400479782,0.04384982046
3.27,0.01752597271,0.04258262681
3.28,0.02093491535,0.04103220085
3.29,0.02420876903,0.03920831212
3.3,0.0273255155,0.03712258415
3.31,0.03026412652,0.03478842328
3.32,0.03300470927,0.03222093503
3.33,0.03552864483,0.02943682845
3.34,0.03781871863,0.02645430904
3.35,0.03985924179,0.02329296104
3.36,0.04163616277,0.01997361964
3.37,0.04313716817,0.01651823412
3.38,0.04435177213,0.0129497227
3.39,0.04527139356,0.009291820186
3.4,0.04588942063,0.005568919287
3.41,0.04620126195,0.001805906786
3.42,0.04620438414,-0.001972004347
3.43,0.04589833532,-0.005739445768
3.44,0.04528475433,-0.009471066299
3.45,0.04436736562,-0.01314170501
3.46,0.0431519597,-0.01672656362
3.47,0.04164635924,-0.02020137701
3.48,0.039860371,-0.02354258069
3.49,0.0378057239,-0.02672747393
3.5,0.03549599352,-0.02973437751
3.51,0.03294651361,-0.03254278489
3.52,0.0301742751,-0.03513350571
3.53,0.02719781332,-0.03748880063
3.54,0.02403708416,-0.03959250649
3.55,0.02071332995,-0.04143015087
3.56,0.01724893613,-0.04298905523
3.57,0.01366727945,-0.04425842588
3.58,0.009992568992,-0.04522943205
3.59,0.006249680869,-0.04589527045
3.6,0.00246398797,-0.04625121598
3.61,-0.001338814219,-0.04629465795
3.62,-0.005132884434,-0.04602512172
3.63,-0.008892413858,-0.04544427544
3.64,-0.0125918045,-0.04455592189
3.65,-0.01620584647,-0.04336597534
3.66,-0.01970989289,-0.04188242367
3.67,-0.02308003121,-0.04011527585
3.68,-0.02629324965,-0.0380764953
3.69,-0.02932759773,-0.03577991933
3.7,-0.0321623395,-0.03324116544
3.71,-0.0347780986,-0.03047752499
3.72,-0.037156994,-0.02750784491
3.73,-0.03928276541,-0.02435239848
3.74,-0.04114088752,-0.0210327458
3.75,-0.04271867226,-0.01757158521
3.76,-0.04400535818,-0.01399259642
3.77,-0.04499218653,-0.01032027668
3.78,-0.04567246329,-0.006579771008
3.79,-0.04604160678,-0.002796697751
3.8,-0.04609718048,0.00100302938
3.81,-0.04583891081,0.004793381435
3.82,-0.04526868969,0.008548395302
3.83,-0.04439056195,0.01224235442
3.84,-0.04321069755,0.01584996788
3.85,-0.04173734887,0.01934654657
3.86,-0.0399807933,0.0227081752
3.87,-0.03795326161,0.02591187887
3.88,-0.03566885259,0.02893578318
3.89,-0.03314343441,0.03175926644
3.9,-0.03039453368,0.03436310327
3.91,-0.02744121272,0.0367295982
3.92,-0.02430393606,0.03884270859
3.93,-0.02100442711,0.04068815586
3.94,-0.01756551598,0.04225352428
3.95,-0.01401097951,0.04352834659
3.96,-0.01036537477,0.04450417586
3.97,-0.006653867082,0.04517464314
3.98,-0.002902053849,0.04553550032
3.99,0.0008642145403,0.04558464815
4,0.004619015482,0.045322149
4.01,0.008336535297,0.0447502244
4.02,0.01199124946,0.0438732374
4.03,0.01555810064,0.04269765975
4.04,0.01901267325,0.04123202436
4.05,0.02233136332,0.03948686319
4.06,0.02549154246,0.0374746311
4.07,0.02847171472,0.03520961633
4.08,0.03125166534,0.03270783802
4.09,0.03381260013,0.02998693178
4.1,0.03613727484,0.0270660239
4.11,0.0382101132,0.02396559532
4.12,0.04001731318,0.0207073362
4.13,0.04154694043,0.01731399218
4.14,0.04278900853,0.0138092035
4.15,0.04373554522,0.01021733801
4.16,0.04438064439,0.006563319405
4.17,0.04472050337,0.002872451835
4.18,0.04475344528,-0.0008297578388
4.19,0.0444799264,-0.004517778854
4.2,0.04390252842,-0.008166235161
4.21,0.04302593568,-0.01175008257
4.22,0.04185689775,-0.01524478315
4.23,0.04040417739,-0.0186264757
4.24,0.03867848448,-0.02187214099
4.25,0.03669239639,-0.02495976074
4.26,0.03446026535,-0.02786846905
4.27,0.03199811353,-0.03057869544
4.28,0.02932351663,-0.03307229825
4.29,0.02645547679,-0.0353326877
4.3,0.02341428583,-0.03734493766
4.31,0.02022137974,-0.03909588528
4.32,0.01689918553,-0.04057421805
4.33,0.01347096156,-0.04177054742
4.34,0.009960632429,-0.04267746871
4.35,0.006392619756,-0.04328960683
4.36,0.002791669908,-0.04360364752
4.37,-0.0008173199671,-0.04361835405
4.38,-0.004409476413,-0.04333456906
4.39,-0.007960123392,-0.04275520194
4.4,-0.01144495403,-0.04188520152
4.41,-0.01484019917,-0.04073151456
4.42,-0.01812279152,-0.03930303032
4.43,-0.02127052432,-0.03761051161
4.44,-0.02426220331,-0.03566651289
4.45,-0.02707779102,-0.0334852861
4.46,-0.02969854239,-0.03108267486
4.47,-0.03210713073,-0.02847599789
4.48,-0.03428776323,-0.02568392248
4.49,-0.03622628523,-0.02272632897
4.5,-0.03791027246,-0.0196241673
4.51,-0.03932911082,-0.01639930652
4.52,-0.04047406303,-0.01307437861
4.53,-0.04133832184,-0.009672617418
4.54,-0.04191704937,-0.006217694237
4.55,-0.04220740253,-0.002733550895
4.56,-0.0422085442,0.0007557682462
4.57,-0.04192164034,0.004226284275
4.58,-0.041349843,0.007654250484
4.59,-0.04049825948,0.01101631672
4.6,-0.03937390786,0.01428969015
4.61,-0.03798565937,0.01745229142
4.62,-0.03634416804,0.02048290495
4.63,-0.0344617881,0.02336132247
4.64,-0.03235247997,0.02606847884
4.65,-0.03003170537,0.02858657904
4.66,-0.02751631249,0.03089921572
4.67,-0.024824412,0.03299147634
4.68,-0.0219752449,0.03485003931
4.69,-0.01898904309,0.03646325844
4.7,-0.01588688383,0.03782123525
4.71,-0.01269053896,0.03891587861
4.72,-0.009422320207,0.03974095136
4.73,-0.006104921495,0.04029210383
4.74,-0.002761259493,0.04056689379
4.75,0.0005856864841,0.0405647931
4.76,0.003913034092,0.04028718083
4.77,0.007198155963,0.03973732317
4.78,0.01041883501,0.0389203402
4.79,0.0135534159,0.03784315998
4.8,0.01658095178,0.03651446025
4.81,0.01948134504,0.03494459827
4.82,0.02223548138,0.03314552943
4.83,0.02482535617,0.03113071516
4.84,0.02723419225,0.02891502094
4.85,0.02944654842,0.02651460521
4.86,0.031448418,0.02394679994
4.87,0.03322731666,0.02122998383
4.88,0.03477235918,0.01838344907
4.89,0.03607432451,0.0154272626
4.9,0.03712570885,0.01238212292
4.91,0.03792076644,0.009269213515
4.92,0.03845553786,0.006110053837
4.93,0.03872786572,0.002926349067
4.94,0.03873739777,-0.0002601604321
4.95,0.0384855774,-0.003427848817
4.96,0.03797562188,-0.006555352622
4.97,0.03721248831,-0.00962171574
4.98,0.03620282793,-0.01260653053
4.99,0.03495492888,-0.01549007413
5,0.03347864823,-0.01825343896
5.01,0.03178533348,-0.02087865672
5.02,0.02988773453,-0.02334881492
5.03,0.0277999065,-0.02564816519
5.04,0.02553710434,-0.02776222286
5.05,0.02311566998,-0.02967785693
5.06,0.02055291283,-0.0313833701
5.07,0.01786698459,-0.03286856827
5.08,0.01507674918,-0.03412481915
5.09,0.01220164891,-0.03514509965
5.1,0.009261567619,-0.03592403187
5.11,0.00627669198,-0.03645790745
5.12,0.003267371815,-0.0367447003
5.13,0.0002539804279,-0.03678406767
5.14,-0.002743224057,-0.03657733966
5.15,-0.005704235424,-0.03612749739
5.16,-0.00860943322,-0.03543914005
5.17,-0.01143971285,-0.03451844113
5.18,-0.01417661104,-0.03337309429
5.19,-0.01680242583,-0.03201224931
5.2,-0.01930033038,-0.03044643867
5.21,-0.02165447978,-0.02868749529
5.22,-0.02385011027,-0.02674846223
5.23,-0.02587363019,-0.02464349483
5.24,-0.02771270223,-0.02238775623
5.25,-0.02935631633,-0.01999730699
5.26,-0.03079485299,-0.01748898952
5.27,-0.03202013655,-0.01488030834
5.28,-0.03302547822,-0.01218930692
5.29,-0.03380570862,-0.009434441949
5.3,-0.03435719978,-0.006634456048
5.31,-0.0346778765,-0.003808249656
5.32,-0.03476721715,-0.0009747530904
5.33,-0.03462624399,0.001847200422
5.34,-0.03425750312,0.004638999849
5.35,-0.03366503445,0.007382378788
5.36,-0.03285433188,0.01005953441
5.37,-0.03183229409,0.01265324217
5.38,-0.03060716639,0.01514696551
5.39,-0.02918847412,0.0175249599
5.4,-0.02758694813,0.0197723706
5.41,-0.02581444289,0.02187532345
5.42,-0.02388384799,0.02382100831
5.43,-0.02180899352,0.02559775452
5.44,-0.01960455017,0.027195098
5.45,-0.01728592472,0.02860383977
5.46,-0.01486915166,0.02981609532
5.47,-0.0123707818,0.03082533492
5.48,-0.009807768522,0.03162641441
5.49,-0.007197352491,0.03221559659
5.5,-0.004556945728,0.03259056308
5.51,-0.001904015656,0.03275041665
5.52,0.000744030004,0.03269567418
5.53,0.003369956765,0.03242825044
5.54,0.0059568146,0.03195143269
5.55,0.008488046157,0.03126984672
5.56,0.01094759127,0.03038941432
5.57,0.01331998712,0.02931730276
5.58,0.01559046349,0.02806186666
5.59,0.01774503244,0.02663258269
5.6,0.01977057201,0.02503997765
5.61,0.02165490333,0.02329555044
5.62,0.02338686089,0.0214116886
5.63,0.02495635537,0.01940157988
5.64,0.02635442897,0.0172791196
5.65,0.02757330271,0.01505881437
5.66,0.02860641568,0.01275568296
5.67,0.02944845603,0.0103851548
5.68,0.03009538352,0.007962967023
5.69,0.03054444374,0.005505060515
5.7,0.03079417386,0.003027475849
5.71,0.03084440003,0.0005462496306
5.72,0.03069622668,-0.001922688023
5.73,0.03035201758,-0.004363614228
5.74,0.02981536922,-0.006761111692
5.75,0.0290910766,-0.009100164093
5.76,0.02818509167,-0.01136624789
5.77,0.027104475,-0.01354542006
5.78,0.02585734084,-0.01562440117
5.79,0.02445279615,-0.01759065349
5.8,0.02290087398,-0.01943245345
5.81,0.02121246173,-0.02113895839
5.82,0.01939922478,-0.02270026689
5.83,0.01747352605,-0.02410747268
5.84,0.015448342,-0.02535271171
5.85,0.01333717565,-0.02642920223
5.86,0.01115396732,-0.02733127767
5.87,0.008913003397,-0.02805441223
5.88,0.006628824028,-0.02859523917
5.89,0.004316130113,-0.02895156162
5.9,0.00198969026,-0.02912235611
5.91,-0.0003357517319,-0.02910776876
5.92,-0.002645568305,-0.02890910432
5.93,-0.004925337945,-0.0285288081
5.94,-0.007160932822,-0.02797044117
5.95,-0.009338603755,-0.02723864887
5.96,-0.01144506202,-0.02633912302
5.97,-0.01346755757,-0.02527855807
5.98,-0.01539395312,-0.02406460158
5.99,-0.01721279392,-0.02270579933
6,-0.0189133726,-0.02121153551
