"Freq [GHz]","re(S(Tx_p1,Tx_p1)) []","im(S(Tx_p1,Tx_p1)) []"
1,0.05749862093,0.03467774651
1.01,0.05990964572,0.02964419002
1.02,0.0618812106,0.02444734997
1.03,0.06340268454,0.01912572107
1.04,0.0644668354,0.01371843727
1.05,0.06506986106,0.008264968732
1.06,0.06521139333,0.002804818382
1.07,0.06489447474,-0.002622779573
1.08,0.06412550874,-0.007979156668
1.09,0.06291418384,-0.01322650042
1.1,0.06127337257,-0.0183281355
1.11,0.05921900617,-0.02324879358
1.12,0.05676992644,-0.02795486993
1.13,0.05394771588,-0.03241466455
1.14,0.05077650793,-0.0365986063
1.15,0.04728277884,-0.04047945824
1.16,0.04349512317,-0.04403250261
1.17,0.0394440147,-0.04723570439
1.18,0.03516155501,-0.05006985208
1.19,0.03068121178,-0.05251867493
1.2,0.02603754903,-0.05456893588
1.21,0.02126595154,-0.05621049969
1.22,0.01640234583,-0.05743637592
1.23,0.01148291986,-0.05824273687
1.24,0.006543843817,-0.05862891029
1.25,0.001620994215,-0.05859734754
1.26,-0.003250316552,-0.05815356742
1.27,-0.008035603004,-0.05730607664
1.28,-0.01270145973,-0.0560662677
1.29,-0.01721580297,-0.05444829532
1.3,-0.02154809877,-0.05246893265
1.31,-0.02566957607,-0.05014740874
1.32,-0.02955342319,-0.04750522866
1.33,-0.03317496624,-0.04456597819
1.34,-0.03651182842,-0.04135511457
1.35,-0.03954406893,-0.03789974538
1.36,-0.04225430084,-0.03422839754
1.37,-0.04462778714,-0.03037077814
1.38,-0.04665251449,-0.0263575296
1.39,-0.04831924443,-0.02221998076
1.4,-0.04962154184,-0.01798989633
1.41,-0.05055578091,-0.01369922664
1.42,-0.05112112872,-0.009379859592
1.43,-0.05131950698,-0.005063377091
1.44,-0.05115553259,-0.0007808175657
1.45,-0.05063643778,0.003437553355
1.46,-0.04977197074,0.007562462366
1.47,-0.04857427798,0.01156583655
1.48,-0.04705776961,0.01542099843
1.49,-0.0452389688,0.01910284669
1.5,-0.04313634718,0.02258802123
1.51,-0.04077014743,0.02585505148
1.52,-0.03816219503,0.02888448714
1.53,-0.03533570067,0.0316590104
1.54,-0.03231505523,0.03416352913
1.55,-0.02912561914,0.03638525058
1.56,-0.02579350787,0.03831373539
1.57,-0.02234537553,0.03994093167
1.58,-0.01880819823,0.04126118933
1.59,-0.01520905918,0.04227125496
1.6,-0.0115749371,0.04297024748
1.61,-0.007932499785,0.04335961528
1.62,-0.004307904356,0.04344307553
1.63,-0.000726605737,0.04322653646
1.64,0.002786825173,0.04271800359
1.65,0.006208872335,0.04192747108
1.66,0.009517233197,0.04086679938
1.67,0.01269096403,0.03954958039
1.68,0.01571061104,0.03799099166
1.69,0.0185583264,0.03620764103
1.7,0.02121796868,0.03421740311
1.71,0.02367518694,0.03203924939
1.72,0.02591748838,0.02969307332
1.73,0.02793428911,0.02719951207
1.74,0.02971694816,0.02457976654
1.75,0.03125878476,0.02185542119
1.76,0.032555079,0.01904826521
1.77,0.03360305652,0.01618011657
1.78,0.03440185746,0.0132726503
1.79,0.03495249046,0.01034723247
1.8,0.03525777248,0.007424761168
1.81,0.03532225521,0.004525515511
1.82,0.03515213911,0.001669014051
1.83,0.03475517607,-0.001126116653
1.84,0.03414056198,-0.003842262285
1.85,0.03331882016,-0.006462929129
1.86,0.03230167715,-0.00897283988
1.87,0.03110193199,-0.0113580164
1.88,0.02973332037,-0.01360584907
1.89,0.02821037507,-0.01570515238
1.9,0.02654828384,-0.01764620684
1.91,0.02476274627,-0.01942078697
1.92,0.02286983079,-0.02102217573
1.93,0.02088583319,-0.0224451655
1.94,0.01882713784,-0.0236860461
1.95,0.01671008279,-0.02474258019
1.96,0.01455082991,-0.02561396683
1.97,0.01236524101,-0.02630079375
1.98,0.010168761,-0.02680497917
1.99,0.007976308877,-0.02712970399
2,0.005802177368,-0.02727933534
2.01,0.003659941837,-0.02725934242
2.02,0.001562379041,-0.02707620571
2.03,-0.0004786038094,-0.02673732051
2.04,-0.002452029364,-0.02625089614
2.05,-0.004347899591,-0.02562585167
2.06,-0.006157234259,-0.02487170935
2.07,-0.00787209846,-0.02399848706
2.08,-0.009485619265,-0.02301659049
2.09,-0.01099199173,-0.02193670649
2.1,-0.01238647456,-0.02076969837
2.11,-0.01366537589,-0.01952650416
2.12,-0.01482602957,-0.01821803887
2.13,-0.01586676267,-0.01685510145
2.14,-0.01678685476,-0.01544828727
2.15,-0.01758648974,-0.01400790693
2.16,-0.01826670099,-0.01254391182
2.17,-0.01882931066,-0.01106582709
2.18,-0.01927686398,-0.009582692521
2.19,-0.01961255946,-0.008103011377
2.2,-0.01984017594,-0.006634707807
2.21,-0.01996399738,-0.005185092695
2.22,-0.01998873637,-0.003760838118
2.23,-0.01991945714,-0.00236796034
2.24,-0.01976149913,-0.001011811193
2.25,-0.01952040189,0.0003029223704
2.26,-0.01920183213,0.001572210889
2.27,-0.01881151375,0.002792667547
2.28,-0.01835516155,0.003961526353
2.29,-0.01783841923,0.005076613879
2.3,-0.01726680242,0.006136315168
2.31,-0.01664564707,0.007139534443
2.32,-0.01598006386,0.008085651343
2.33,-0.01527489876,0.008974473405
2.34,-0.01453470032,0.009806185556
2.35,-0.01376369353,0.0105812974
2.36,-0.01296576074,0.01130058909
2.37,-0.0121444293,0.0119650566
2.38,-0.01130286621,0.01257585709
2.39,-0.0104438793,0.01313425532
2.4,-0.009569925018,0.0136415716
2.41,-0.008683122285,0.01409913219
2.42,-0.007785272221,0.01450822278
2.43,-0.006877883174,0.01487004549
2.44,-0.005962200614,0.01518568026
2.45,-0.005039241322,0.01545605081
2.46,-0.004109831252,0.01568189585
2.47,-0.003174646436,0.01586374575
2.48,-0.002234256236,0.01600190504
2.49,-0.001289168241,0.01609644088
2.5,-0.0003398740917,0.01614717773
2.51,0.0006131045057,0.01615369814
2.52,0.001569170301,0.01611534973
2.53,0.002527606283,0.01603125822
2.54,0.003487533419,0.01590034633
2.55,0.004447871041,0.01572135818
2.56,0.005407300507,0.01549288905
2.57,0.006364232755,0.01521341991
2.58,0.007316780287,0.01488135633
2.59,0.008262734107,0.01449507125
2.6,0.009199546023,0.01405295095
2.61,0.01012431671,0.01355344371
2.62,0.01103378982,0.01299511036
2.63,0.01192435239,0.01237667611
2.64,0.01279204168,0.01169708296
2.65,0.01363255849,0.0109555418
2.66,0.01444128703,0.01015158366
2.67,0.01521332119,0.009285109225
2.68,0.01594349699,0.008356435939
2.69,0.01662643114,0.007366341958
2.7,0.01725656516,0.006316106312
2.71,0.01782821487,0.005207544567
2.72,0.01833562462,0.004043039433
2.73,0.01877302582,0.002825565712
2.74,0.01913469914,0.001558709123
2.75,0.01941503979,0.0002466785365
2.76,0.01960862507,-0.001105688738
2.77,0.01971028357,-0.002492928914
2.78,0.01971516519,-0.003908961165
2.79,0.01961881121,-0.005347104674
2.8,0.0194172236,-0.006800103359
2.81,0.01910693276,-0.00826015824
2.82,0.01868506281,-0.009718967349
2.83,0.01814939374,-0.01116777298
2.84,0.01749841951,-0.01259741601
2.85,0.01673140144,-0.01399839691
2.86,0.01584841609,-0.01536094299
2.87,0.01485039695,-0.01667508148
2.88,0.0137391694,-0.01793071764
2.89,0.01251747816,-0.01911771748
2.9,0.01118900699,-0.02022599417
2.91,0.009758389958,-0.02124559755
2.92,0.008231214063,-0.02216680576
2.93,0.006614012826,-0.02298021827
2.94,0.00491425075,-0.0236768493
2.95,0.003140298458,-0.02424822087
2.96,0.001301398533,-0.02468645433
2.97,-0.0005923778944,-0.02498435973
2.98,-0.002530183619,-0.02513552178
2.99,-0.00450045666,-0.02513438182
3,-0.00649099003,-0.0249763146
3.01,-0.008489009528,-0.02465769922
3.02,-0.01048125905,-0.02417598332
3.03,-0.01245409279,-0.0235297398
3.04,-0.01439357369,-0.02271871525
3.05,-0.01628557729,-0.02174386954
3.06,-0.01811590028,-0.02060740604
3.07,-0.01987037282,-0.01931279173
3.08,-0.02153497362,-0.01786476709
3.09,-0.0230959469,-0.01626934515
3.1,-0.02453992028,-0.01453379977
3.11,-0.02585402232,-0.01266664266
3.12,-0.02702599893,-0.0106775894
3.13,-0.02804432741,-0.008577514387
3.14,-0.0288983272,-0.006378394842
3.15,-0.02957826608,-0.004093244216
3.16,-0.03007546109,-0.001736035323
3.17,-0.03038237291,0.000678386341
3.18,-0.03049269292,0.003134398526
3.19,-0.03040142196,0.005615706754
3.2,-0.03010493996,0.00810545671
3.21,-0.02960106572,0.01058635368
3.22,-0.02888910602,0.01304078816
3.23,-0.02796989365,0.01545096658
3.24,-0.02684581356,0.01779904635
3.25,-0.02552081693,0.02006727384
3.26,-0.02400042275,0.02223812445
3.27,-0.0222917066,0.02429444346
3.28,-0.02040327667,0.0262195866
3.29,-0.01834523686,0.02799755903
3.3,-0.0161291371,0.02961315162
3.31,-0.01376791117,0.03105207339
3.32,-0.01127580226,0.03230107879
3.33,-0.008668276694,0.03334808886
3.34,-0.00596192644,0.03418230503
3.35,-0.003174360913,0.0347943146
3.36,-0.0003240889308,0.03517618687
3.37,0.002569608421,0.03532155896
3.38,0.005486813086,0.03522571052
3.39,0.008407112488,0.03488562654
3.4,0.01130974808,0.03430004756
3.41,0.01417376886,0.03346950673
3.42,0.01697818865,0.03239635326
3.43,0.01970214596,0.03108476176
3.44,0.02232506508,0.02954072742
3.45,0.02482681719,0.02777204672
3.46,0.02718788021,0.02578828368
3.47,0.0293894959,0.02360072184
3.48,0.03141382317,0.02122230206
3.49,0.03324408614,0.01866754653
3.5,0.03486471571,0.01595246943
3.51,0.03626148352,0.01309447483
3.52,0.03742162707,0.01011224252
3.53,0.03833396491,0.007025602372
3.54,0.03898900087,0.003855398456
3.55,0.03937901646,0.0006233435076
3.56,0.03949815038,-0.002648134913
3.57,0.03934246465,-0.005936055579
3.58,0.03890999643,-0.009217050816
3.59,0.0382007952,-0.01246753852
3.6,0.0372169447,-0.01566389768
3.61,0.0359625694,-0.018782646
3.62,0.03444382528,-0.02180061829
3.63,0.03266887481,-0.02469514423
3.64,0.03064784627,-0.02744422402
3.65,0.02839277751,-0.03002670061
3.66,0.0259175445,-0.03242242705
3.67,0.02323777507,-0.03461242769
3.68,0.02037074839,-0.03657905185
3.69,0.01733528098,-0.03830611863
3.7,0.01415159978,-0.03977905185
3.71,0.01084120346,-0.0409850038
3.72,0.007426712715,-0.04191296683
3.73,0.003931710835,-0.04255387178
3.74,0.000380575528,-0.04290067248
3.75,-0.003201696599,-0.0429484154
3.76,-0.006789671691,-0.04269429394
3.77,-0.01035766501,-0.04213768679
3.78,-0.01387993062,-0.04128017988
3.79,-0.01733085297,-0.04012557179
3.8,-0.02068513878,-0.03867986232
3.81,-0.023918008,-0.03695122425
3.82,-0.02700538205,-0.03494995848
3.83,-0.02992406809,-0.03268843265
3.84,-0.03265193782,-0.03018100375
3.85,-0.03516809939,-0.0274439251
3.86,-0.03745306098,-0.02449523843
3.87,-0.03948888494,-0.02135465175
3.88,-0.041259331,-0.01804340389
3.89,-0.04274998764,-0.01458411661
3.9,-0.04394839037,-0.01100063551
3.91,-0.04484412599,-0.007317860682
3.92,-0.04542892202,-0.00356156859
3.93,-0.0456967205,0.000241773746
3.94,-0.0456437355,0.004065200679
3.95,-0.04526849384,0.007881444647
3.96,-0.04457185868,0.01166313616
3.97,-0.0435570356,0.01538300556
3.98,-0.04222956125,0.01901408498
3.99,-0.04059727433,0.02252990904
4,-0.03867026928,0.02590471271
4.01,-0.03646083281,0.02911362479
4.02,-0.03398336375,0.03213285557
4.03,-0.03125427676,0.0349398772
4.04,-0.02829189057,0.03751359542
4.05,-0.02511630149,0.0398345112
4.06,-0.02174924322,0.04188487118
4.07,-0.01821393379,0.04364880565
4.08,-0.01453491099,0.04511245295
4.09,-0.01073785726,0.04626406941
4.1,-0.006849415403,0.04709412387
4.11,-0.002896996654,0.04759537609
4.12,0.00109141776,0.0477629383
4.13,0.00508747986,0.04759431954
4.14,0.009062681547,0.04708945225
4.15,0.01298856304,0.04625070099
4.16,0.0168369216,0.04508285309
4.17,0.02058001888,0.04359309135
4.18,0.02419078546,0.04179094881
4.19,0.02764302097,0.03968824605
4.2,0.0309115882,0.03729901139
4.21,0.03397259996,0.03463938447
4.22,0.036803597,0.03172750407
4.23,0.03938371584,0.02858338081
4.24,0.04169384521,0.0252287558
4.25,0.04371676974,0.02168694613
4.26,0.04543730013,0.0179826785
4.27,0.04684238841,0.01414191203
4.28,0.04792122782,0.01019165174
4.29,0.04866533618,0.006159753957
4.3,0.04906862235,0.002074725078
4.31,0.04912743518,-0.002034484698
4.32,0.04884059455,-0.006138691261
4.33,0.04820940428,-0.01020868849
4.34,0.0472376468,-0.01421546059
4.35,0.0459315596,-0.01813039331
4.36,0.04429979361,-0.02192548247
4.37,0.04235335376,-0.02557353818
4.38,0.04010552233,-0.02904838336
4.39,0.0375717654,-0.032325045
4.4,0.03476962325,-0.03537993669
4.41,0.0317185855,-0.03819103125
4.42,0.02843995187,-0.04073802197
4.43,0.02495667956,-0.04300247136
4.44,0.0212932185,-0.04496794635
4.45,0.01747533548,-0.04662013889
4.46,0.01352992874,-0.04794697101
4.47,0.009484834095,-0.04893868367
4.48,0.005368624208,-0.0495879087
4.49,0.001210402483,-0.04988972326
4.5,-0.002960406992,-0.04984168651
4.51,-0.007114271823,-0.04944385812
4.52,-0.01122176448,-0.04869879864
4.53,-0.01525377469,-0.04761155156
4.54,-0.01918171945,-0.04618960733
4.55,-0.02297774922,-0.04444284962
4.56,-0.02661494863,-0.04238348404
4.57,-0.03006753042,-0.04002595018
4.58,-0.03331102101,-0.03738681734
4.59,-0.03632243645,-0.03448466484
4.6,-0.0390804475,-0.0313399478
4.61,-0.04156553254,-0.02797484948
4.62,-0.04376011729,-0.02441312101
4.63,-0.04564870024,-0.02067991003
4.64,-0.04721796307,-0.01680157928
4.65,-0.048456865,-0.01280551649
4.66,-0.04935672067,-0.008719937171
4.67,-0.04991126084,-0.004573681431
4.68,-0.0501166755,-0.0003960066435
4.69,-0.04997163928,0.003783622751
4.7,-0.04947731865,0.007935746672
4.71,-0.04863736129,0.01203112052
4.72,-0.04745786746,0.01604092447
4.73,-0.04594734372,0.01993696942
4.74,-0.04411663928,0.02369189806
4.75,-0.04197886569,0.02727937967
4.76,-0.03954930017,0.0306742972
4.77,-0.03684527359,0.0338529253
4.78,-0.0338860438,0.03679309802
4.79,-0.03069265531,0.039474365
4.8,-0.02728778634,0.041878135
4.81,-0.02369558438,0.04398780582
4.82,-0.01994149155,0.04578887964
4.83,-0.0160520609,0.04726906303
4.84,-0.01205476519,0.04841835086
4.85,-0.00797779938,0.04922909365
4.86,-0.003849878369,0.04969604783
4.87,0.0002999685381,0.0498164086
4.88,0.004442604986,0.04958982528
4.89,0.008548995214,0.04901839891
4.9,0.0125904105,0.04810666239
4.91,0.01653863289,0.04686154314
4.92,0.02036615482,0.04529230877
4.93,0.02404637311,0.04341049606
4.94,0.02755377597,0.0412298239
4.95,0.03086412181,0.03876609083
4.96,0.03395460836,0.036037058
4.97,0.03680403113,0.03306231837
4.98,0.03939293002,0.02986315318
4.99,0.04170372294,0.0264623768
5,0.04372082579,0.02288417098
5.01,0.04543075773,0.01915390994
5.02,0.04682223111,0.01529797733
5.03,0.04788622557,0.01134357664
5.04,0.04861604568,0.0073185363
5.05,0.04900736181,0.00325111089
5.06,0.04905823406,-0.0008302199844
5.07,0.04876911905,-0.004896953837
5.08,0.04814285964,-0.008920766937
5.09,0.04718465772,-0.012873714
5.1,0.04590203018,-0.01672842454
5.11,0.04430474877,-0.02045829444
5.12,0.04240476391,-0.02403767144
5.13,0.04021611345,-0.0274420332
5.14,0.0377548168,-0.0306481567
5.15,0.03503875541,-0.03363427782
5.16,0.03208754052,-0.03638023997
5.17,0.02892236897,-0.03886763077
5.18,0.02556586844,-0.04107990584
5.19,0.02204193302,-0.04300249886
5.2,0.01837555051,-0.04462291723
5.21,0.01459262256,-0.04593082259
5.22,0.01071977907,-0.04691809584
5.23,0.006784188193,-0.0475788861
5.24,0.002813363213,-0.04790964351
5.25,-0.001165032171,-0.04790913551
5.26,-0.005123378861,-0.04757844671
5.27,-0.009034296252,-0.04692096239
5.28,-0.01287083362,-0.04594233574
5.29,-0.01660665768,-0.04465043925
5.3,-0.02021623494,-0.04305530062
5.31,-0.02367500767,-0.0411690237
5.32,-0.02695956218,-0.03900569516
5.33,-0.03004778829,-0.03658127751
5.34,-0.0329190289,-0.03391348944
5.35,-0.03555421859,-0.03102167422
5.36,-0.03793601045,-0.0279266573
5.37,-0.04004889015,-0.02465059412
5.38,-0.04187927658,-0.02121680924
5.39,-0.0434156084,-0.01764962791
5.4,-0.04464841599,-0.01397420158
5.41,-0.04557037827,-0.01021632818
5.42,-0.04617636418,-0.006402268929
5.43,-0.04646345853,-0.002558562657
5.44,-0.04643097215,0.00128816089
5.45,-0.04608043629,0.005111367449
5.46,-0.04541558156,0.008884803041
5.47,-0.04444230137,0.01258267588
5.48,-0.04316860049,0.01617983408
5.49,-0.04160452902,0.01965193804
5.5,-0.03976210227,0.02297562609
5.51,-0.0376552074,0.0261286726
5.52,-0.0352994973,0.02909013708
5.53,-0.03271227275,0.03184050369
5.54,-0.02991235359,0.03436180982
5.55,-0.02691993998,0.03663776326
5.56,-0.02375646474,0.03865384688
5.57,-0.02044443789,0.04039741046
5.58,-0.01700728442,0.04185774881
5.59,-0.01346917671,0.0430261659
5.6,-0.009854862554,0.04389602461
5.61,-0.006189490165,0.04446278171
5.62,-0.002498431397,0.04472400812
5.63,0.001192895588,0.04467939416
5.64,0.00485920294,0.04433074005
5.65,0.008475507803,0.04368193167
5.66,0.01201730383,0.04273890199
5.67,0.01546072836,0.04150957833
5.68,0.01878272408,0.04000381613
5.69,0.02196119411,0.03823331959
5.7,0.02497514948,0.03621154997
5.71,0.0278048479,0.03395362215
5.72,0.03043192305,0.03147619039
5.73,0.03283950348,0.02879732396
5.74,0.03501232032,0.02593637386
5.75,0.03693680317,0.0229138313
5.76,0.03860116361,0.01975117927
5.77,0.03999546569,0.01647073812
5.78,0.04111168316,0.01309550629
5.79,0.04194374304,0.009648997447
5.8,0.04248755529,0.006155075029
5.81,0.04274102859,0.002637785501
5.82,0.04270407207,-0.0008788085583
5.83,0.04237858319,-0.004370794362
5.84,0.04176842187,-0.00781457266
5.85,0.04087937126,-0.01118701819
5.86,0.03971908534,-0.01446563575
5.87,0.03829702403,-0.0176287108
5.88,0.03662437616,-0.02065545368
5.89,0.03471397104,-0.02352613628
5.9,0.03258017933,-0.02622222056
5.91,0.0302388039,-0.02872647778
5.92,0.02770696157,-0.03102309793
5.93,0.0250029567,-0.03309778846
5.94,0.02214614735,-0.03493786191
5.95,0.01915680527,-0.03653231174
5.96,0.01605597057,-0.03787187601
5.97,0.01286530212,-0.03894908854
5.98,0.009606924851,-0.03975831735
5.99,0.006303274986,-0.04029579008
6,0.002976944274,-0.04055960645
