"Freq [GHz]","re(S(Tx_p1,Tx_p1)) []","im(S(Tx_p1,Tx_p1)) []"
1,0.1011357187,0.08808672409
1.01,0.1078984269,0.07943658935
1.02,0.1139250561,0.07026280819
1.03,0.1191745732,0.06062808526
1.04,0.1236113215,0.05059837481
1.05,0.1272052798,0.04024241527
1.06,0.1299322795,0.02963124347
1.07,0.1317741803,0.01883769194
1.08,0.1327190026,0.00793587314
1.09,0.1327610143,-0.002999345821
1.1,0.1319007741,-0.01389287393
1.11,0.130145128,-0.02466992873
1.12,0.1275071615,-0.03525656651
1.13,0.1240061062,-0.04558020644
1.14,0.1196672025,-0.05557014475
1.15,0.1145215189,-0.06515805531
1.16,0.1086057296,-0.07427847282
1.17,0.1019618518,-0.08286925525
1.18,0.09463694432,-0.09087202212
1.19,0.08668277109,-0.09823256541
1.2,0.07815543021,-0.1049012302
1.21,0.0691149526,-0.1108332623
1.22,0.05962487271,-0.1159891203
1.23,0.04975177445,-0.1203347499
1.24,0.03956481578,-0.1238418186
1.25,0.02913523538,-0.1264879089
1.26,0.018535845,-0.128256669
1.27,0.007840511222,-0.1291379197
1.28,-0.002876369605,-0.1291277165
1.29,-0.01354039941,-0.1282283676
1.3,-0.02407770565,-0.1264484066
1.31,-0.03441546386,-0.1238025205
1.32,-0.04448241179,-0.1203114338
1.33,-0.05420935143,-0.1160017498
1.34,-0.06352963517,-0.11090575
1.35,-0.07237963287,-0.1050611525
1.36,-0.08069917616,-0.09851083298
1.37,-0.08843197713,-0.09130250864
1.38,-0.09552601818,-0.08348838836
1.39,-0.1019339104,-0.07512479148
1.4,-0.1076132181,-0.06627173796
1.41,-0.1125267465,-0.05699251309
1.42,-0.1166427922,-0.04735320987
1.43,-0.1199353525,-0.03742225246
1.44,-0.1223842938,-0.02726990417
1.45,-0.1239754781,-0.01696776368
1.46,-0.1247008452,-0.006588253006
1.47,-0.1245584514,0.003795898914
1.48,-0.123552465,0.01411217332
1.49,-0.1216931169,0.02428877571
1.5,-0.1189966089,0.03425514313
1.51,-0.1154849788,0.04394244109
1.52,-0.1111859246,0.05328404648
1.53,-0.1061325886,0.06221601311
1.54,-0.1003633027,0.07067751649
1.55,-0.09392129849,0.07861127481
1.56,-0.08685438221,0.08596394298
1.57,-0.07921457848,0.09268647725
1.58,-0.07105774509,0.09873446754
1.59,-0.06244316172,0.1040684355
1.6,-0.05343309557,0.108654096
1.61,-0.04409234731,0.1124625808
1.62,-0.03448778053,0.1154706218
1.63,-0.02468783832,0.1176606943
1.64,-0.01476205033,0.1190211183
1.65,-0.004780534067,0.1195461169
1.66,0.005186505992,0.1192358331
1.67,0.0150692779,0.1180963034
1.68,0.02479889667,0.1161393898
1.69,0.03430787015,0.11338267
1.7,0.04353057277,0.1098492868
1.71,0.05240370399,0.1055677596
1.72,0.06086672792,0.1005717561
1.73,0.06886229127,0.0948998303
1.74,0.07633661658,0.0885951249
1.75,0.08323986804,0.08170504333
1.76,0.08952648732,0.07428089213
1.77,0.09515549724,0.06637749728
1.78,0.1000907711,0.058052797
1.79,0.104301266,0.04936741429
1.8,0.1077612185,0.04038421218
1.81,0.1104503018,0.03116783514
1.82,0.1123537424,0.02178424006
1.83,0.1134623974,0.01230021999
1.84,0.1137727903,0.002782924497
1.85,0.113287106,-0.006700620269
1.86,0.1120131456,-0.01608398802
1.87,0.1099642412,-0.02530182207
1.88,0.1071591307,-0.03429029485
1.89,0.1036217957,-0.04298755414
1.9,0.09938126147,-0.05133415257
1.91,0.0944713629,-0.05927345772
1.92,0.08893047637,-0.06675203961
1.93,0.08280122101,-0.07372003326
1.94,0.0761301311,-0.08013147346
1.95,0.06896730219,-0.08594459988
1.96,0.06136601369,-0.09112213009
1.97,0.05338233082,-0.09563149906
1.98,0.04507468886,-0.09944506332
1.99,0.03650346287,-0.1025402686
2,0.02773052591,-0.1048997803
2.01,0.01881879933,-0.1065115749
2.02,0.009831798042,-0.1073689939
2.03,0.0008331744487,-0.107470758
2.04,-0.008113735946,-0.1068209429
2.05,-0.01694636379,-0.105428917
2.06,-0.02560334687,-0.1033092411
2.07,-0.03402495967,-0.100481532
2.08,-0.0421535285,-0.09697029039
2.09,-0.04993382919,-0.09280469446
2.1,-0.05731346474,-0.08801836198
2.11,-0.06424322017,-0.0826490815
2.12,-0.07067739227,-0.07673851561
2.13,-0.07657409192,-0.07033187828
2.14,-0.08189551709,-0.06347758884
2.15,-0.08660819467,-0.05622690532
2.16,-0.09068318956,-0.04863353982
2.17,-0.09409627983,-0.04075325892
2.18,-0.09682809681,-0.03264347203
2.19,-0.0988642294,-0.02436281083
2.2,-0.100195292,-0.01597070283
2.21,-0.1008169562,-0.007526942165
2.22,-0.1007299453,0.0009087391495
2.23,-0.0999399933,0.009277096531
2.24,-0.09845776779,0.01751979158
2.25,-0.09629875816,0.02557980133
2.26,-0.0934831299,0.03340181504
2.27,-0.09003554645,0.04093261587
2.28,-0.08598496005,0.04812144463
2.29,-0.08136437332,0.05492034328
2.3,-0.07621057364,0.06128447565
2.31,-0.07056384219,0.06717242345
2.32,-0.06446764027,0.07254645539
2.33,-0.05796827505,0.07737276786
2.34,-0.05111454754,0.0816216955
2.35,-0.0439573853,0.08526789048
2.36,-0.03654946282,0.08829046933
2.37,-0.02894481224,0.09067312658
2.38,-0.02119842745,0.09240421467
2.39,-0.01336586446,0.09347678971
2.4,-0.005502840797,0.09388862314
2.41,0.002335162853,0.09364217941
2.42,0.01009329622,0.09274456015
2.43,0.01771772521,0.09120741552
2.44,0.02515600722,0.08904682353
2.45,0.03235745333,0.08628313871
2.46,0.03927347495,0.08294081115
2.47,0.04585791239,0.07904817777
2.48,0.05206734327,0.07463722743
2.49,0.05786136863,0.06974334168
2.5,0.06320287489,0.06440501355
2.51,0.06805826996,0.05866354624
2.52,0.07239769199,0.05256273433
2.53,0.0761951895,0.04614852984
2.54,0.07942887191,0.03946869577
2.55,0.08208102947,0.0325724496
2.56,0.08413822219,0.0255100996
2.57,0.08559133723,0.01833267653
2.58,0.08643561472,0.01109156344
2.59,0.08667064209,0.003838126309
2.6,0.0863003172,-0.003376651779
2.61,0.08533278085,-0.01050253043
2.62,0.08378031942,-0.01749036303
2.63,0.0816592387,-0.0242924367
2.64,0.07898970989,-0.03086279882
2.65,0.07579558947,-0.03715756779
2.66,0.07210421407,-0.04313522598
2.67,0.06794617255,-0.04875689291
2.68,0.06335505665,-0.05398657689
2.69,0.05836719268,-0.05879140339
2.7,0.05302135602,-0.06314181889
2.71,0.04735847093,-0.06701176882
2.72,0.04142129778,-0.07037884866
2.73,0.03525411024,-0.07322442724
2.74,0.02890236481,-0.07553374178
2.75,0.02241236512,-0.07729596412
2.76,0.0158309236,-0.07850423808
2.77,0.009205022845,-0.07915568782
2.78,0.002581479309,-0.07925139757
2.79,-0.003993388445,-0.07879636309
2.8,-0.01047408442,-0.07779941553
2.81,-0.01681625059,-0.07627311853
2.82,-0.02297697084,-0.07423363954
2.83,-0.02891506133,-0.07170059666
2.84,-0.03459134529,-0.06869688222
2.85,-0.03996891057,-0.06524846482
2.86,-0.04501334803,-0.06138417129
2.87,-0.04969296943,-0.05713545049
2.88,-0.05397900338,-0.05253612089
2.89,-0.05784576819,-0.04762210379
2.9,-0.06127082063,-0.04243114441
2.91,-0.0642350797,-0.037002523
2.92,-0.06672292494,-0.03137675801
2.93,-0.0687222687,-0.02559530385
2.94,-0.07022460222,-0.0197002452
2.95,-0.0712250155,-0.0137339903
2.96,-0.07172219098,-0.007738965458
2.97,-0.07171837159,-0.00175731291
2.98,-0.07121930346,0.00416940582
2.99,-0.07023415418,0.01000049887
3,-0.06877540741,0.0156964234
3.01,-0.06685873488,0.02121905337
3.02,-0.06450284696,0.02653193397
3.03,-0.06172932325,0.03160052101
3.04,-0.05856242445,0.03639240364
3.05,-0.05502888735,0.04087750916
3.06,-0.05115770444,0.04502828837
3.07,-0.04697988996,0.04881988063
3.08,-0.04252823442,0.0522302575
3.09,-0.03783704922,0.05524034422
3.1,-0.03294190368,0.05783411849
3.11,-0.02787935617,0.05999868597
3.12,-0.02268668167,0.06172433244
3.13,-0.01740159752,0.06300455229
3.14,-0.01206198956,0.0638360537
3.15,-0.006705640548,0.06421874051
3.16,-0.001369962881,0.06415567147
3.17,0.003908262583,0.06365299716
3.18,0.0090931397,0.06271987567
3.19,0.01414990052,0.0613683676
3.2,0.0190451374,0.05961331168
3.21,0.02374702223,0.05747218201
3.22,0.02822551136,0.05496492826
3.23,0.03245253487,0.05211380022
3.24,0.03640216907,0.04894315823
3.25,0.0400507912,0.04547927095
3.26,0.04337721537,0.04175010226
3.27,0.04636280918,0.03778508887
3.28,0.04899159018,0.03361491044
3.29,0.05125030202,0.02927125406
3.3,0.05312846979,0.02478657472
3.31,0.0546184346,0.02019385376
3.32,0.05571536738,0.01552635691
3.33,0.05641726205,0.01081739391
3.34,0.05672490853,0.006100081195
3.35,0.05664184595,0.001407109506
3.36,0.05617429672,-0.003229481979
3.37,0.05533108237,-0.007778523492
3.38,0.05412352175,-0.01220992299
3.39,0.05256531291,-0.01649486354
3.4,0.05067239958,-0.02060598857
3.41,0.04846282344,-0.02451757367
3.42,0.04595656365,-0.0282056841
3.43,0.04317536481,-0.03164831686
3.44,0.04014255493,-0.03482552662
3.45,0.03688285479,-0.03771953493
3.46,0.03342218034,-0.04031482192
3.47,0.02978743954,-0.04259820038
3.48,0.02600632542,-0.04455887173
3.49,0.02210710667,-0.04618846392
3.5,0.01811841764,-0.04748105114
3.51,0.01406904904,-0.04843315558
3.52,0.009987741019,-0.04904373148
3.53,0.005902980007,-0.04931413193
3.54,0.001842800856,-0.0492480588
3.55,-0.002165404467,-0.04885149666
3.56,-0.006095070267,-0.04813263126
3.57,-0.009920631399,-0.04710175355
3.58,-0.01361768731,-0.04577115009
3.59,-0.0171631548,-0.044154981
3.6,-0.02053540859,-0.04226914646
3.61,-0.02371440887,-0.04013114301
3.62,-0.0266818151,-0.03775991084
3.63,-0.02942108546,-0.03517567336
3.64,-0.03191756154,-0.03239977045
3.65,-0.03415853779,-0.02945448659
3.66,-0.0361333156,-0.02636287533
3.67,-0.03783324184,-0.02314858145
3.68,-0.03925173186,-0.01983566214
3.69,-0.04038427703,-0.01644840854
3.7,-0.04122843717,-0.01301116901
3.71,-0.04178381807,-0.009548175301
3.72,-0.0420520346,-0.00608337294
3.73,-0.04203666001,-0.002640257002
3.74,-0.04174316195,0.0007582856604
3.75,-0.04117882603,0.00409012665
3.76,-0.04035266773,0.007334037761
3.77,-0.03927533342,0.01046982334
3.78,-0.03795899161,0.01347844244
3.79,-0.03641721533,0.01634212015
3.8,-0.03466485671,0.01904444732
3.81,-0.03271791483,0.02157046839
3.82,-0.03059339804,0.02390675672
3.83,-0.02830918179,0.02604147725
3.84,-0.02588386322,0.02796443617
3.85,-0.02333661354,0.0296671176
3.86,-0.0206870295,0.03114270724
3.87,-0.01795498498,0.03238610305
3.88,-0.0151604838,0.03339391322
3.89,-0.01232351493,0.0341644417
3.9,-0.00946391101,0.03469766162
3.91,-0.006601211236,0.03499517715
3.92,-0.003754529563,0.03506017429
3.93,-0.0009424290492,0.03489736117
3.94,0.001817196822,0.03451289868
3.95,0.004507235105,0.03391432199
3.96,0.00711145599,0.03311045392
3.97,0.009614606438,0.03211131093
3.98,0.01200249437,0.03092800256
3.99,0.014262063,0.02957262543
4,0.01638145491,0.02805815247
4.01,0.01835006578,0.02639831855
4.02,0.02015858741,0.02460750336
4.03,0.02179904017,0.02270061253
4.04,0.02326479475,0.02069295796
4.05,0.02455058333,0.01860013825
4.06,0.02565250046,0.01643792017
4.07,0.02656799374,0.01422212204
4.08,0.02729584473,0.01196849996
4.09,0.02783614056,0.009692637459
4.1,0.02819023646,0.007409839632
4.11,0.02836071005,0.005135032199
4.12,0.02835130774,0.002882666305
4.13,0.0281668839,0.000666629561
4.14,0.0278133336,-0.001499836117
4.15,0.02729751945,-0.003604209434
4.16,0.02662719342,-0.005634757009
4.17,0.02581091426,-0.007580592737
4.18,0.02485796144,-0.009431728967
4.19,0.02377824624,-0.01117911934
4.2,0.02258222088,-0.01281469318
4.21,0.02128078641,-0.01433138141
4.22,0.01988520021,-0.01572313408
4.23,0.01840698366,-0.01698492952
4.24,0.01685783096,-0.01811277545
4.25,0.01524951963,-0.01910370215
4.26,0.01359382337,-0.01995574803
4.27,0.01190242798,-0.02066793798
4.28,0.01018685086,-0.02124025494
4.29,0.008458364656,-0.021673605
4.3,0.006727925521,-0.02196977668
4.31,0.005006106474,-0.02213139484
4.32,0.003303036161,-0.02216186974
4.33,0.001628343407,-0.02206534197
4.34,-8.892214729E-06,-0.02184662366
4.35,-0.001600183579,-0.02151113677
4.36,-0.003137672825,-0.02106484893
4.37,-0.004614161717,-0.02051420759
4.38,-0.006023135516,-0.01986607296
4.39,-0.007358780398,-0.0191276505
4.4,-0.008615994505,-0.01830642342
4.41,-0.009790392774,-0.01741008587
4.42,-0.01087830573,-0.01644647731
4.43,-0.01187677251,-0.01542351867
4.44,-0.01278352832,-0.01434915064
4.45,-0.01359698679,-0.01323127475
4.46,-0.01431621749,-0.01207769749
4.47,-0.01494091896,-0.01089607794
4.48,-0.01547138788,-0.009693879218
4.49,-0.01590848451,-0.008478324033
4.5,-0.01625359526,-0.007256354572
4.51,-0.01650859245,-0.006034596934
4.52,-0.01667579213,-0.004819330229
4.53,-0.01675791015,-0.003616460458
4.54,-0.0167580172,-0.002431499182
4.55,-0.01667949319,-0.001269547012
4.56,-0.0165259814,-0.0001352818424
4.57,-0.01630134305,0.0009670482709
4.58,-0.01600961251,0.002033627713
4.59,-0.01565495379,0.003061071591
4.6,-0.01524161851,0.004046419911
4.61,-0.01477390585,0.004987127901
4.62,-0.01425612478,0.005881052776
4.63,-0.01369255885,0.00672643725
4.64,-0.01308743381,0.00752189015
4.65,-0.01244488837,0.008266364474
4.66,-0.01176894808,0.008959133285
4.67,-0.01106350272,0.009599763819
4.68,-0.01033228715,0.0101880902
4.69,-0.009578865681,0.01072418519
4.7,-0.008806620089,0.01120833129
4.71,-0.008018741115,0.01164099176
4.72,-0.007218223498,0.01202278166
4.73,-0.006407864371,0.01235443962
4.74,-0.005590264926,0.01263680041
4.75,-0.00476783513,0.01287076879
4.76,-0.003942801334,0.01305729493
4.77,-0.0031172165,0.0131973517
4.78,-0.002292972811,0.01329191399
4.79,-0.00147181636,0.01334194039
4.8,-0.0006553636292,0.01334835745
4.81,0.0001548805702,0.0133120465
4.82,0.0009575040346,0.01323383335
4.83,0.001751167314,0.01311448082
4.84,0.00253458342,0.01295468425
4.85,0.003306497445,0.01275506985
4.86,0.004065666435,0.01251619605
4.87,0.004810839855,0.01223855759
4.88,0.005540740972,0.01192259244
4.89,0.006254049481,0.01156869123
4.9,0.006949385655,0.01117720912
4.91,0.007625296302,0.01074847997
4.92,0.008280242787,0.01028283238
4.93,0.008912591332,0.009780607564
4.94,0.0095206058,0.009242178682
4.95,0.01010244313,0.008667971273
4.96,0.01065615155,0.008058484604
4.97,0.01117967165,0.007414313511
4.98,0.01167084043,0.006736170443
4.99,0.0121273983,0.006024907342
5,0.01254699901,0.005281537033
5.01,0.01292722257,0.004507253769
5.02,0.01326559084,0.003703452602
5.03,0.01355958606,0.002871747247
5.04,0.01380667167,0.002013986135
5.05,0.01400431572,0.001132266339
5.06,0.01415001629,0.0002289451086
5.07,0.01424132882,-0.0006933512425
5.08,0.01427589513,-0.001631721337
5.09,0.01425147371,-0.002582985814
5.1,0.01416597098,-0.00354368766
5.11,0.01401747325,-0.004510095936
5.12,0.01380427898,-0.005478212988
5.13,0.01352493096,-0.006443785231
5.14,0.01317824801,-0.007402317504
5.15,0.01276335596,-0.008349091012
5.16,0.01227971728,-0.009279184798
5.17,0.01172715929,-0.01018750065
5.18,0.01110590026,-0.01106879132
5.19,0.01041657334,-0.01191769192
5.2,0.009660247746,-0.01272875421
5.21,0.008838447003,-0.01349648369
5.22,0.007953163905,-0.01421537902
5.23,0.007006871909,-0.01487997372
5.24,0.006002532721,-0.01548487955
5.25,0.004943599855,-0.01602483143
5.26,0.003834017975,-0.01649473339
5.27,0.002678217881,-0.01688970527
5.28,0.001481107021,-0.01720512957
5.29,0.0002480554571,-0.01743669821
5.3,-0.001015122731,-0.01758045865
5.31,-0.002302192611,-0.01763285894
5.32,-0.003606526054,-0.01759079135
5.33,-0.004921133802,-0.01745163392
5.34,-0.00623870179,-0.01721328976
5.35,-0.007551631552,-0.01687422347
5.36,-0.008852084467,-0.01643349441
5.37,-0.0101320296,-0.01589078628
5.38,-0.01138329483,-0.01524643279
5.39,-0.01259762088,-0.01450143906
5.4,-0.01376671797,-0.01365749829
5.41,-0.0148823246,-0.01271700359
5.42,-0.01593626804,-0.0116830547
5.43,-0.01692052615,-0.01055945931
5.44,-0.0178272899,-0.009350728904
5.45,-0.01864902627,-0.008062068999
5.46,-0.01937854089,-0.006699363649
5.47,-0.02000903991,-0.005269154281
5.48,-0.02053419066,-0.003778612812
5.49,-0.02094818053,-0.002235509155
5.5,-0.02124577345,-0.0006481732183
5.51,-0.02142236362,0.0009745484204
5.52,-0.02147402595,0.002623340962
5.53,-0.02139756257,0.004288474683
5.54,-0.02119054519,0.005959862783
5.55,-0.02085135268,0.007627123419
5.56,-0.02037920359,0.009279645547
5.57,-0.01977418312,0.01090665814
5.58,-0.01903726436,0.01249730228
5.59,-0.01817032335,0.01404070571
5.6,-0.01717614776,0.01552605921
5.61,-0.01605843908,0.01694269432
5.62,-0.014821808,0.01828016181
5.63,-0.01347176302,0.01952831032
5.64,-0.01201469209,0.02067736458
5.65,-0.0104578375,0.02171800248
5.66,-0.008809263784,0.02264143063
5.67,-0.00707781901,0.02343945755
5.68,-0.005273089473,0.02410456398
5.69,-0.00340534804,0.0246299698
5.7,-0.00148549643,0.02500969684
5.71,0.0004749982451,0.02523862719
5.72,0.002464172336,0.02531255627
5.73,0.004469639453,0.02522824046
5.74,0.006478668763,0.02498343854
5.75,0.00847826727,0.02457694668
5.76,0.01045526554,0.02400862662
5.77,0.01239640627,0.02327942662
5.78,0.01428843516,0.02239139493
5.79,0.0161181933,0.02134768565
5.8,0.0178727106,0.02015255661
5.81,0.01953929948,0.01881135936
5.82,0.02110564809,0.01733052107
5.83,0.0225599125,0.01571751848
5.84,0.02389080702,0.01398084378
5.85,0.02508769208,0.0121299627
5.86,0.02614065888,0.01017526497
5.87,0.02704061021,0.008128007337
5.88,0.02777933677,0.006000249482
5.89,0.02834958834,0.00380478321
5.9,0.02874513924,0.001555055309
5.91,0.02896084752,-0.0007349154429
5.92,0.0289927073,-0.003050626597
5.93,0.02883789382,-0.00537718513
5.94,0.02849480085,-0.007699404685
5.95,0.02796306991,-0.01000190633
5.96,0.02724361111,-0.01226922214
5.97,0.02633861529,-0.0144859009
5.98,0.02525155729,-0.01663661516
5.99,0.02398719014,-0.01870626897
6,0.02255153021,-0.02068010542
