"Freq [GHz]","re(S(Tx_p1,Tx_p1)) []","im(S(Tx_p1,Tx_p1)) []"
1,0.05349791805,0.03544906195
1.01,0.05615149022,0.03082914478
1.02,0.05840730164,0.02601018388
1.03,0.06025036061,0.02102651106
1.04,0.06166865973,0.01591358696
1.05,0.06265325977,0.01070773926
1.06,0.06319835033,0.005445894894
1.07,0.06330128701,0.0001653083586
1.08,0.06296260482,-0.005096711919
1.09,0.06218600772,-0.01030307694
1.1,0.06097833464,-0.01541718822
1.11,0.0593495021,-0.02040320452
1.12,0.05731242405,-0.02522630224
1.13,0.05488290959,-0.02985292751
1.14,0.05207953946,-0.03425103805
1.15,0.04892352216,-0.03839033313
1.16,0.0454385311,-0.04224246978
1.17,0.04165052388,-0.04578126379
1.18,0.03758754514,-0.04898287392
1.19,0.03327951474,-0.05182596817
1.2,0.02875800261,-0.05429187072
1.21,0.02405599233,-0.05636468868
1.22,0.01920763503,-0.05803141763
1.23,0.01424799563,-0.05928202543
1.24,0.009212793328,-0.06010951356
1.25,0.004138138352,-0.06050995581
1.26,-0.000939733126,-0.06048251394
1.27,-0.005984723798,-0.06002943056
1.28,-0.01096113784,-0.05915599908
1.29,-0.01583393934,-0.05787051133
1.3,-0.02056900467,-0.05618418325
1.31,-0.02513336684,-0.0541110592
1.32,-0.02949545018,-0.05166789601
1.33,-0.03362529349,-0.0488740274
1.34,-0.03749476022,-0.0457512102
1.35,-0.041077734,-0.04232345334
1.36,-0.04435029827,-0.03861683124
1.37,-0.04729089867,-0.0346592829
1.38,-0.04988048714,-0.03048039837
1.39,-0.05210264673,-0.02611119419
1.4,-0.0539436963,-0.02158387965
1.41,-0.05539277441,-0.01693161559
1.42,-0.05644190198,-0.01218826758
1.43,-0.05708602335,-0.007388155435
1.44,-0.05732302553,-0.002565800848
1.45,-0.05715373568,0.002244324864
1.46,-0.05658189697,0.007008051085
1.47,-0.05561412313,0.01169175442
1.48,-0.05425983218,0.0162625996
1.49,-0.05253115998,0.02068877303
1.5,-0.05044285436,0.02493970726
1.51,-0.04801215075,0.02898629481
1.52,-0.04525863039,0.03280108984
1.53,-0.04220406233,0.03635849612
1.54,-0.03887223034,0.03963494027
1.55,-0.03528874642,0.0426090288
1.56,-0.03148085208,0.04526168804
1.57,-0.02747720914,0.04757628617
1.58,-0.02330768174,0.04953873621
1.59,-0.01900311097,0.05113757987
1.6,-0.01459508418,0.05236405123
1.61,-0.01011570047,0.05321212042
1.62,-0.005597334277,0.05367851682
1.63,-0.001072398757,0.05376273188
1.64,0.003426889289,0.05346700169
1.65,0.007868741165,0.05279626966
1.66,0.01222202307,0.05175812962
1.67,0.01645647625,0.05036274999
1.68,0.02054292901,0.04862277982
1.69,0.02445349893,0.04655323737
1.7,0.02816178415,0.04417138239
1.71,0.03164304207,0.04149657299
1.72,0.03487435451,0.03855010854
1.73,0.03783477815,0.03535505959
1.74,0.0405054792,0.03193608642
1.75,0.0428698516,0.02831924759
1.76,0.04491361785,0.02453179986
1.77,0.04662491204,0.02060199125
1.78,0.04799434449,0.0165588487
1.79,0.0490150479,0.01243196194
1.8,0.04968270456,0.008251265217
1.81,0.04999555486,0.004046818565
1.82,0.04995438708,-0.0001514098769
1.83,0.04956250872,-0.004313758827
1.84,0.04882569981,-0.008411084583
1.85,0.04775214868,-0.01241496599
1.86,0.04635237086,-0.01629790223
1.87,0.04463911181,-0.02003350195
1.88,0.04262723452,-0.02359666263
1.89,0.04033359267,-0.02696373877
1.9,0.03777689077,-0.03011269784
1.91,0.03497753213,-0.03302326308
1.92,0.03195745614,-0.03567704204
1.93,0.02873996596,-0.03805764033
1.94,0.0253495482,-0.04015075958
1.95,0.02181168572,-0.0419442794
1.96,0.01815266529,-0.04342832259
1.97,0.01439938132,-0.04459530362
1.98,0.01057913728,-0.04543995989
1.99,0.006719446282,-0.04595936601
2,0.00284783215,-0.04615293096
2.01,-0.001008367371,-0.04602237853
2.02,-0.004822194023,-0.04557171114
2.03,-0.008567257615,-0.04480715778
2.04,-0.01221791846,-0.04373710636
2.05,-0.01574946245,-0.04237202128
2.06,-0.01913826748,-0.04072434698
2.07,-0.02236196029,-0.03880839825
2.08,-0.02539956249,-0.0366402384
2.09,-0.02823162497,-0.03423754612
2.1,-0.03084034982,-0.03161947234
2.11,-0.03320969901,-0.02880648803
2.12,-0.03532548924,-0.02582022437
2.13,-0.03717547234,-0.02268330634
2.14,-0.03874940091,-0.01941918113
2.15,-0.04003907895,-0.01605194271
2.16,-0.04103839705,-0.01260615369
2.17,-0.04174335243,-0.009106665994
2.18,-0.04215205351,-0.005578441601
2.19,-0.0422647095,-0.002046374534
2.2,-0.04208360497,0.001464884481
2.21,-0.04161306005,0.004931099546
2.22,-0.04085937647,0.008328616095
2.23,-0.03983077022,0.01163452125
2.24,-0.03853729135,0.01482679691
2.25,-0.03699073172,0.01788446469
2.26,-0.03520452148,0.02078772156
2.27,-0.03319361518,0.02351806554
2.28,-0.03097436849,0.02605841059
2.29,-0.02856440649,0.02839318997
2.3,-0.02598248459,0.03050844759
2.31,-0.02324834328,0.03239191673
2.32,-0.0203825576,0.03403308585
2.33,-0.01740638274,0.03542325109
2.34,-0.01434159676,0.03655555537
2.35,-0.0112103416,0.03742501389
2.36,-0.008034963637,0.03802852613
2.37,-0.004837854815,0.03836487432
2.38,-0.001641295543,0.0384347087
2.39,0.001532699568,0.03824051987
2.4,0.004662532075,0.03778659842
2.41,0.007727165153,0.03707898251
2.42,0.01070626318,0.03612539389
2.43,0.01358032452,0.03493516286
2.44,0.01633080673,0.03351914299
2.45,0.01894024327,0.03188961632
2.46,0.02139235118,0.03006018983
2.47,0.02367212902,0.02804568398
2.48,0.02576594444,0.02586201432
2.49,0.02766161104,0.0235260671
2.5,0.0293484541,0.02105556971
2.51,0.03081736484,0.01846895712
2.52,0.03206084297,0.01578523521
2.53,0.03307302753,0.01302384196
2.54,0.03384971586,0.01020450767
2.55,0.03438837076,0.007347114999
2.56,0.03468811602,0.004471559947
2.57,0.03474972044,0.001597614722
2.58,0.03457557076,-0.001255206643
2.59,0.03416963367,-0.004067778961
2.6,0.03353740749,-0.006821492023
2.61,0.03268586392,-0.009498371372
2.62,0.03162338048,-0.01208119296
2.63,0.03035966422,-0.01455359098
2.64,0.02890566733,-0.01690015828
2.65,0.02727349541,-0.0191065386
2.66,0.02547630919,-0.02115951046
2.67,0.02352822031,-0.02304706178
2.68,0.02144418224,-0.02475845537
2.69,0.01923987689,-0.02628428449
2.7,0.01693159794,-0.02761651868
2.71,0.01453613174,-0.02874853935
2.72,0.01207063654,-0.02967516532
2.73,0.009552520941,-0.03039266807
2.74,0.006999322529,-0.03089877694
2.75,0.004428587337,-0.03119267425
2.76,0.00185775109,-0.03127498067
2.77,-0.0006959770482,-0.03114773101
2.78,-0.00321572745,-0.03081434073
2.79,-0.005685079008,-0.03027956364
2.8,-0.008088163451,-0.02954944116
2.81,-0.01040976435,-0.02863124363
2.82,-0.01263541021,-0.02753340414
2.83,-0.01475146118,-0.02626544563
2.84,-0.01674518879,-0.0248379016
2.85,-0.01860484839,-0.02326223133
2.86,-0.02031974381,-0.02155073012
2.87,-0.0218802841,-0.01971643521
2.88,-0.02327803185,-0.01777302826
2.89,-0.0245057432,-0.01573473494
2.9,-0.02555739909,-0.01361622239
2.91,-0.02642822799,-0.01143249534
2.92,-0.02711471984,-0.009198791517
2.93,-0.02761463144,-0.006930477131
2.94,-0.02792698323,-0.004642943103
2.95,-0.02805204785,-0.002351502699
2.96,-0.0279913304,-7.129126702E-05
2.97,-0.02774754091,0.002182831309
2.98,-0.02732455926,0.004396374829
2.99,-0.02672739282,0.006555309109
3,-0.02596212737,0.008646149867
3.01,-0.0250358716,0.01065603969
3.02,-0.02395669572,0.01257282364
3.03,-0.02273356471,0.01438511902
3.04,-0.0213762667,0.01608237902
3.05,-0.01989533703,0.01765494991
3.06,-0.0183019786,0.01909412142
3.07,-0.01660797905,0.02039217025
3.08,-0.01482562542,0.02154239639
3.09,-0.01296761682,0.02253915218
3.1,-0.01104697578,0.02337786414
3.11,-0.009076958877,0.02405504733
3.12,-0.007070967133,0.02456831254
3.13,-0.005042456954,0.02491636613
3.14,-0.003004852005,0.02509900281
3.15,-0.0009714566801,0.02511709148
3.16,0.001044628337,0.02497255429
3.17,0.003030587894,0.02466833925
3.18,0.004973971099,0.02420838658
3.19,0.006862766492,0.02359758923
3.2,0.008685473236,0.02284174781
3.21,0.01043116793,0.0219475204
3.22,0.01208956672,0.02092236756
3.23,0.0136510823,0.01977449314
3.24,0.01510687563,0.01851278104
3.25,0.0164489021,0.01714672875
3.26,0.01766995179,0.01568637788
3.27,0.01876368399,0.01414224225
3.28,0.01972465542,0.01252523411
3.29,0.0205483425,0.01084658888
3.3,0.02123115732,0.009117788965
3.31,0.02177045746,0.007350487209
3.32,0.02216454965,0.005556430305
3.33,0.02241268734,0.003747382826
3.34,0.02251506233,0.001935052251
3.35,0.02247279059,0.0001310154574
3.36,0.02228789241,-0.001653352857
3.37,0.02196326714,-0.003406949436
3.38,0.0215026628,-0.005119008981
3.39,0.02091064074,-0.00677916757
3.4,0.02019253574,-0.008377522618
3.41,0.01935441173,-0.009904689065
3.42,0.01840301372,-0.01135185149
3.43,0.01734571607,-0.0127108119
3.44,0.01619046752,-0.01397403295
3.45,0.0149457335,-0.01513467644
3.46,0.01362043602,-0.01618663679
3.47,0.01222389151,-0.01712456958
3.48,0.01076574712,-0.01794391487
3.49,0.009255915901,-0.01864091524
3.5,0.00770451116,-0.01921262868
3.51,0.006121780567,-0.01965693615
3.52,0.004518040319,-0.01997254393
3.53,0.002903609803,-0.0201589808
3.54,0.001288747158,-0.02021659017
3.55,-0.0003164138939,-0.02014651722
3.56,-0.001901925568,-0.01995069132
3.57,-0.003458085535,-0.01963180375
3.58,-0.004975494107,-0.01919328105
3.59,-0.006445108758,-0.01863925419
3.6,-0.007858295703,-0.01797452379
3.61,-0.009206878247,-0.01720452168
3.62,-0.01048318165,-0.01633526905
3.63,-0.01168007431,-0.01537333162
3.64,-0.012791005,-0.01432577191
3.65,-0.01381003611,-0.01320009922
3.66,-0.01473187257,-0.01200421745
3.67,-0.01555188647,-0.01074637121
3.68,-0.01626613732,-0.009435090494
3.69,-0.01687138769,-0.008079134433
3.7,-0.0173651144,-0.006687434263
3.71,-0.01774551519,-0.005269036046
3.72,-0.01801151079,-0.003833043415
3.73,-0.01816274264,-0.002388560705
3.74,-0.01819956609,-0.0009446368154
3.75,-0.01812303943,0.0004897898583
3.76,-0.01793490865,0.001905945119
3.77,-0.01763758826,0.003295270961
3.78,-0.01723413816,0.00464947558
3.79,-0.01672823698,0.005960581116
3.8,-0.01612415183,0.007220968866
3.81,-0.01542670494,0.008423421733
3.82,-0.01464123724,0.009561163673
3.83,-0.01377356927,0.01062789596
3.84,-0.01282995965,0.01161783006
3.85,-0.01181706134,0.012525717
3.86,-0.01074187607,0.01334687302
3.87,-0.009611707211,0.01407720153
3.88,-0.008434111345,0.01471321111
3.89,-0.007216848919,0.01525202968
3.9,-0.005967834254,0.01569141463
3.91,-0.004695085223,0.01602975902
3.92,-0.003406672916,0.01626609383
3.93,-0.002110671606,0.01640008625
3.94,-0.0008151092983,0.0164320341
3.95,0.0004720808297,0.01636285651
3.96,0.001743107811,0.01619408087
3.97,0.002990368826,0.01592782629
3.98,0.004206493437,0.01556678351
3.99,0.005384385846,0.01511419175
4,0.00651726498,0.01457381233
4.01,0.007598702151,0.01394989952
4.02,0.008622656107,0.01324716869
4.03,0.009583505294,0.01247076204
4.04,0.01047607716,0.01162621216
4.05,0.01129567434,0.01071940362
4.06,0.01203809767,0.00975653291
4.07,0.01269966582,0.008744066925
4.08,0.01327723152,0.007688700359
4.09,0.01376819442,0.006597312187
4.1,0.01417051032,0.005476921572
4.11,0.01448269701,0.004334643463
4.12,0.0147038365,0.003177644144
4.13,0.01483357388,0.002013097024
4.14,0.01487211268,0.0008481389344
4.15,0.01482020689,-0.0003101728154
4.16,0.01467914977,-0.001454902359
4.17,0.01445075946,-0.002579275932
4.18,0.01413736158,-0.003676721028
4.19,0.01374176894,-0.004740903843
4.2,0.01326725856,-0.005765764781
4.21,0.01271754615,-0.006745551853
4.22,0.01209675818,-0.00767485176
4.23,0.01140940189,-0.008548618524
4.24,0.01066033329,-0.009362199515
4.25,0.009854723481,-0.01011135874
4.26,0.008998023501,-0.01079229729
4.27,0.008095927884,-0.01140167087
4.28,0.00715433724,-0.01193660434
4.29,0.006179320072,-0.01239470317
4.3,0.005177074057,-0.01277406187
4.31,0.004153887075,-0.0130732693
4.32,0.00311609819,-0.0132914109
4.33,0.00207005886,-0.01342806793
4.34,0.001022094581,-0.01348331363
4.35,-2.153278325E-05,-0.01345770647
4.36,-0.001054661773,-0.01335228061
4.37,-0.002071266992,-0.01316853351
4.38,-0.003065493448,-0.01290841097
4.39,-0.004031689382,-0.01257428966
4.4,-0.004964437415,-0.01216895723
4.41,-0.005858583828,-0.0116955903
4.42,-0.006709265844,-0.01115773035
4.43,-0.007511936753,-0.01055925777
4.44,-0.00826238878,-0.009904364276
4.45,-0.008956773572,-0.009197523763
4.46,-0.009591620223,-0.008443461987
4.47,-0.01016385077,-0.007647125114
4.48,-0.01067079309,-0.006813647436
4.49,-0.01111019119,-0.00594831843
4.5,-0.01148021281,-0.005056549397
4.51,-0.01177945442,-0.004143839864
4.52,-0.01200694356,-0.003215743985
4.53,-0.01216213857,-0.002277837122
4.54,-0.01224492575,-0.00133568283
4.55,-0.01225561403,-0.0003948004178
4.56,-0.01219492724,0.0005393667061
4.57,-0.01206399397,0.001461481744
4.58,-0.01186433529,0.00236634409
4.59,-0.0115978503,0.003248917636
4.6,-0.01126679964,0.004104357637
4.61,-0.01087378726,0.004928036023
4.62,-0.01042174039,0.005715565012
4.63,-0.009913887963,0.006462818923
4.64,-0.009353737637,0.0071659541
4.65,-0.008745051621,0.00782142684
4.66,-0.00809182138,0.00842600929
4.67,-0.007398241472,0.008976803224
4.68,-0.006668682659,0.009471251682
4.69,-0.005907664465,0.009907148441
4.7,-0.005119827368,0.0102826453
4.71,-0.004309904782,0.01059625717
4.72,-0.003482695014,0.01084686505
4.73,-0.002643033346,0.01103371677
4.74,-0.001795764419,0.01115642577
4.75,-0.0009457150542,0.01121496768
4.76,-9.766768459E-05,0.01120967506
4.77,0.000743665489,0.01114123016
4.78,0.001573667464,0.01101065586
4.79,0.00238784041,0.01081930491
4.8,0.003181828536,0.01056884753
4.81,0.003951439743,0.01026125747
4.82,0.004692665967,0.009898796714
4.83,0.005401702135,0.009483998853
4.84,0.00607496365,0.009019651308
4.85,0.006709102358,0.008508776532
4.86,0.007301020922,0.007954612298
4.87,0.007847885593,0.007360591213
4.88,0.008347137319,0.006730319585
4.89,0.008796501189,0.006067555793
4.9,0.009193994205,0.005376188256
4.91,0.009537931372,0.004660213162
4.92,0.009826930118,0.003923712067
4.93,0.01005991308,0.003170829479
4.94,0.01023610926,0.002405750559
4.95,0.0103550536,0.001632679046
4.96,0.01041658505,0.0008558155103
4.97,0.01042084306,7.933604064E-05
4.98,0.01036826279,-0.0006926285398
4.99,0.01025956878,-0.001456012838
5,0.01009576749,-0.002206836354
5.01,0.009878138449,-0.002941222169
5.02,0.009608224394,-0.003655414782
5.03,0.009287820238,-0.004345797044
5.04,0.008918961089,-0.005008906122
5.05,0.008503909343,-0.005641448457
5.06,0.008045140958,-0.006240313668
5.07,0.007545330973,-0.006802587368
5.08,0.007007338375,-0.007325562864
5.09,0.006434190387,-0.007806751728
5.1,0.005829066257,-0.008243893205
5.11,0.005195280643,-0.00863496247
5.12,0.004536266649,-0.008978177712
5.13,0.003855558621,-0.00927200606
5.14,0.003156774742,-0.009515168338
5.15,0.002443599536,-0.009706642679
5.16,0.00171976631,-0.009845666997
5.17,0.0009890396406,-0.009931740336
5.18,0.0002551979374,-0.009964623124
5.19,-0.0004779838385,-0.009944336339
5.2,-0.00120675125,-0.00987115963
5.21,-0.001927387196,-0.009745628404
5.22,-0.002636228412,-0.009568529915
5.23,-0.003329681603,-0.009340898392
5.24,-0.004004239173,-0.009064009212
5.25,-0.004656494495,-0.008739372189
5.26,-0.005283156688,-0.008368723969
5.27,-0.00588106486,-0.007954019603
5.28,-0.006447201782,-0.0074974233
5.29,-0.006978706944,-0.007001298423
5.3,-0.007472888977,-0.006468196732
5.31,-0.007927237399,-0.005900846943
5.32,-0.008339433653,-0.00530214261
5.33,-0.008707361404,-0.004675129381
5.34,-0.009029116074,-0.00402299166
5.35,-0.009303013579,-0.003349038721
5.36,-0.00952759824,-0.002656690288
5.37,-0.009701649847,-0.001949461659
5.38,-0.009824189836,-0.001230948373
5.39,-0.009894486573,-0.000504810492
5.4,-0.009912059695,0.000225243476
5.41,-0.009876683505,0.0009554729567
5.42,-0.009788389389,0.001682121956
5.43,-0.009647467219,0.002401435915
5.44,-0.009454465752,0.003109678732
5.45,-0.00921019197,0.003803149887
5.46,-0.008915709365,0.004478201625
5.47,-0.008572335151,0.00513125613
5.48,-0.008181636376,0.005758822635
5.49,-0.007745424937,0.0063575144
5.5,-0.007265751487,0.006924065499
5.51,-0.006744898219,0.007455347342
5.52,-0.006185370539,0.007948384857
5.53,-0.005589887629,0.008400372274
5.54,-0.004961371898,0.008808688418
5.55,-0.004302937343,0.009170911446
5.56,-0.00361787684,0.00948483295
5.57,-0.002909648382,0.009748471338
5.58,-0.002181860288,0.009960084419
5.59,-0.001438255444,0.01011818112
5.6,-0.0006826945803,0.01022153223
5.61,8.086132506E-05,0.01026918014
5.62,0.0008483694964,0.01026044741
5.63,0.001615724578,0.01019494425
5.64,0.002378778557,0.01007257462
5.65,0.00313336132,0.009893541097
5.66,0.003875301751,0.009658348297
5.67,0.004600449282,0.009367804863
5.68,0.005304695806,0.009023023933
5.69,0.005983997843,0.008625422052
5.7,0.006634398847,0.008176716488
5.71,0.007252051549,0.007678920909
5.72,0.00783324021,0.0071343394
5.73,0.008374402656,0.006545558797
5.74,0.008872151981,0.005915439345
5.75,0.009323297767,0.005247103657
5.76,0.009724866712,0.004543924012
5.77,0.01007412251,0.003809507993
5.78,0.01036858486,0.003047682515
5.79,0.01060604747,0.002262476275
5.8,0.01078459492,0.001458100694
5.81,0.01090261821,0.0006389294027
5.82,0.01095882901,-0.0001905236323
5.83,0.01095227227,-0.001025627263
5.84,0.01088233728,-0.001861657485
5.85,0.0107487669,-0.002693822832
5.86,0.01055166499,-0.00351729069
5.87,0.0102915019,-0.004327214433
5.88,0.009969117877,-0.005118761199
5.89,0.009585724369,-0.005887140188
5.9,0.009142903204,-0.006627631287
5.91,0.008642603494,-0.007335613889
5.92,0.008087136305,-0.0080065957
5.93,0.00747916703,-0.00863624138
5.94,0.006821705477,-0.009220400811
5.95,0.006118093659,-0.009755136832
5.96,0.005371991329,-0.01023675222
5.97,0.00458735927,-0.01066181577
5.98,0.003768440422,-0.01102718724
5.99,0.002919738893,-0.01133004101
6,0.002045996946,-0.01156788824
