"Freq [GHz]","re(S(Tx_p1,Tx_p1)) []","im(S(Tx_p1,Tx_p1)) []"
1,0.09754114155,0.07293354862
1.01,0.1028948324,0.06446057519
1.02,0.1075152933,0.05559540172
1.03,0.1113738037,0.0464016423
1.04,0.114447205,0.03694500226
1.05,0.1167180493,0.027292787
1.06,0.1181747046,0.01751340079
1.07,0.1188114159,0.007675839494
1.08,0.1186283209,-0.00215081899
1.09,0.1176314223,-0.01189792243
1.1,0.1158325148,-0.02149774637
1.11,0.1132490704,-0.03088398673
1.12,0.1099040796,-0.03999223917
1.13,0.1058258539,-0.0487604616
1.14,0.101047788,-0.05712941642
1.15,0.09560808547,-0.06504308913
1.16,0.08954945014,-0.07244908028
1.17,0.08291874523,-0.07929896794
1.18,0.07576662343,-0.085548638
1.19,0.06814713075,-0.09115858011
1.2,0.06011728759,-0.09609414699
1.21,0.0517366501,-0.1003257757
1.22,0.04306685564,-0.103829169
1.23,0.03417115559,-0.106585436
1.24,0.02511393958,-0.1085811915
1.25,0.01596025446,-0.1098086129
1.26,0.006775322046,-0.1102654548
1.27,-0.002375940864,-0.1099550223
1.28,-0.01142939639,-0.1088861025
1.29,-0.0203221499,-0.1070728549
1.3,-0.02899300126,-0.1045346633
1.31,-0.03738287963,-0.1012959492
1.32,-0.04543525861,-0.0973859487
1.33,-0.05309654876,-0.09283845602
1.34,-0.06031646463,-0.08769153419
1.35,-0.06704836375,-0.08198719677
1.36,-0.07324955516,-0.07577106271
1.37,-0.0788815755,-0.06909198726
1.38,-0.08391043073,-0.06200167214
1.39,-0.08830680203,-0.05455425802
1.4,-0.09204621454,-0.04680590266
1.41,-0.09510916814,-0.03881434807
1.42,-0.09748122952,-0.03063848015
1.43,-0.09915308528,-0.02233788418
1.44,-0.100120556,-0.01397239972
1.45,-0.1003845717,-0.00560167827
1.46,-0.09995110884,0.002715252946
1.47,-0.09883109077,0.01092041772
1.48,-0.09704025127,0.018957305
1.49,-0.09459896413,0.02677126744
1.5,-0.0915320394,0.0343099013
1.51,-0.08786848884,0.04152340518
1.52,-0.08364126243,0.04836491494
1.53,-0.07888695843,0.05479081256
1.54,-0.07364550946,0.06076100685
1.55,-0.06795984734,0.06623918419
1.56,-0.06187554958,0.07119302771
1.57,-0.0554404703,0.07559440369
1.58,-0.04870435879,0.079419514
1.59,-0.04171846874,0.08264901396
1.6,-0.03453516122,0.08526809513
1.61,-0.02720750461,0.08726653276
1.62,-0.01978887467,0.08863869813
1.63,-0.01233255761,0.08938353598
1.64,-0.00489135951,0.08950450788
1.65,0.002482775281,0.08900950223
1.66,0.009739133756,0.08791071221
1.67,0.01682858924,0.08622448295
1.68,0.02370393924,0.08397112967
1.69,0.03032022371,0.08117472843
1.7,0.03663502165,0.07786288172
1.71,0.04260872399,0.07406646087
1.72,0.04820478099,0.06981932786
1.73,0.05338992271,0.06515803871
1.74,0.05813435107,0.06012153128
1.75,0.06241190271,0.05475080004
1.76,0.06620018156,0.04908856058
1.77,0.06948066081,0.04317890653
1.78,0.07223875377,0.03706696185
1.79,0.07446385377,0.03079853114
1.8,0.07614934316,0.02441975082
1.81,0.07729257191,0.01797674377
1.82,0.07789480646,0.0115152802
1.83,0.07796114983,0.005080447246
1.84,0.07750043394,-0.001283670358
1.85,0.07652508566,-0.00753429609
1.86,0.07505096793,-0.01363025188
1.87,0.07309719782,-0.01953223074
1.88,0.07068594322,-0.02520304996
1.89,0.06784220026,-0.0306078833
1.9,0.06459355354,-0.03571447066
1.91,0.06096992136,-0.04049330406
1.92,0.05700328824,-0.04491778891
1.93,0.05272742719,-0.04896437981
1.94,0.04817761397,-0.05261269021
1.95,0.04339033588,-0.0558455757
1.96,0.03840299741,-0.05864919077
1.97,0.03325362525,-0.06101301909
1.98,0.02798057487,-0.06292987767
1.99,0.02262224115,-0.06439589536
2,0.01721677505,-0.06541046656
2.01,0.01180180871,-0.06597618077
2.02,0.006414190724,-0.06609872938
2.03,0.001089733685,-0.06578679069
2.04,-0.004137024366,-0.06505189481
2.05,-0.009233042969,-0.06390826969
2.06,-0.01416698531,-0.06237267027
2.07,-0.01890940605,-0.06046419227
2.08,-0.02343291992,-0.0582040726
2.09,-0.02771234998,-0.05561547834
2.1,-0.03172485519,-0.05272328617
2.11,-0.03545003633,-0.04955385441
2.12,-0.03887002038,-0.04613478956
2.13,-0.04196952287,-0.0424947095
2.14,-0.04473588855,-0.03866300533
2.15,-0.04715911034,-0.03466960378
2.16,-0.04923182724,-0.03054473219
2.17,-0.05094930162,-0.02631868787
2.18,-0.05230937661,-0.02202161364
2.19,-0.05331241471,-0.01768328127
2.2,-0.05396121837,-0.0133328843
2.21,-0.05426093396,-0.008998841761
2.22,-0.05421894023,-0.004708614086
2.23,-0.05384472275,-0.0004885324216
2.24,-0.05314973579,0.003636357678
2.25,-0.05214725313,0.00764243726
2.26,-0.05085220943,0.01150763898
2.27,-0.0492810338,0.01521155555
2.28,-0.04745147727,0.01873553122
2.29,-0.04538243573,0.02206273609
2.3,-0.04309377005,0.02517822311
2.31,-0.04060612511,0.02806896795
2.32,-0.03794074919,0.03072389189
2.33,-0.03511931535,0.03313386818
2.34,-0.03216374634,0.03529171231
2.35,-0.02909604437,0.03719215693
2.36,-0.02593812702,0.03883181215
2.37,-0.02271167074,0.04020911215
2.38,-0.0194379628,0.041324249
2.39,-0.01613776279,0.04217909485
2.4,-0.01283117465,0.04277711365
2.41,-0.009537529862,0.04312326353
2.42,-0.006275282421,0.04322389121
2.43,-0.003061916192,0.04308661966
2.44,8.613511671E-05,0.04272023038
2.45,0.003153555077,0.04213454162
2.46,0.006126198705,0.04134028386
2.47,0.008991133708,0.04034897392
2.48,0.01173666898,0.03917278882
2.49,0.01435237069,0.0378244409
2.5,0.01682906629,0.03631705503
2.51,0.01915883706,0.03466404941
2.52,0.0213349998,0.03287902068
2.53,0.02335207832,0.03097563448
2.54,0.0252057656,0.02896752227
2.55,0.02689287749,0.02686818527
2.56,0.02841129881,0.02469090593
2.57,0.02975992294,0.02244866789
2.58,0.03093858587,0.02015408444
2.59,0.03194799564,0.01781933619
2.6,0.03278965853,0.01545611788
2.61,0.03346580268,0.01307559463
2.62,0.03397930051,0.01068836746
2.63,0.03433359075,0.008304448145
2.64,0.03453260124,0.005933242968
2.65,0.0345806733,0.003583545202
2.66,0.03448248869,0.001263535838
2.67,0.03424299992,-0.001019207961
2.68,0.03386736471,-0.00325769725
2.69,0.03336088528,-0.005445509215
2.7,0.03272895308,-0.007576759322
2.71,0.03197699943,-0.009646068503
2.72,0.03111045251,-0.01164852617
2.73,0.03013470112,-0.01357964996
2.74,0.02905506519,-0.015435343
2.75,0.02787677342,-0.01721184972
2.76,0.02660494787,-0.01890571093
2.77,0.02524459553,-0.02051371918
2.78,0.02380060663,-0.02203287516
2.79,0.02227775947,-0.02346034599
2.8,0.02068073128,-0.02479342626
2.81,0.01901411488,-0.02602950231
2.82,0.01728244033,-0.02716602077
2.83,0.0154902012,-0.0282004616
2.84,0.01364188475,-0.0291303164
2.85,0.01174200517,-0.02995307233
2.86,0.009795139249,-0.03066620198
2.87,0.00780596373,-0.03126715957
2.88,0.005779293309,-0.03175338346
2.89,0.003720118663,-0.03212230523
2.9,0.001633643548,-0.03237136518
2.91,-0.0004746798334,-0.03249803422
2.92,-0.002599118023,-0.03249984188
2.93,-0.004733626835,-0.03237441009
2.94,-0.006871825984,-0.03211949249
2.95,-0.009006978523,-0.03173301852
2.96,-0.01113197573,-0.03121314209
2.97,-0.01323932802,-0.03055829376
2.98,-0.01532116246,-0.02976723608
2.99,-0.01736922722,-0.02883912115
3,-0.01937490336,-0.0277735496
3.01,-0.02132922428,-0.02657063014
3.02,-0.02322290283,-0.02523103885
3.03,-0.02504636629,-0.02375607715
3.04,-0.02678979912,-0.0221477277
3.05,-0.02844319338,-0.02040870722
3.06,-0.02999640645,-0.01854251526
3.07,-0.03143922591,-0.01655347818
3.08,-0.03276144096,-0.01444678737
3.09,-0.03395291992,-0.01222853089
3.1,-0.03500369321,-0.009905717862
3.11,-0.03590404099,-0.007486294811
3.12,-0.03664458477,-0.004979153416
3.13,-0.03721638207,-0.002394129058
3.14,-0.03761102322,0.0002580102514
3.15,-0.03782072926,0.002965584943
3.16,-0.03783845002,0.005716035217
3.17,-0.03765796119,0.008495962781
3.18,-0.03727395938,0.01129118305
3.19,-0.03668215401,0.01408678775
3.2,-0.03587935495,0.01686721768
3.21,-0.03486355482,0.01961634551
3.22,-0.03363400488,0.02231756791
3.23,-0.03219128341,0.02495390685
3.24,-0.0305373557,0.02750811907
3.25,-0.02867562463,0.02996281335
3.26,-0.02661097094,0.03230057437
3.27,-0.02434978249,0.03450409257
3.28,-0.02189997176,0.03655629873
3.29,-0.01927098096,0.03844050238
3.3,-0.01647377425,0.04014053264
3.31,-0.01352081671,0.0416408806
3.32,-0.01042603974,0.04292684156
3.33,-0.007204792778,0.04398465622
3.34,-0.003873781281,0.04480164918
3.35,-0.0004509910581,0.0453663636
3.36,0.003044400764,0.04566869061
3.37,0.006592127809,0.04569999207
3.38,0.01017094904,0.04545321556
3.39,0.01375877527,0.04492300011
3.4,0.01733280676,0.04410577167
3.41,0.02086968115,0.042999827
3.42,0.02434563064,0.04160540502
3.43,0.02773664734,0.03992474462
3.44,0.03101865559,0.03796212804
3.45,0.03416769002,0.03572390895
3.46,0.03716007782,0.03321852479
3.47,0.03997262399,0.03045649262
3.48,0.04258279788,0.02745038825
3.49,0.04496891957,0.02421480823
3.5,0.04711034449,0.02076631482
3.51,0.04898764468,0.01712336369
3.52,0.05058278504,0.01330621481
3.53,0.0518792931,0.009336826699
3.54,0.05286242054,0.005238734562
3.55,0.05351929516,0.001036913008
3.56,0.05383906159,-0.003242375934
3.57,0.05381300951,-0.007571748518
3.58,0.0534346879,-0.01192287768
3.59,0.0527000042,-0.01626668288
3.6,0.05160730715,-0.02057353017
3.61,0.05015745232,-0.02481344093
3.62,0.04835384947,-0.02895630786
3.63,0.04620249093,-0.03297211654
3.64,0.04371196042,-0.0368311709
3.65,0.04089342186,-0.04050432083
3.66,0.03776058785,-0.04396319014
3.67,0.03432966772,-0.04718040298
3.68,0.03061929516,-0.05012980695
3.69,0.02665043563,-0.05278669092
3.7,0.02244627403,-0.05512799588
3.71,0.01803208301,-0.05713251681
3.72,0.01343507276,-0.05878109388
3.73,0.008684223165,-0.06005679137
3.74,0.003810099317,-0.06094506241
3.75,-0.001155348414,-0.06143389832
3.76,-0.006178998367,-0.06151396074
3.77,-0.01122678419,-0.06117869557
3.78,-0.01626393247,-0.06042442728
3.79,-0.02125520958,-0.05925043263
3.8,-0.02616517611,-0.05765899288
3.81,-0.03095844679,-0.05565542378
3.82,-0.035599954,-0.05324808271
3.83,-0.04005521294,-0.05044835265
3.84,-0.04429058618,-0.04727060268
3.85,-0.04827354573,-0.04373212511
3.86,-0.0519729303,-0.0398530493
3.87,-0.0553591959,-0.03565623256
3.88,-0.05840465749,-0.03116712869
3.89,-0.06108371981,-0.0264136349
3.9,-0.06337309543,-0.02142591801
3.91,-0.06525200806,-0.01623622098
3.92,-0.0667023794,-0.01087865117
3.93,-0.06770899791,-0.005388951527
3.94,-0.06825966787,0.0001957434193
3.95,-0.06834533731,0.005837165345
3.96,-0.06796020374,0.01149618163
3.97,-0.06710179634,0.01713307473
3.98,-0.06577103391,0.02270782928
3.99,-0.06397225773,0.02818042485
4,-0.06171323885,0.03351113216
4.01,-0.05900515946,0.03866081033
4.02,-0.05586256816,0.04359120312
4.03,-0.05230330929,0.04826523165
4.04,-0.04834842653,0.05264728134
4.05,-0.04402204121,0.05670348093
4.06,-0.03935120614,0.06040197111
4.07,-0.0343657357,0.06371316075
4.08,-0.02909801343,0.06660996858
4.09,-0.02358277821,0.06906804831
4.1,-0.01785689061,0.07106599528
4.11,-0.01195908096,0.07258553294
4.12,-0.005929680963,0.07361167741
4.13,0.0001896592806,0.07413287882
4.14,0.006356266802,0.07414113802
4.15,0.0125267516,0.07363209757
4.16,0.01865732062,0.07260510611
4.17,0.02470409746,0.07106325541
4.18,0.03062344542,0.06901338954
4.19,0.03637229154,0.06646608586
4.2,0.04190844891,0.06343560783
4.21,0.04719093509,0.05993982972
4.22,0.05218028386,0.05600013354
4.23,0.05683884811,0.05164127886
4.24,0.06113109135,0.04689124629
4.25,0.06502386557,0.04178105552
4.26,0.0684866732,0.03634455932
4.27,0.07149191114,0.03061821472
4.28,0.07401509477,0.02464083307
4.29,0.0760350602,0.0184533107
4.3,0.07753414293,0.01209834212
4.31,0.07849833159,0.005620117848
4.32,0.07891739529,-0.0009359910127
4.33,0.07878498346,-0.007523758998
4.34,0.0780986974,-0.014096441
4.35,0.07686013254,-0.02060711294
4.36,0.07507489126,-0.02700901584
4.37,0.0727525657,-0.0332559007
4.38,0.06990669072,-0.03930237159
4.39,0.06655466713,-0.04510422431
4.4,0.06271765561,-0.05061877805
4.41,0.05842044196,-0.05580519747
4.42,0.05369127462,-0.06062480273
4.43,0.04856167548,-0.06504136508
4.44,0.04306622527,-0.06902138564
4.45,0.03724232515,-0.07253435525
4.46,0.03112993606,-0.07555299327
4.47,0.02477129774,-0.07805346348
4.48,0.01821062953,-0.08001556531
4.49,0.011493815,-0.08142289887
4.5,0.004668072823,-0.0822630024
4.51,-0.002218383663,-0.08252746103
4.52,-0.009116695822,-0.08221198585
4.53,-0.01597771524,-0.0813164626
4.54,-0.02275236284,-0.07984496963
4.55,-0.02939198888,-0.07780576456
4.56,-0.03584873115,-0.07521124001
4.57,-0.04207586855,-0.07207784837
4.58,-0.04802816751,-0.06842599611
4.59,-0.05366221859,-0.06427990847
4.6,-0.0589367606,-0.05966746524
4.61,-0.06381298987,-0.05462000894
4.62,-0.06825485229,-0.04917212674
4.63,-0.07222931576,-0.04336140754
4.64,-0.07570662113,-0.03722817621
4.65,-0.07866050956,-0.03081520667
4.66,-0.08106842454,-0.02416741616
4.67,-0.08291168707,-0.01733154272
4.68,-0.08417564251,-0.01035580837
4.69,-0.08484977806,-0.003289570554
4.7,-0.08492780981,0.0038170357
4.71,-0.08440773872,0.0109134622
4.72,-0.083291875,0.0179491158
4.73,-0.08158683071,0.02487372775
4.74,-0.07930348052,0.03163772134
4.75,-0.07645689087,0.03819257515
4.76,-0.07306621807,0.04449117915
4.77,-0.069154576,0.05048818093
4.78,-0.06474887437,0.05614031955
4.79,-0.0598796287,0.06140674447
4.8,-0.05458074347,0.06624931708
4.81,-0.04888926991,0.07063289266
4.82,-0.04284514033,0.07452558059
4.83,-0.03649088088,0.07789898086
4.84,-0.02987130491,0.08072839513
4.85,-0.02303318913,0.08299301063
4.86,-0.0160249351,0.0846760557
4.87,-0.008896218407,0.0857649256
4.88,-0.001697628254,0.08625127774
4.89,0.005519699869,0.08613109565
4.9,0.01270445577,0.08540472107
4.91,0.01980552756,0.08407685403
4.92,0.02677237333,0.0821565209
4.93,0.03355538874,0.07965701053
4.94,0.04010626778,0.07659577917
4.95,0.04637835397,0.07299432468
4.96,0.05232697957,0.06887803102
4.97,0.05790978997,0.06427598432
4.98,0.06308705122,0.05922076171
4.99,0.06782193812,0.05374819462
5,0.07208080096,0.04789710826
5.01,0.07583340874,0.04170903928
5.02,0.07905316735,0.03522793364
5.03,0.08171731079,0.02849982709
5.04,0.08380706436,0.0215725104
5.05,0.08530777835,0.01449518218
5.06,0.08620903153,0.007318091459
5.07,0.08650470346,9.217311829E-05
5.08,0.08619301533,-0.007131321494
5.09,0.08527653896,-0.01430119577
5.1,0.08376217398,-0.02136667827
5.11,0.08166109333,-0.0282777895
5.12,0.07898865765,-0.03498570255
5.13,0.07576429916,-0.04144309462
5.14,0.07201137598,-0.0476044872
5.15,0.06775699799,-0.05342657212
5.16,0.06303182555,-0.05886852129
5.17,0.05786984274,-0.06389227777
5.18,0.05230810666,-0.0684628261
5.19,0.04638647484,-0.07254843989
5.2,0.04014731277,-0.07612090504
5.21,0.03363518369,-0.07915571676
5.22,0.02689652313,-0.08163224925
5.23,0.01997930036,-0.08353389669
5.24,0.01293266963,-0.08484818463
5.25,0.005806613493,-0.08556685107
5.26,-0.00134841904,-0.08568589665
5.27,-0.008481876747,-0.08520560369
5.28,-0.0155434703,-0.08413052409
5.29,-0.02248353349,-0.08246943616
5.3,-0.02925337889,-0.08023527089
5.31,-0.03580564545,-0.0774450082
5.32,-0.04209463538,-0.07411954416
5.33,-0.04807663805,-0.07028353009
5.34,-0.05371023837,-0.06596518497
5.35,-0.05895660761,-0.06119608246
5.36,-0.0637797745,-0.05601091435
5.37,-0.06814687473,-0.05044723216
5.38,-0.07202837706,-0.04454516883
5.39,-0.07539828455,-0.03834714276
5.4,-0.07823430943,-0.03189754619
5.41,-0.08051802053,-0.02524242059
5.42,-0.08223496218,-0.01842912116
5.43,-0.08337474399,-0.01150597314
5.44,-0.08393110084,-0.004521922388
5.45,-0.08390192276,0.002473817095
5.46,-0.08328925476,0.009432116277
5.47,-0.08209926656,0.01630428209
5.48,-0.08034219266,0.02304240386
5.49,-0.07803224339,0.02959969263
5.5,-0.07518748753,0.03593081092
5.51,-0.07182970772,0.04199219061
5.52,-0.06798422964,0.04774233664
5.53,-0.06367972646,0.05314211437
5.54,-0.05894800008,0.0581550187
5.55,-0.05382374081,0.06274742288
5.56,-0.04834426739,0.06688880555
5.57,-0.04254924939,0.07055195422
5.58,-0.03648041401,0.07371314402
5.59,-0.03018123951,0.0763522905
5.6,-0.02369663767,0.07845307542
5.61,-0.01707262751,0.08000304493
5.62,-0.01035600273,0.08099367936
5.63,-0.00359399541,0.08142043456
5.64,0.003166061741,0.08128275435
5.65,0.009877071958,0.08058405434
5.66,0.0164925075,0.07933167742
5.67,0.02296673678,0.07753682124
5.68,0.02925534329,0.07521443855
5.69,0.03531543392,0.07238311125
5.7,0.04110593465,0.06906489904
5.71,0.04658787154,0.0652851643
5.72,0.05172463492,0.06107237416
5.73,0.05648222521,0.0564578817
5.74,0.06082947855,0.05147568783
5.75,0.06473827077,0.0461621857
5.76,0.06818369845,0.04055588964
5.77,0.07114423582,0.03469715064
5.78,0.07360186659,0.0286278606
5.79,0.07554218989,0.02239114744
5.8,0.07695449978,0.01603106342
5.81,0.07783183795,0.009592268947
5.82,0.07817101933,0.003119714102
5.83,0.07797263073,-0.003341679691
5.84,0.07724100266,-0.00974733565
5.85,0.07598415469,-0.01605333299
5.86,0.0742137151,-0.02221671146
5.87,0.07194481532,-0.02819576688
5.88,0.06919596038,-0.03395033575
5.89,0.06598887628,-0.03944206676
5.9,0.06234833574,-0.04463467762
5.91,0.05830196349,-0.0494941952
5.92,0.05388002294,-0.0539891777
5.93,0.04911518572,-0.05809091711
5.94,0.0440422859,-0.06177362085
5.95,0.03869806085,-0.06501457144
5.96,0.03312088059,-0.06779426314
5.97,0.02735046779,-0.07009651495
5.98,0.02142761032,-0.07190855913
5.99,0.0153938687,-0.07322110503
6,0.009291280332,-0.0740283779
