"Freq [GHz]","re(S(Tx_p1,Tx_p1)) []","im(S(Tx_p1,Tx_p1)) []"
1,0.08594722918,0.06087339173
1.01,0.09035684216,0.05338192769
1.02,0.09411576565,0.04557307203
1.03,0.09720130121,0.03750349866
1.04,0.09959572523,0.02923148051
1.05,0.1012863972,0.02081644846
1.06,0.1022658287,0.01231854363
1.07,0.1025317119,0.003798166597
1.08,0.1020869098,-0.004684473028
1.09,0.1009394052,-0.01306980306
1.1,0.09910221237,-0.0212993278
1.11,0.09659324983,-0.02931605627
1.12,0.09343517714,-0.03706491644
1.13,0.08965519612,-0.04449315215
1.14,0.08528481886,-0.05155069992
1.15,0.08035960432,-0.05819054266
1.16,0.07491886595,-0.06436903783
1.17,0.06900535259,-0.07004621756
1.18,0.06266490558,-0.07518605862
1.19,0.05594609468,-0.0797567204
1.2,0.04889983602,-0.0837307492
1.21,0.04157899501,-0.08708524753
1.22,0.03403797754,-0.08980200736
1.23,0.0263323127,-0.0918676066
1.24,0.01851823035,-0.09327346828
1.25,0.0106522369,-0.09401588234
1.26,0.002790692537,-0.09409599013
1.27,-0.005010606653,-0.09351973205
1.28,-0.01269683866,-0.0922977591
1.29,-0.0202145543,-0.09044530933
1.3,-0.02751206189,-0.08798205039
1.31,-0.0345397948,-0.08493188987
1.32,-0.0412506594,-0.08132275506
1.33,-0.04760036062,-0.07718634421
1.34,-0.05354770299,-0.07255785153
1.35,-0.059054865,-0.06747566823
1.36,-0.06408764479,-0.06198106228
1.37,-0.0686156757,-0.05611783956
1.38,-0.07261261022,-0.04993198923
1.39,-0.07605627124,-0.04347131628
1.4,-0.07892876973,-0.03678506424
1.41,-0.0812165884,-0.02992353112
1.42,-0.08291063091,-0.02293768169
1.43,-0.08400623674,-0.01587875912
1.44,-0.08450316194,-0.008797899055
1.45,-0.08440552629,-0.001745749148
1.46,-0.08372172772,0.005227903092
1.47,-0.08246432498,0.01207449126
1.48,-0.08064988995,0.01874701716
1.49,-0.078298831,0.02520038145
1.5,-0.07543518927,0.03139169553
1.51,-0.07208640967,0.03728057235
1.52,-0.06828308888,0.04282939414
1.53,-0.06405870245,0.04800355532
1.54,-0.0594493136,0.05277167896
1.55,-0.0544932661,0.05710580536
1.56,-0.04923086392,0.06098155176
1.57,-0.04370404047,0.06437824227
1.58,-0.03795601993,0.06727900731
1.59,-0.03203097371,0.06967085235
1.6,-0.02597367466,0.07154469574
1.61,-0.0198291519,0.07289537581
1.62,-0.0136423489,0.07372162759
1.63,-0.007457787553,0.07402602986
1.64,-0.001319240744,0.07381492327
1.65,0.004730584034,0.07309830076
1.66,0.01065034775,0.07188967145
1.67,0.01640036736,0.07020589957
1.68,0.02194288569,0.06806702003
1.69,0.02724232191,0.06549603258
1.7,0.03226550085,0.06251867644
1.71,0.03698185965,0.05916318756
1.72,0.04136363051,0.0554600407
1.73,0.04538599851,0.0514416788
1.74,0.04902723355,0.04714223173
1.75,0.0522687959,0.04259722716
1.76,0.05509541495,0.03784329582
1.77,0.05749514091,0.03291787368
1.78,0.05945936967,0.02785890349
1.79,0.06098284099,0.02270453812
1.8,0.06206361058,0.017492848
1.81,0.06270299674,0.01226153505
1.82,0.06290550253,0.007047655116
1.83,0.06267871446,0.001887351272
1.84,0.06203317908,-0.003184400368
1.85,0.06098225884,-0.008134030262
1.86,0.05954196886,-0.01292959894
1.87,0.0577307962,-0.01754100285
1.88,0.05556950362,-0.02194016124
1.89,0.0530809196,-0.02610118291
1.9,0.05028971679,-0.03000051192
1.91,0.04722218077,-0.03361705145
1.92,0.04390597135,-0.03693226538
1.93,0.04036987852,-0.03993025697
1.94,0.03664357513,-0.04259782486
1.95,0.03275736852,-0.04492449606
1.96,0.02874195303,-0.04690253642
1.97,0.02462816558,-0.04852693891
1.98,0.02044674624,-0.04979539031
1.99,0.01622810556,-0.0507082171
2,0.01200210066,-0.05126831151
2.01,0.007797821563,-0.05148103878
2.02,0.003643389421,-0.05135412696
2.03,-0.0004342319721,-0.05089754041
2.04,-0.004409410129,-0.05012333874
2.05,-0.008258002156,-0.04904552255
2.06,-0.01195749642,-0.04767986764
2.07,-0.01548713685,-0.04604374951
2.08,-0.01882802916,-0.04415595983
2.09,-0.02196322873,-0.04203651662
2.1,-0.02487780969,-0.03970647011
2.11,-0.02755891522,-0.03718770586
2.12,-0.02999578917,-0.03450274712
2.13,-0.03217978912,-0.03167455804
2.14,-0.03410438144,-0.02872634956
2.15,-0.03576511876,-0.02568138945
2.16,-0.03715960069,-0.02256281818
2.17,-0.03828741852,-0.01939347211
2.18,-0.03915008491,-0.01619571517
2.19,-0.03975094972,-0.01299128055
2.2,-0.04009510297,-0.009801123295
2.21,-0.04018926643,-0.006645284945
2.22,-0.04004167506,-0.003542770984
2.23,-0.03966194964,-0.0005114419006
2.24,-0.03906096223,0.002432081639
2.25,-0.0382506958,0.005272499049
2.26,-0.0372440995,0.00799589525
2.27,-0.03605494127,0.01058979115
2.28,-0.03469765898,0.01304317918
2.29,-0.03318721188,0.0153465441
2.3,-0.03153893349,0.01749186933
2.31,-0.02976838753,0.01947262926
2.32,-0.02789122803,0.02128376817
2.33,-0.02592306491,0.02292166633
2.34,-0.02387933618,0.02438409424
2.35,-0.02177518777,0.02567015565
2.36,-0.01962536187,0.02678022065
2.37,-0.01744409474,0.02771584967
2.38,-0.01524502454,0.02847970952
2.39,-0.01304110985,0.02907548282
2.4,-0.01084455926,0.02950777177
2.41,-0.008666772454,0.02978199775
2.42,-0.006518292829,0.0299042978
2.43,-0.00440877187,0.0298814193
2.44,-0.002346945079,0.02972061419
2.45,-0.0003406193559,0.02942953367
2.46,0.001603328525,0.02901612481
2.47,0.003478942744,0.02848853008
2.48,0.005281169121,0.02785499075
2.49,0.007005826272,0.02712375536
2.5,0.008649567977,0.02630299396
2.51,0.01020983755,0.02540071902
2.52,0.01168481512,0.02442471372
2.53,0.01307335869,0.02338246824
2.54,0.01437494008,0.02228112446
2.55,0.01558957665,0.02112742965
2.56,0.01671775995,0.01992769919
2.57,0.01776038235,0.0186877887
2.58,0.0187186627,0.01741307544
2.59,0.01959407202,0.01610844909
2.6,0.02038826042,0.01477831155
2.61,0.0211029861,0.0134265856
2.62,0.02174004744,0.01205673198
2.63,0.02230121917,0.01067177439
2.64,0.02278819328,0.009274331798
2.65,0.02320252561,0.007866657481
2.66,0.02354558876,0.006450683918
2.67,0.02381853186,0.005028072836
2.68,0.02402224775,0.003600269481
2.69,0.02415734798,0.002168560203
2.7,0.02422414595,0.0007341324185
2.71,0.0242226483,-0.0007018640453
2.72,0.02415255471,-0.002138255198
2.73,0.02401326608,-0.00357378173
2.74,0.0238039009,-0.005007039427
2.75,0.02352331961,-0.006436422115
2.76,0.02317015666,-0.007860068069
2.77,0.02274285971,-0.009275810765
2.78,0.02223973547,-0.0106811348
2.79,0.02165900163,-0.01207313778
2.8,0.0209988441,-0.0134484988
2.81,0.0202574787,-0.01480345421
2.82,0.01943321669,-0.01613378116
2.83,0.01852453294,-0.01743478937
2.84,0.01753013604,-0.01870132138
2.85,0.0164490392,-0.01992776165
2.86,0.01528063104,-0.02110805453
2.87,0.01402474521,-0.02223573111
2.88,0.01268172777,-0.02330394495
2.89,0.01125250148,-0.02430551632
2.9,0.009738625788,-0.02523298483
2.91,0.008142351757,-0.02607866982
2.92,0.006466670961,-0.02683473818
2.93,0.00471535744,-0.02749327882
2.94,0.002893002014,-0.02804638319
2.95,0.001005038189,-0.02848623094
2.96,-0.0009422409538,-0.02880517999
2.97,-0.002941675422,-0.02899585989
2.98,-0.004985240979,-0.0290512676
2.99,-0.007064062141,-0.0289648646
3,-0.009168435725,-0.0287306742
3.01,-0.01128786508,-0.02834337798
3.02,-0.01341110496,-0.02779841019
3.03,-0.01552621696,-0.02709204899
3.04,-0.01762063527,-0.02622150343
3.05,-0.01968124232,-0.02518499498
3.06,-0.02169445394,-0.02398183264
3.07,-0.02364631344,-0.02261248047
3.08,-0.02552259378,-0.02107861671
3.09,-0.02730890725,-0.01938318345
3.1,-0.02899082163,-0.0175304261
3.11,-0.03055398181,-0.01552592186
3.12,-0.03198423597,-0.01337659663
3.13,-0.03326776506,-0.01109072959
3.14,-0.03439121445,-0.008677945361
3.15,-0.03534182643,-0.006149193105
3.16,-0.03610757244,-0.003516712524
3.17,-0.03667728357,-0.0007939866712
3.18,-0.03704077808,0.002004318386
3.19,-0.03718898466,0.00486242687
3.2,-0.03711406005,0.007763539223
3.21,-0.03680949981,0.01068993024
3.22,-0.03627024095,0.01362305881
3.23,-0.03549275527,0.01654368855
3.24,-0.03447513224,0.0194320186
3.25,-0.03321715048,0.0222678235
3.26,-0.03172033665,0.02503060126
3.27,-0.02998801115,0.02769972835
3.28,-0.02802531967,0.03025462052
3.29,-0.02583925003,0.03267489804
3.3,-0.02343863381,0.03494055402
3.31,-0.02083413223,0.03703212438
3.32,-0.01803820624,0.03893085801
3.33,-0.01506507052,0.04061888563
3.34,-0.01193063148,0.04207938574
3.35,-0.008652409479,0.04329674623
3.36,-0.005249445461,0.04425672013
3.37,-0.001742192604,0.04494657392
3.38,0.001847606518,0.04535522704
3.39,0.005497056463,0.0454733812
3.4,0.009182258275,0.04529363799
3.41,0.01287847065,0.04481060383
3.42,0.01656028177,0.04402098078
3.43,0.02020179062,0.04292364234
3.44,0.02377679631,0.04151969326
3.45,0.02725899412,0.03981251245
3.46,0.03062217664,0.03780777837
3.47,0.03384043834,0.03551347632
3.48,0.03688838219,0.03293988725
3.49,0.03974132626,0.03009955775
3.5,0.04237550885,0.02700725124
3.51,0.04476829036,0.02367988031
3.52,0.04689835005,0.02013642055
3.53,0.04874587609,0.01639780611
3.54,0.05029274711,0.01248680768
3.55,0.05152270374,0.008427893552
3.56,0.05242150837,0.004247074491
3.57,0.05297709179,-2.826632244E-05
3.58,0.05317968518,-0.004369557365
3.59,0.05302193619,-0.008747235452
3.6,0.05249900788,-0.01313095365
3.61,0.05160865947,-0.01748979893
3.62,0.05035130788,-0.02179251784
3.63,0.04873006943,-0.02600774864
3.64,0.04675078087,-0.03010425801
3.65,0.0444219994,-0.03405118041
3.66,0.04175498137,-0.03781825843
3.67,0.03876363939,-0.04137608191
3.68,0.0354644781,-0.04469632416
3.69,0.03187650866,-0.04775197313
3.7,0.02802114237,-0.0505175557
3.71,0.02392206414,-0.05296935319
3.72,0.01960508634,-0.05508560627
3.73,0.01509798412,-0.05684670739
3.74,0.01043031317,-0.05823537921
3.75,0.00563321123,-0.05923683718
3.76,0.000739184641,-0.05983893511
3.77,-0.004218118436,-0.060032292
3.78,-0.009204146602,-0.05981039918
3.79,-0.01418369378,-0.05916970654
3.8,-0.01912115594,-0.05810968695
3.81,-0.02398079399,-0.05663287812
3.82,-0.02872700091,-0.05474490132
3.83,-0.03332457101,-0.05245445649
3.84,-0.03773896919,-0.04977329364
3.85,-0.04193659817,-0.04671616039
3.86,-0.04588506148,-0.04330072591
3.87,-0.04955342011,-0.03954748151
3.88,-0.05291244079,-0.03547961851
3.89,-0.05593483382,-0.03112288409
3.9,-0.05859547848,-0.02650541604
3.91,-0.06087163419,-0.0216575574
3.92,-0.06274313559,-0.01661165244
3.93,-0.0641925698,-0.01140182525
3.94,-0.06520543446,-0.006063742502
3.95,-0.06577027503,-0.0006343622273
3.96,-0.06587880013,0.004848329738
3.97,-0.06552597379,0.01034559356
3.98,-0.06471008376,0.01581821746
3.99,-0.06343278515,0.02122680598
4,-0.06169911873,0.02653207209
4.01,-0.05951750366,0.0316951311
4.02,-0.05689970452,0.03667779399
4.03,-0.0538607726,0.0414428579
4.04,-0.05041896171,0.04595439157
4.05,-0.04659561903,0.05017801338
4.06,-0.04241505168,0.05408115991
4.07,-0.03790436975,0.05763334277
4.08,-0.03309330685,0.06080639165
4.09,-0.02801401955,0.06357468176
4.1,-0.02270086696,0.06591534352
4.11,-0.01719017199,0.06780845306
4.12,-0.01151996618,0.06923720178
4.13,-0.005729719758,0.07018804348
4.14,0.000139940964,0.07065081797
4.15,0.006047526834,0.07061884985
4.16,0.01195098753,0.07008902178
4.17,0.01780801939,0.06906182123
4.18,0.02357637714,0.06754136055
4.19,0.02921418704,0.06553536971
4.2,0.03468025916,0.06305516184
4.21,0.03993439641,0.06011557161
4.22,0.04493769781,0.05673486678
4.23,0.04965285378,0.05293463339
4.24,0.05404443116,0.04873963542
4.25,0.05807914562,0.04417764988
4.26,0.06172611945,0.03927927831
4.27,0.06495712255,0.03407773619
4.28,0.06774679495,0.02860862166
4.29,0.07007284874,0.02290966523
4.3,0.07191624811,0.01702046233
4.31,0.07326136585,0.01098219059
4.32,0.07409611501,0.004837314025
4.33,0.07441205479,-0.00137072376
4.34,0.07420446951,-0.007597815037
4.35,0.07347242017,-0.01379950972
4.36,0.07221876799,-0.01993134106
4.37,0.07045016965,-0.02594915271
4.38,0.06817704421,-0.03180942488
4.39,0.06541351186,-0.03746959691
4.4,0.06217730479,-0.0428883839
4.41,0.05848965087,-0.04802608503
4.42,0.05437513086,-0.05284488115
4.43,0.04986151014,-0.05730911931
4.44,0.04497954625,-0.06138558222
4.45,0.03976277347,-0.06504374039
4.46,0.03424726614,-0.06825598504
4.47,0.02847138236,-0.0709978401
4.48,0.02247549,-0.07324815142
4.49,0.01630167697,-0.07498925196
4.5,0.009993448029,-0.07620710145
4.51,0.003595410146,-0.07689139957
4.52,-0.002847050947,-0.07703567161
4.53,-0.009288100863,-0.07663732606
4.54,-0.01568179071,-0.07569768343
4.55,-0.02198239284,-0.0742219763
4.56,-0.02814473568,-0.07221932026
4.57,-0.03412453511,-0.06970265616
4.58,-0.03987871992,-0.06668866392
4.59,-0.04536574892,-0.06319764846
4.6,-0.05054591723,-0.05925339875
4.61,-0.05538164958,-0.05488302077
4.62,-0.0598377783,-0.0501167458
4.63,-0.06388180391,-0.04498771531
4.64,-0.06748413647,-0.03953174405
4.65,-0.07061831567,-0.03378706321
4.66,-0.07326120816,-0.02779404532
4.67,-0.0753931806,-0.0215949132
4.68,-0.076998247,-0.01523343485
4.69,-0.07806418949,-0.008754606801
4.7,-0.07858265128,-0.002204328084
4.71,-0.07854920138,0.004370932697
4.72,-0.07796337047,0.01092447465
4.73,-0.07682865766,0.01740970384
4.74,-0.07515250806,0.02378047183
4.75,-0.07294626138,0.02999141121
4.76,-0.07022507187,0.03599826538
4.77,-0.06700780033,0.0417582103
4.78,-0.0633168788,0.04723016582
4.79,-0.05917814911,0.05237509415
4.8,-0.05462067642,0.05715628344
4.81,-0.04967653914,0.06153961421
4.82,-0.04438059685,0.06549380679
4.83,-0.03877023788,0.06899064788
4.84,-0.03288510849,0.07200519459
4.85,-0.02676682563,0.07451595445
4.86,-0.02045867546,0.07650504013
4.87,-0.01400529985,0.07795829764
4.88,-0.007452373103,0.07886540727
4.89,-0.0008462715203,0.07921995632
4.9,0.005766262012,0.07901948338
4.91,0.01233845573,0.07826549358
4.92,0.01882384659,0.07696344504
4.93,0.02517661529,0.0751227064
4.94,0.03135191613,0.07275648591
4.95,0.03730619947,0.06988173269
4.96,0.04299752428,0.06651901084
4.97,0.04838585851,0.06269234735
4.98,0.05343336521,0.05842905515
4.99,0.05810467216,0.05375953242
5,0.06236712324,0.04871703988
5.01,0.06619100953,0.04333745757
5.02,0.06954977865,0.03765902311
5.03,0.07242022082,0.0317220533
5.04,0.07478263022,0.02556865111
5.05,0.07662094068,0.01924240036
5.06,0.07792283467,0.01278805029
5.07,0.07867982486,0.006251192323
5.08,0.07888730779,-0.0003220685529
5.09,0.07854458927,-0.006885445326
5.1,0.0776548814,-0.01339280108
5.11,0.07622527137,-0.01979847921
5.12,0.07426666225,-0.02605762929
5.13,0.07179368645,-0.03212652636
5.14,0.06882459233,-0.03796288113
5.15,0.06538110511,-0.04352613903
5.16,0.06148826303,-0.04877776589
5.17,0.05717423003,-0.05368151818
5.18,0.0524700865,-0.058203696
5.19,0.04740959962,-0.06231337687
5.2,0.04202897501,-0.06598262892
5.21,0.03636659163,-0.06918670167
5.22,0.0304627219,-0.07190419351
5.23,0.02435923908,-0.07411719433
5.24,0.01809931415,-0.07581140269
5.25,0.01172710442,-0.07697621654
5.26,0.005287436086,-0.07760479715
5.27,-0.001174516839,-0.07769410563
5.28,-0.007613554903,-0.07724491218
5.29,-0.01398477462,-0.07626177789
5.3,-0.0202438865,-0.07475300941
5.31,-0.02634752747,-0.07273058698
5.32,-0.03225356541,-0.07021006641
5.33,-0.03792139368,-0.06721045583
5.34,-0.04331221352,-0.06375406822
5.35,-0.04838930229,-0.05986635091
5.36,-0.05311826587,-0.05557569341
5.37,-0.05746727318,-0.05091321495
5.38,-0.06140727149,-0.04591253353
5.39,-0.06491218087,-0.04060951809
5.4,-0.0679590666,-0.03504202571
5.41,-0.07052828833,-0.02924962586
5.42,-0.07260362504,-0.02327331369
5.43,-0.07417237515,-0.01715521449
5.44,-0.07522543094,-0.01093828149
5.45,-0.07575732716,-0.004665989277
5.46,-0.07576626339,0.001617975086
5.47,-0.07525410028,0.00787002087
5.48,-0.07422632979,0.01404696029
5.49,-0.07269201973,0.02010631069
5.5,-0.07066373323,0.02600659018
5.51,-0.06815742384,0.03170760459
5.52,-0.0651923071,0.03717072387
5.53,-0.0617907097,0.04235914585
5.54,-0.05797789736,0.04723814566
5.55,-0.05378188291,0.05177530908
5.56,-0.04923321593,0.05594074824
5.57,-0.04436475562,0.05970729826
5.58,-0.03921142868,0.06305069351
5.59,-0.03380997391,0.06594972241
5.6,-0.0281986755,0.06838635975
5.61,-0.02241708699,0.07034587574
5.62,-0.01650574788,0.07181692121
5.63,-0.01050589502,0.07279158843
5.64,-0.004459170742,0.07326544735
5.65,0.001592669971,0.07323755712
5.66,0.007608051402,0.072710453
5.67,0.0135458659,0.07169010888
5.68,0.01936575759,0.07018587589
5.69,0.025028399,0.06821039768
5.7,0.0304957587,0.06577950311
5.71,0.03573135814,0.06291207729
5.72,0.04070051586,0.05962991209
5.73,0.04537057763,0.05595753715
5.74,0.0497111307,0.05192203296
5.75,0.05369420108,0.0475528273
5.76,0.05729443233,0.04288147658
5.77,0.06048924489,0.03794143393
5.78,0.06325897486,0.03276780548
5.79,0.06558699159,0.02739709694
5.8,0.0674597931,0.0218669521
5.81,0.06886707921,0.01621588526
5.82,0.06980180168,0.01048300955
5.83,0.07026019149,0.004707762965
5.84,0.07024176303,-0.001070365831
5.85,0.06974929543,-0.006812110064
5.86,0.06878879138,-0.01247869386
5.87,0.06736941389,-0.01803209585
5.88,0.06550340153,-0.02343530558
5.89,0.06320596307,-0.02865257097
5.9,0.06049515229,-0.03364963516
5.91,0.05739172404,-0.03839396124
5.92,0.05391897278,-0.04285494331
5.93,0.05010255478,-0.04700410253
5.94,0.04597029542,-0.05081526703
5.95,0.04155198299,-0.05426473439
5.96,0.03687915062,-0.05733141582
5.97,0.03198484796,-0.0599969612
5.98,0.02690340417,-0.06224586424
5.99,0.02167018412,-0.06406554719
6,0.01632133938,-0.06544642474
