"Freq [GHz]","re(S(Tx_p1,Tx_p1)) []","im(S(Tx_p1,Tx_p1)) []"
1,0.09339529628,0.07463482379
1.01,0.0990026756,0.06656583122
1.02,0.1039160179,0.05807350248
1.03,0.1081031005,0.04921764314
1.04,0.1115368912,0.04006052632
1.05,0.1141957361,0.0306664379
1.06,0.1160635084,0.0211012077
1.07,0.1171297148,0.01143172994
1.08,0.1173895609,0.001725476969
1.09,0.1168439741,-0.007949990395
1.1,0.1154995835,-0.01752751195
1.11,0.1133686589,-0.02694081315
1.12,0.1104690071,-0.03612498234
1.13,0.1068238284,-0.04501693665
1.14,0.1024615337,-0.05355587313
1.15,0.09741552263,-0.06168370176
1.16,0.09172392725,-0.0693454571
1.17,0.08542932021,-0.07648968565
1.18,0.07857839193,-0.08306880603
1.19,0.07122159826,-0.08903943938
1.2,0.06341278171,-0.0943627077
1.21,0.05520876909,-0.09900449793
1.22,0.04666894874,-0.1029356898
1.23,0.03785483045,-0.1061323465
1.24,0.02882959165,-0.1085758656
1.25,0.01965761308,-0.1102530909
1.26,0.01040400768,-0.1111563834
1.27,0.001134146085,-0.1112836513
1.28,-0.008086817671,-0.1106383389
1.29,-0.0171944166,-0.1092293755
1.3,-0.02612533398,-0.1070710831
1.31,-0.0348178559,-0.104183046
1.32,-0.04321230972,-0.1005899414
1.33,-0.05125148533,-0.09632133425
1.34,-0.05888103614,-0.09141143621
1.35,-0.06604985681,-0.08589883263
1.36,-0.0727104352,-0.07982617828
1.37,-0.07881917583,-0.07323986497
1.38,-0.08433669287,-0.0661896636
1.39,-0.08922807028,-0.05872834327
1.4,-0.09346308771,-0.05091127064
1.41,-0.09701641046,-0.04279599256
1.42,-0.09986774227,-0.03444180514
1.43,-0.1020019402,-0.02590931263
1.44,-0.1034090907,-0.01725997943
1.45,-0.1040845471,-0.00855567862
1.46,-0.1040289273,0.0001417595599
1.47,-0.1032480738,0.00877099598
1.48,-0.1017529746,0.01727162424
1.49,-0.09955964699,0.02558460245
1.5,-0.09668898573,0.0336526719
1.51,-0.09316657539,0.04142075978
1.52,-0.08902247015,0.04883636282
1.53,-0.08429094211,0.05584990928
1.54,-0.07901020029,0.06241509667
1.55,-0.0732220828,0.06848920291
1.56,-0.06697172453,0.07403336863
1.57,-0.06030720314,0.07901284904
1.58,-0.05327916605,0.08339723331
1.59,-0.0459404415,0.08716063041
1.6,-0.03834563649,0.09028182006
1.61,-0.03055072502,0.09274436809
1.62,-0.0226126295,0.09453670547
1.63,-0.01458879865,0.09565217083
1.64,-0.006536785114,0.09608901647
1.65,0.001486174168,0.09585037791
1.66,0.009423571598,0.09494420783
1.67,0.01722003359,0.0933831749
1.68,0.02482171329,0.09118452872
1.69,0.03217666853,0.08836993214
1.7,0.03923522225,0.08496526251
1.71,0.04595030297,0.08100038355
1.72,0.05227776276,0.07650888996
1.73,0.05817667073,0.07152782677
1.74,0.06360957987,0.06609738586
1.75,0.06854276561,0.06026058215
1.76,0.07294643457,0.05406291201
1.77,0.07679490212,0.04755199666
1.78,0.08006673787,0.04077721343
1.79,0.0827448781,0.03378931763
1.8,0.08481670483,0.02664005813
1.81,0.08627409114,0.01938178947
1.82,0.08711341275,0.01206708351
1.83,0.08733552607,0.004748343545
1.84,0.08694571344,-0.002522576272
1.85,0.08595359597,-0.009694743358
1.86,0.08437301527,-0.01671850828
1.87,0.08222188517,-0.02354585289
1.88,0.07952201481,-0.03013072246
1.89,0.07629890489,-0.03642933966
1.9,0.07258151872,-0.04240049799
1.91,0.06840203028,-0.04800583286
1.92,0.06379555126,-0.05321006842
1.93,0.05879983946,-0.05798123863
1.94,0.05345499099,-0.06229088106
1.95,0.0478031187,-0.06611420246
1.96,0.04188801953,-0.069430215
1.97,0.03575483327,-0.07222184263
1.98,0.02944969555,-0.07447599694
1.99,0.02301938775,-0.07618362255
2,0.01651098636,-0.07733971182
2.01,0.009971514671,-0.07794328928
2.02,0.003447599178,-0.0779973662
2.03,-0.003014866541,-0.07750886609
2.04,-0.009371048201,-0.07648852197
2.05,-0.01557748498,-0.07495074659
2.06,-0.02159238929,-0.07291347693
2.07,-0.02737593008,-0.07039799449
2.08,-0.03289049767,-0.06742872306
2.09,-0.03810094846,-0.06403300574
2.1,-0.04297482778,-0.06024086325
2.11,-0.04748256959,-0.05608473561
2.12,-0.05159767177,-0.05159920934
2.13,-0.05529684604,-0.04682073246
2.14,-0.05856014165,-0.04178731971
2.15,-0.06137104234,-0.03653825021
2.16,-0.06371653613,-0.03111376016
2.17,-0.06558715786,-0.02555473284
2.18,-0.06697700451,-0.0199023884
2.19,-0.06788372357,-0.01419797578
2.2,-0.06830847497,-0.008482469154
2.21,-0.06825586721,-0.002796270959
2.22,-0.06773386862,0.002821076036
2.23,-0.06675369471,0.008331165788
2.24,-0.06532967295,0.01369699308
2.25,-0.0634790863,0.01888320288
2.26,-0.06122199696,0.02385632328
2.27,-0.05858105214,0.02858498039
2.28,-0.05558127351,0.03304009404
2.29,-0.0522498323,0.03719505275
2.3,-0.04861581184,0.04102586731
2.31,-0.04470995985,0.04451130191
2.32,-0.0405644323,0.04763298215
2.33,-0.03621253109,0.05037547972
2.34,-0.03168843763,0.05272637319
2.35,-0.02702694451,0.05467628501
2.36,-0.02226318726,0.05621889487
2.37,-0.01743237844,0.05735092953
2.38,-0.01256954586,0.05807212983
2.39,-0.007709277139,0.05838519539
2.4,-0.002885472254,0.05829570788
2.41,0.001868893956,0.0578120338
2.42,0.006521997805,0.05694520797
2.43,0.01104337965,0.05570879886
2.44,0.01540414224,0.0541187573
2.45,0.01957713334,0.05219324994
2.46,0.02353711133,0.0499524791
2.47,0.02726089293,0.04741849066
2.48,0.0307274822,0.04461497175
2.49,0.0339181802,0.04156703996
2.5,0.03681667463,0.03830102605
2.51,0.03940910949,0.03484425174
2.52,0.04168413422,0.0312248047
2.53,0.04363293265,0.0274713124
2.54,0.04524923176,0.0236127167
2.55,0.04652929062,0.0196780509
2.56,0.04747187008,0.01569622111
2.57,0.04807818382,0.01169579333
2.58,0.04835183141,0.007704788087
2.59,0.04829871459,0.003750483963
2.6,0.04792693744,-0.0001407686209
2.61,0.04724669189,-0.003943722013
2.62,0.04627012965,-0.007634393252
2.63,0.04501122188,-0.01119021225
2.64,0.04348560817,-0.01459015534
2.65,0.04171043602,-0.01781486352
2.66,0.03970419259,-0.02084674463
2.67,0.03748653014,-0.02367005917
2.68,0.03507808672,-0.02627098937
2.69,0.03250030369,-0.02863769129
2.7,0.02977524169,-0.03076033005
2.71,0.02692539653,-0.03263109819
2.72,0.02397351658,-0.03424421748
2.73,0.02094242301,-0.03559592458
2.74,0.01785483445,-0.03668444104
2.75,0.01473319731,-0.03750992825
2.76,0.011599523,-0.03807442816
2.77,0.00847523334,-0.03838179065
2.78,0.005381015092,-0.03843758832
2.79,0.002336684753,-0.03824902002
2.8,-0.0006389356664,-0.03782480396
2.81,-0.003528131043,-0.03717506176
2.82,-0.00631439311,-0.03631119458
2.83,-0.008982507486,-0.03524575264
2.84,-0.01151862738,-0.03399229938
2.85,-0.0139103337,-0.03256527158
2.86,-0.01614668145,-0.03097983683
2.87,-0.0182182324,-0.02925174953
2.88,-0.02011707411,-0.02739720681
2.89,-0.02183682558,-0.02543270557
2.9,-0.02337262984,-0.0233749019
2.91,-0.02472113397,-0.021240474
2.92,-0.02588045706,-0.01904598973
2.93,-0.02685014673,-0.01680777986
2.94,-0.02763112505,-0.01454181789
2.95,-0.02822562462,-0.01226360735
2.96,-0.02863711561,-0.009988077494
2.97,-0.02887022486,-0.007729487816
2.98,-0.02893064792,-0.005501342203
2.99,-0.0288250551,-0.003316313102
3,-0.0285609926,-0.001186176098
3.01,-0.02814677978,0.0008782448297
3.02,-0.02759140366,0.002867121202
3.03,-0.02690441183,0.004771653045
3.04,-0.02609580465,0.006584091043
3.05,-0.025175928,0.008297748007
3.06,-0.02415536748,0.009906999899
3.07,-0.02304484506,0.01140727677
3.08,-0.02185511917,0.01279504405
3.09,-0.02059688903,0.0140677747
3.1,-0.01928070401,0.01522391282
3.11,-0.0179168789,0.01626282947
3.12,-0.0165154156,0.0171847712
3.13,-0.01508593182,0.01799080242
3.14,-0.01363759743,0.01868274211
3.15,-0.01217907865,0.0192630959
3.16,-0.01071849052,0.01973498444
3.17,-0.009263357885,0.0201020688
3.18,-0.007820584901,0.02036847406
3.19,-0.006396433202,0.02053871171
3.2,-0.004996508604,0.02061760202
3.21,-0.003625756211,0.0206101971
3.22,-0.002288463684,0.02052170563
3.23,-0.0009882723388,0.02035741988
3.24,0.0002718043133,0.02012264601
3.25,0.001489355068,0.01982263825
3.26,0.002662539113,0.01946253759
3.27,0.003790048285,0.01904731572
3.28,0.004871063976,0.01858172443
3.29,0.005905210541,0.01807025177
3.3,0.006892503044,0.01751708355
3.31,0.007833293953,0.01692607283
3.32,0.008728216709,0.01630071571
3.33,0.0095781281,0.0156441345
3.34,0.01038405006,0.01495906799
3.35,0.01114711165,0.01424786881
3.36,0.01186849212,0.01351250781
3.37,0.01254936559,0.01275458525
3.38,0.01319084837,0.0119753484
3.39,0.01379394931,0.01117571534
3.4,0.01435952409,0.01035630445
3.41,0.01488823386,0.009517469089
3.42,0.01538050884,0.008659336918
3.43,0.01583651738,0.007781853314
3.44,0.01625614082,0.006884828146
3.45,0.01663895452,0.005967985278
3.46,0.01698421535,0.005031014061
3.47,0.01729085572,0.00407362208
3.48,0.01755748438,0.003095588395
3.49,0.01778239387,0.002096816522
3.5,0.01796357473,0.001077386394
3.51,0.01809873613,3.760455049E-05
3.52,0.01818533282,-0.001021948169
3.53,0.01822059815,-0.00210037213
3.54,0.01820158262,-0.003196408273
3.55,0.01812519767,-0.004308401984
3.56,0.01798826417,-0.005434272022
3.57,0.01778756498,-0.006571485052
3.58,0.01751990106,-0.007717036224
3.59,0.01718215039,-0.0088674362
3.6,0.01677132904,-0.01001870496
3.61,0.01628465359,-0.01116637262
3.62,0.01571960424,-0.01230548748
3.63,0.01507398773,-0.0134306313
3.64,0.01434599931,-0.01453594193
3.65,0.01353428298,-0.01561514313
3.66,0.01263798923,-0.01666158152
3.67,0.01165682946,-0.01766827027
3.68,0.01059112639,-0.0186279394
3.69,0.009441859672,-0.01953309219
3.7,0.008210706159,-0.0203760672
3.71,0.006900074041,-0.02114910553
3.72,0.005513130408,-0.02184442244
3.73,0.004053821658,-0.02245428303
3.74,0.002526886318,-0.02297108089
3.75,0.0009378599128,-0.02338741929
3.76,-0.000706928433,-0.02369619384
3.77,-0.002400367865,-0.02389067595
3.78,-0.004134586289,-0.02396459624
3.79,-0.005900979521,-0.02391222687
3.8,-0.007690249069,-0.02372846209
3.81,-0.009492448411,-0.023408896
3.82,-0.01129703757,-0.02294989674
3.83,-0.01309294566,-0.02234867617
3.84,-0.01486864106,-0.02160335431
3.85,-0.01661220869,-0.02071301767
3.86,-0.01831143391,-0.01967777073
3.87,-0.01995389231,-0.01849877996
3.88,-0.02152704486,-0.0171783096
3.89,-0.02301833749,-0.01571974878
3.9,-0.02441530441,-0.01412762937
3.91,-0.02570567417,-0.01240763415
3.92,-0.02687747775,-0.01056659505
3.93,-0.02791915748,-0.008612481074
3.94,-0.02881967604,-0.006554375883
3.95,-0.02956862436,-0.004402444828
3.96,-0.03015632752,-0.002167891587
3.97,-0.03057394767,0.0001370955468
3.98,-0.0308135828,0.002499407479
3.99,-0.03086836059,0.004905087911
4,-0.03073252623,0.007339416322
4.01,-0.03040152336,0.009786999812
4.02,-0.02987206722,0.01223187323
4.03,-0.02914220922,0.01465760689
4.04,-0.02821139209,0.01704742115
4.05,-0.02708049509,0.01938430695
4.06,-0.02575186837,0.0216511515
4.07,-0.02422935631,0.02383086808
4.08,-0.02251830902,0.02590652896
4.09,-0.02062558195,0.0278615004
4.1,-0.0185595232,0.02967957854
4.11,-0.01632994835,0.03134512525
4.12,-0.01394810288,0.0328432025
4.13,-0.01142661217,0.03415970442
4.14,-0.008779419193,0.03528148559
4.15,-0.006021710256,0.03619648471
4.16,-0.003169829155,0.03689384224
4.17,-0.0002411801652,0.03736401122
4.18,0.002745879487,0.03759885994
4.19,0.005772157022,0.03759176564
4.2,0.008817750585,0.0373376983
4.21,0.01186218395,0.03683329354
4.22,0.01488454849,0.03607691395
4.23,0.01786365141,0.03506869801
4.24,0.02077816915,0.03381059624
4.25,0.0236068048,0.03230639366
4.26,0.02632844831,0.03056171859
4.27,0.02892233834,0.0285840371
4.28,0.03136822434,0.0263826332
4.29,0.03364652775,0.02396857443
4.3,0.0357385008,0.0213546632
4.31,0.03762638181,0.01855537368
4.32,0.03929354556,0.01558677479
4.33,0.04072464759,0.01246643955
4.34,0.04190576099,0.00921334131
4.35,0.04282450474,0.005847737524
4.36,0.04347016224,0.002391041693
4.37,0.04383378909,-0.00113431557
4.38,0.04390830905,-0.004705035508
4.39,0.04368859727,-0.00829710917
4.4,0.04317154995,-0.01188598325
4.41,0.04235613971,-0.01544673259
4.42,0.04124345604,-0.0189542382
4.43,0.03983673025,-0.02238336934
4.44,0.03814134461,-0.02570916842
4.45,0.03616482534,-0.02890703728
4.46,0.03391681922,-0.03195292343
4.47,0.03140905398,-0.03482350479
4.48,0.02865528238,-0.03749637155
4.49,0.02567121024,-0.03995020359
4.5,0.02247440885,-0.04216494217
4.51,0.01908421218,-0.04412195444
4.52,0.01552159948,-0.04580418936
4.53,0.01180906403,-0.04719632389
4.54,0.007970468879,-0.04828489799
4.55,0.004030890432,-0.0490584375
4.56,1.645110981E-05,-0.04950756366
4.57,-0.004045857928,-0.04962508831
4.58,-0.008128362684,-0.04940609394
4.59,-0.01220289954,-0.04884799776
4.6,-0.0162410144,-0.04795059916
4.61,-0.02021416636,-0.04671610993
4.62,-0.02409393426,-0.045149167
4.63,-0.02785222486,-0.04325682721
4.64,-0.03146148075,-0.04104854411
4.65,-0.03489488667,-0.03853612677
4.66,-0.03812657258,-0.0357336806
4.67,-0.04113181188,-0.0326575306
4.68,-0.0438872133,-0.02932612734
4.69,-0.04637090493,-0.02575993632
4.7,-0.04856270891,-0.02198131118
4.71,-0.05044430539,-0.01801435181
4.72,-0.0519993845,-0.01388474807
4.73,-0.05321378492,-0.009619610321
4.74,-0.05407561804,-0.005247287753
4.75,-0.05457537662,-0.0007971759209
4.76,-0.05470602686,0.003700485283
4.77,-0.05446308335,0.008214821745
4.78,-0.05384466577,0.01271454185
4.79,-0.0528515372,0.01716815823
4.8,-0.05148712327,0.02154421299
4.81,-0.04975751197,0.02581150465
4.82,-0.04767143407,0.02993931527
4.83,-0.04524022386,0.03389763591
4.84,-0.04247776067,0.03765738895
4.85,-0.03940039122,0.04119064537
4.86,-0.03602683327,0.04447083544
4.87,-0.03237806128,0.04747295133
4.88,-0.02847717456,0.0501737398
4.89,-0.02434924896,0.05255188372
4.9,-0.02002117296,0.05458817093
4.91,-0.01552146931,0.05626564899
4.92,-0.01088010335,0.05756976472
4.93,-0.006128279512,0.05848848737
4.94,-0.001298227162,0.05901241424
4.95,0.003577022466,0.05913485814
4.96,0.008463866824,0.05885191561
4.97,0.01332836838,0.05816251552
4.98,0.01813649502,0.05706844742
4.99,0.02285436284,0.05557436937
5,0.02744847948,0.05368779496
5.01,0.03188598625,0.0514190597
5.02,0.03613489736,0.04878126658
5.03,0.04016433427,0.04579021142
5.04,0.04394475365,0.04246428816
5.05,0.04744816705,0.03882437476
5.06,0.05064835082,0.03489370051
5.07,0.05352104444,0.03069769552
5.08,0.05604413601,0.02626382334
5.09,0.05819783332,0.021621398
5.1,0.05996481909,0.01680138658
5.11,0.0613303895,0.01183619872
5.12,0.06228257445,0.006759464533
5.13,0.06281223898,0.00160580248
5.14,0.06291316476,-0.003589421155
5.15,0.06258211112,-0.008790339501
5.16,0.06181885489,-0.01396083727
5.17,0.06062620888,-0.01906480603
5.18,0.05901001857,-0.0240664008
5.19,0.05697913704,-0.02893029607
5.2,0.05454537818,-0.03362193935
5.21,0.05172344839,-0.0381078005
5.22,0.04853085725,-0.04235561492
5.23,0.04498780768,-0.04633461886
5.24,0.04111706615,-0.05001577509
5.25,0.03694381411,-0.0533719873
5.26,0.03249548128,-0.05637830152
5.27,0.02780156218,-0.05901209322
5.28,0.02289341705,-0.0612532385
5.29,0.01780405858,-0.06308426823
5.3,0.0125679258,-0.06449050381
5.31,0.007220647,-0.06546017366
5.32,0.001798792968,-0.06598450935
5.33,-0.003660377368,-0.06605782076
5.34,-0.009119177326,-0.06567754954
5.35,-0.0145397569,-0.06484430048
5.36,-0.01988436942,-0.06356185038
5.37,-0.02511563849,-0.06183713448
5.38,-0.03019682327,-0.05968021022
5.39,-0.03509208029,-0.05710419865
5.4,-0.03976671978,-0.0541252039
5.41,-0.04418745472,-0.05076221104
5.42,-0.04832264077,-0.04703696315
5.43,-0.05214250544,-0.04297381831
5.44,-0.05561936465,-0.0385995876
5.45,-0.05872782517,-0.03394335501
5.46,-0.06144497155,-0.02903628073
5.47,-0.06375053598,-0.023911389
5.48,-0.06562704992,-0.01860334212
5.49,-0.06705997635,-0.01314820208
5.5,-0.06803782164,-0.007583181573
5.51,-0.06855222619,-0.001946386116
5.52,-0.06859803311,0.003723450931
5.53,-0.06817333441,0.009387238536
5.54,-0.06727949436,0.01500580147
5.55,-0.06592114969,0.0205401551
5.56,-0.06410618671,0.02595177965
5.57,-0.06184569535,0.03120289179
5.58,-0.05915390041,0.03625671183
5.59,-0.05604807055,0.04107772441
5.6,-0.05254840548,0.04563193097
5.61,-0.04867790222,0.0498870921
5.62,-0.04446220129,0.05381295801
5.63,-0.03992941389,0.05738148557
5.64,-0.03510993121,0.06056704019
5.65,-0.03003621736,0.06334658127
5.66,-0.02474258709,0.06569982963
5.67,-0.0192649701,0.06760941597
5.68,-0.01364066346,0.06906100905
5.69,-0.007908073881,0.07004342277
5.7,-0.002106451709,0.07054870132
5.71,0.003724381569,0.07057218175
5.72,0.009544310323,0.07011253354
5.73,0.01531320436,0.06917177471
5.74,0.02099119908,0.06775526451
5.75,0.02653897432,0.06587167262
5.76,0.03191802972,0.06353292497
5.77,0.03709095492,0.06075412666
5.78,0.04202169243,0.05755346244
5.79,0.04667579148,0.05395207541
5.8,0.0510206509,0.04997392478
5.81,0.05502574952,0.04564562368
5.82,0.05866286212,0.04099625816
5.83,0.06190625978,0.03605718856
5.84,0.06473289288,0.03086183474
5.85,0.06712255561,0.02544544658
5.86,0.06905803076,0.01984486138
5.87,0.07052521381,0.01409824988
5.88,0.07151321534,0.008244852648
5.89,0.07201444106,0.002324708686
5.9,0.07202464893,-0.003621621828
5.91,0.07154298288,-0.009553338731
5.92,0.07057198292,-0.01542968502
5.93,0.06911757149,-0.02121022996
5.94,0.06718901626,-0.02685515017
5.95,0.06479886947,-0.03232550675
5.96,0.06196288435,-0.03758351639
5.97,0.05869990911,-0.04259281471
5.98,0.05503175928,-0.04731870987
5.99,0.05098306928,-0.05172842467
6,0.04658112422,-0.05579132555
