"Freq [GHz]","re(S(Tx_p1,Tx_p1)) []","im(S(Tx_p1,Tx_p1)) []"
1,0.1066012811,0.09755516869
1.01,0.1141726236,0.08850525481
1.02,0.1209798752,0.07886212
1.03,0.1269759661,0.06869031743
1.04,0.1321193142,0.05805817761
1.05,0.1363741296,0.04703733757
1.06,0.1397106789,0.03570224553
1.07,0.1421055063,0.02412964459
1.08,0.1435416106,0.01239803911
1.09,0.1440085767,0.0005871476717
1.1,0.1435026602,-0.01122265348
1.11,0.1420268244,-0.02295089259
1.12,0.1395907306,-0.03451756596
1.13,0.1362106797,-0.04584369909
1.14,0.1319095071,-0.05685190111
1.15,0.1267164316,-0.06746690871
1.16,0.1206668576,-0.07761611566
1.17,0.1138021341,-0.08723008392
1.18,0.1061692714,-0.09624303291
1.19,0.09782061686,-0.1045933032
1.2,0.08881349281,-0.1122237916
1.21,0.07920979916,-0.1190823539
1.22,0.06907558298,-0.1251221734
1.23,0.05848057868,-0.1303020913
1.24,0.04749772176,-0.1345868976
1.25,0.03620263963,-0.1379475803
1.26,0.02467312327,-0.14036153
1.27,0.01298858332,-0.1418127005
1.28,0.001229494641,-0.1422917217
1.29,-0.01052316688,-0.1417959667
1.3,-0.02218849103,-0.1403295699
1.31,-0.03368619967,-0.1379033987
1.32,-0.04493720859,-0.1345349763
1.33,-0.05586418101,-0.1302483583
1.34,-0.0663920686,-0.1250739633
1.35,-0.07644863631,-0.1190483575
1.36,-0.0859649672,-0.1122139976
1.37,-0.0948759437,-0.1046189304
1.38,-0.1031207019,-0.09631645439
1.39,-0.1106430557,-0.08736474369
1.4,-0.1173918876,-0.077826438
1.41,-0.1233215036,-0.06776820104
1.42,-0.1283919496,-0.05726025107
1.43,-0.1325692873,-0.04637586633
1.44,-0.1358258272,-0.03519086947
1.45,-0.1381403174,-0.02378309417
1.46,-0.1394980868,-0.0122318381
1.47,-0.1398911419,-0.0006173059549
1.48,-0.1393182163,0.01097995346
1.49,-0.1377847728,0.02247961206
1.5,-0.1353029577,0.03380212515
1.51,-0.1318915083,0.04486928812
1.52,-0.1275756141,0.05560478303
1.53,-0.1223867322,0.06593471126
1.54,-0.1163623588,0.07578810862
1.55,-0.109545759,0.08509743897
1.56,-0.1019856554,0.09379906322
1.57,-0.09373587885,0.1018336801
1.58,-0.08485498392,0.109146736
1.59,-0.07540583128,0.1156888002
1.6,-0.06545514036,0.1214159043
1.61,-0.05507301544,0.1262898419
1.62,-0.04433244861,0.1302784274
1.63,-0.033308803,0.1333557122
1.64,-0.02207928023,0.1355021563
1.65,-0.01072237568,0.1367047541
1.66,0.0006826745039,0.136957115
1.67,0.01205645064,0.136259496
1.68,0.02331990711,0.1346187878
1.69,0.03439492633,0.1320484546
1.7,0.04520486516,0.1285684268
1.71,0.05567509001,0.1242049491
1.72,0.06573349662,0.1189903835
1.73,0.07531101115,0.1129629705
1.74,0.08434206882,0.1061665485
1.75,0.09276506697,0.09865023458
1.76,0.1005227891,0.09046806892
1.77,0.1075627973,0.08167862469
1.78,0.11383779,0.07234458727
1.79,0.1193059229,0.06253230512
1.8,0.1239310904,0.05231131581
1.81,0.1276831663,0.04175385066
1.82,0.1305382019,0.0309343214
1.83,0.1324785794,0.01992879267
1.84,0.1334931211,0.008814443991
1.85,0.1335771523,-0.002330974775
1.86,0.1327325187,-0.01342969081
1.87,0.1309675575,-0.02440445453
1.88,0.1282970227,-0.03517908078
1.89,0.1247419655,-0.0456789812
1.9,0.1203295708,-0.05583168402
1.91,0.1150929502,-0.0655673376
1.92,0.1090708945,-0.0748191943
1.93,0.102307586,-0.08352407109
1.94,0.0948522745,-0.09162278392
1.95,0.08675891728,-0.09906055275
1.96,0.07808578787,-0.1057873744
1.97,0.06889505477,-0.1117583607
1.98,0.05925233409,-0.1169340399
1.99,0.04922621912,-0.1212806184
2,0.03888779017,-0.1247702029
2.01,0.02831010819,-0.1273809789
2.02,0.01756769602,-0.1290973467
2.03,0.006736010599,-0.1299100135
2.04,-0.004109089682,-0.1298160396
2.05,-0.01489187906,-0.1288188409
2.06,-0.02553729588,-0.1269281459
2.07,-0.03597146787,-0.1241599082
2.08,-0.04612222745,-0.120536176
2.09,-0.0559196134,-0.1160849188
2.1,-0.06529635559,-0.1108398123
2.11,-0.07418833905,-0.1048399844
2.12,-0.08253504456,-0.0981297236
2.13,-0.09027996236,-0.09075815143
2.14,-0.0973709764,-0.08277886221
2.15,-0.1037607163,-0.07424953232
2.16,-0.1094068749,-0.065231502
2.17,-0.1142724889,-0.05578933261
2.18,-0.1183261808,-0.04599034271
2.19,-0.1215423614,-0.03590412615
2.2,-0.12390139,-0.02560205581
2.21,-0.1253896922,-0.0151567764
2.22,-0.1259998355,-0.004641690015
2.23,-0.1257305602,0.00586956192
2.24,-0.1245867673,0.01630361657
2.25,-0.122579463,0.02658790391
2.26,-0.1197256604,0.0366511536
2.27,-0.1160482387,0.04642389088
2.28,-0.1115757628,0.05583891811
2.29,-0.1063422617,0.06483177857
2.3,-0.1003869711,0.07334119926
2.31,-0.09375403875,0.08130950978
2.32,-0.08649219713,0.0886830342
2.33,-0.07865440462,0.09541245347
2.34,-0.07029745839,0.1014531358
2.35,-0.06148158166,0.1067654327
2.36,-0.05226998832,0.1113149392
2.37,-0.04272842814,0.1150727156
2.38,-0.03292471583,0.1180154704
2.39,-0.02292824734,0.1201257025
2.4,-0.01280950683,0.1213918022
2.41,-0.002639567929,0.1218081105
2.42,0.007510407323,0.1213749359
2.43,0.01756966813,0.1200985292
2.44,0.02746836984,0.1179910173
2.45,0.03713806044,0.1150702946
2.46,0.04651215546,0.1113598753
2.47,0.05552639771,0.1068887064
2.48,0.06411929894,0.1016909432
2.49,0.07223256016,0.09580568869
2.5,0.07981146788,0.08927670017
2.51,0.08680526347,0.08215206315
2.52,0.09316748329,0.07448383685
2.53,0.09885626708,0.06632767301
2.54,0.1038346328,0.05774241093
2.55,0.1080707161,0.04878965191
2.56,0.1115379724,0.03953331585
2.57,0.1142153415,0.0300391836
2.58,0.1160873719,0.02037442795
2.59,0.117144306,0.01060713699
2.6,0.1173821248,0.0008058329301
2.61,0.1168025515,-0.008961010016
2.62,0.1154130151,-0.01862544536
2.63,0.1132265745,-0.02812052827
2.64,0.1102618024,-0.03738078046
2.65,0.1065426318,-0.0463426427
2.66,0.1020981648,-0.05494491185
2.67,0.0969624467,-0.06312915949
2.68,0.09117420577,-0.07084012912
2.69,0.08477656136,-0.07802610937
2.7,0.07781670266,-0.08463928064
2.71,0.07034554021,-0.09063603278
2.72,0.06241733281,-0.0959772519
2.73,0.05408929265,-0.1006285742
2.74,0.04542117149,-0.1045606052
2.75,0.03647483086,-0.1077491036
2.76,0.02731379947,-0.1101751272
2.77,0.0180028209,-0.1118251418
2.78,0.00860739491,-0.1126910912
2.79,-0.000806684462,-0.1127704285
2.8,-0.01017379071,-0.1120661087
2.81,-0.01942892333,-0.1105865425
2.82,-0.0285081597,-0.1083455125
2.83,-0.03734909732,-0.1053620512
2.84,-0.04589128326,-0.1016602838
2.85,-0.05407662785,-0.09726923557
2.86,-0.0618497999,-0.09222260543
2.87,-0.06915860057,-0.08655850842
2.88,-0.07595431356,-0.08031918812
2.89,-0.08219202908,-0.07355070161
2.9,-0.0878309397,-0.06630257919
2.91,-0.09283460585,-0.05862746147
2.92,-0.09717118947,-0.0505807164
2.93,-0.1008136543,-0.04222003905
2.94,-0.1037399313,-0.03360503715
2.95,-0.1059330491,-0.02479680518
2.96,-0.1073812268,-0.01585749027
2.97,-0.1080779315,-0.006849852814
2.98,-0.1080218977,0.002163174948
2.99,-0.1072171101,0.01111892933
3,-0.1056727495,0.01995545152
3.01,-0.1034031032,0.02861191668
3.02,-0.1004274389,0.03702905301
3.03,-0.09676984599,0.04514954767
3.04,-0.09245904247,0.05291843704
3.05,-0.08752815128,0.06028347838
3.06,-0.08201444671,0.06719550067
3.07,-0.07595907314,0.07360873199
3.08,-0.06940673812,0.07948110148
3.09,-0.06240538217,0.08477451387
3.1,-0.05500582776,0.08945509467
3.11,-0.04726140983,0.0934934046
3.12,-0.0392275909,0.09686462187
3.13,-0.0309615632,0.09954869118
3.14,-0.0225218409,0.1015304386
3.15,-0.01396784529,0.1027996519
3.16,-0.005359485791,0.1033511253
3.17,0.003243260093,0.1031846696
3.18,0.01178076511,0.1023050868
3.19,0.02019416582,0.10072211
3.2,0.0284257686,0.09845030943
3.21,0.03641944524,0.09550896511
3.22,0.04412101541,0.0919219071
3.23,0.0514786135,0.08771732514
3.24,0.0584430372,0.08292754884
3.25,0.06496807558,0.07758880011
3.26,0.07101081446,0.07174091986
3.27,0.07653191711,0.06542707101
3.28,0.08149587838,0.05869341991
3.29,0.08587125068,0.05158879863
3.3,0.08963084041,0.04416435061
3.31,0.09275187354,0.03647316207
3.32,0.09521612958,0.02856988215
3.33,0.09701004287,0.02051033411
3.34,0.09812477096,0.01235112074
3.35,0.09855622967,0.004149226497
3.36,0.0983050947,-0.004038380728
3.37,0.09737677024,-0.01215514536
3.38,0.09578132461,-0.02014531483
3.39,0.09353339397,-0.0279543223
3.4,0.09065205468,-0.035529159
3.41,0.08716066551,-0.04281873349
3.42,0.08308668099,-0.04977421549
3.43,0.07846143728,-0.05634936191
3.44,0.07331991237,-0.06250082306
3.45,0.0677004623,-0.06818842677
3.46,0.06164453545,-0.07337543886
3.47,0.05519636703,-0.07802879806
3.48,0.04840265602,-0.08211932402
3.49,0.04131222685,-0.08562189708
3.5,0.03397567841,-0.08851560872
3.51,0.02644502277,-0.0907838819
3.52,0.01877331632,-0.09241456043
3.53,0.01101428579,-0.09339996726
3.54,0.003221952002,-0.09373693114
3.55,-0.004549746247,-0.0934267819
3.56,-0.01224732536,-0.09247531449
3.57,-0.01981812473,-0.09089272223
3.58,-0.02721066649,-0.08869349989
3.59,-0.03437500494,-0.08589631758
3.6,-0.04126306306,-0.0825238664
3.61,-0.04782895412,-0.07860267711
3.62,-0.05402928597,-0.07416291339
3.63,-0.05982344619,-0.06923814105
3.64,-0.06517386623,-0.06386507518
3.65,-0.0700462627,-0.05808330702
3.66,-0.07440985445,-0.05193501259
3.67,-0.07823755396,-0.04546464524
3.68,-0.08150613195,-0.03871861435
3.69,-0.08419635423,-0.03174495253
3.7,-0.08629308998,-0.02459297367
3.71,-0.08778539094,-0.01731292424
3.72,-0.08866654113,-0.009955630464
3.73,-0.08893407693,-0.002572143596
3.74,-0.08858977765,0.004786613979
3.75,-0.08763962671,0.01207019955
3.76,-0.08609374409,0.01922899528
3.77,-0.08396629049,0.02621454547
3.78,-0.08127534422,0.03297988367
3.79,-0.07804275181,0.03947984722
3.8,-0.07429395349,0.04567137749
3.81,-0.070057785,0.05151380341
3.82,-0.06536625721,0.05696910681
3.83,-0.06025431523,0.06200216759
3.84,-0.0547595789,0.06658098734
3.85,-0.04892206639,0.07067688982
3.86,-0.04278390319,0.07426469734
3.87,-0.03638901836,0.07732288164
3.88,-0.02978283043,0.07983368872
3.89,-0.02301192507,0.08178323672
3.9,-0.0161237268,0.08316158649
3.91,-0.009166167234,0.08396278441
3.92,-0.002187351877,0.08418487749
3.93,0.004764771901,0.08382990083
3.94,0.01164274366,0.08290383756
3.95,0.01839991308,0.08141655192
3.96,0.02499075541,0.07938169601
3.97,0.031371177,0.07681659111
3.98,0.03749880895,0.07374208451
3.99,0.04333328685,0.070182383
4,0.04883651483,0.0661648644
4.01,0.05397291222,0.06171986858
4.02,0.05870964117,0.05688046943
4.03,0.06301681386,0.05168222966
4.04,0.06686767804,0.04616294015
4.05,0.07023877963,0.0403623457
4.06,0.07311010164,0.03432185937
4.07,0.07546517844,0.02808426716
4.08,0.0772911848,0.02169342546
4.09,0.07857899939,0.0151939531
4.1,0.07932324234,0.008630920387
4.11,0.07952228681,0.002049537199
4.12,0.07917824482,-0.004505157739
4.13,0.0782969274,-0.01098860421
4.14,0.07688777968,-0.01735702242
4.15,0.07496379152,-0.02356770746
4.16,0.07254138443,-0.02957931432
4.17,0.06964027574,-0.03535213153
4.18,0.06628332115,-0.04084834175
4.19,0.0624963369,-0.04603226745
4.2,0.05830790284,-0.05087060026
4.21,0.05374914806,-0.05533261239
4.22,0.04885352049,-0.05939034891
4.23,0.04365654233,-0.06301879972
4.24,0.03819555298,-0.06619605
4.25,0.0325094414,-0.06890340853
4.26,0.02663836973,-0.07112551296
4.27,0.02062349028,-0.0728504116
4.28,0.01450665767,-0.07406962121
4.29,0.008330138302,-0.07477816075
4.3,0.002136319117,-0.07497456092
4.31,-0.004032582403,-0.07466084955
4.32,-0.01013480495,-0.07384251336
4.33,-0.01612932494,-0.07252843619
4.34,-0.02197613091,-0.07073081461
4.35,-0.02763648913,-0.06846505149
4.36,-0.03307319844,-0.06574962838
4.37,-0.03825083282,-0.06260595798
4.38,-0.04313597009,-0.0590582175
4.39,-0.04769740527,-0.05513316452
4.4,-0.05190634719,-0.05085993657
4.41,-0.0557365973,-0.0462698359
4.42,-0.05916470941,-0.04139610118
4.43,-0.06217012958,-0.03627366757
4.44,-0.06473531518,-0.03093891715
4.45,-0.06684583266,-0.02542942117
4.46,-0.06849043338,-0.01978367627
4.47,-0.06966110718,-0.01404083623
4.48,-0.07035311357,-0.00824044133
4.49,-0.07056499042,-0.00242214704
4.5,-0.07029854025,0.003374546038
4.51,-0.06955879454,0.009110559163
4.52,-0.06835395618,0.01474749759
4.53,-0.06669532099,0.02024790608
4.54,-0.06459717867,0.02557551616
4.55,-0.06207669424,0.03069548342
4.56,-0.05915377082,0.03557461339
4.57,-0.05585089482,0.0401815745
4.58,-0.05219296487,0.04448709681
4.59,-0.04820710553,0.04846415527
4.6,-0.04392246742,0.05208813632
4.61,-0.03937001507,0.05533698695
4.62,-0.03458230411,0.05819134522
4.63,-0.02959324931,0.06063465156
4.64,-0.02443788523,0.06265324028
4.65,-0.01915212108,0.06423641076
4.66,-0.01377249151,0.065376478
4.67,-0.008335905081,0.06606880241
4.68,-0.002879392089,0.06631179872
4.69,0.002560146464,0.06610692424
4.7,0.007946187145,0.06545864649
4.71,0.0132428279,0.06437439091
4.72,0.0184150258,0.06286446879
4.73,0.02342882715,0.06094198638
4.74,0.02825158851,0.05862273574
4.75,0.03285218713,0.05592506834
4.76,0.0372012195,0.05286975233
4.77,0.0412711868,0.04947981455
4.78,0.04503666607,0.04578036861
4.79,0.048474466,0.04179843013
4.8,0.05156376652,0.0375627206
4.81,0.05428624132,0.03310346132
4.82,0.05662616259,0.0284521587
4.83,0.05857048748,0.02364138268
4.84,0.06010892574,0.01870453959
4.85,0.06123398835,0.01367564129
4.86,0.0619410169,0.008589071847
4.87,0.06222819372,0.003479353638
4.88,0.06209653271,-0.001619085689
4.89,0.06154985135,-0.006672143822
4.9,0.06059472396,-0.01164627039
4.91,0.05924041682,-0.01650868812
4.92,0.0574988057,-0.021227607
4.93,0.05538427656,-0.02577243027
4.94,0.05291361007,-0.03011395065
4.95,0.050105851,-0.03422453579
4.96,0.04698216345,-0.03807830167
4.97,0.04356567297,-0.04165127292
4.98,0.03988129674,-0.04492152908
4.99,0.0359555631,-0.04786933592
5,0.03181642166,-0.05047726107
5.01,0.02749304539,-0.05273027333
5.02,0.02301562609,-0.05461582513
5.03,0.01841516457,-0.05612391765
5.04,0.01372325714,-0.05724714839
5.05,0.008971879758,-0.05798074098
5.06,0.0041931713,-0.05832255721
5.07,-0.0005807824748,-0.05827309127
5.08,-0.00531816297,-0.05783544643
5.09,-0.009987629295,-0.05701529447
5.1,-0.01455852396,-0.05582081831
5.11,-0.01900107239,-0.05426263818
5.12,-0.02328657494,-0.05235372224
5.13,-0.02738759025,-0.05010928212
5.14,-0.03127810874,-0.04754665436
5.15,-0.03493371514,-0.04468516857
5.16,-0.03833173917,-0.04154600334
5.17,-0.0414513933,-0.03815203097
5.18,-0.04427389695,-0.03452765214
5.19,-0.04678258627,-0.03069862166
5.2,-0.04896300897,-0.0266918666
5.21,-0.05080300366,-0.02253529807
5.22,-0.05229276325,-0.01825761787
5.23,-0.05342488231,-0.01388812148
5.24,-0.05419438789,-0.00945649863
5.25,-0.05459875403,-0.004992632806
5.26,-0.05463789985,-0.0005264010846
5.27,-0.05431417138,0.003912524414
5.28,-0.05363230737,0.008294872136
5.29,-0.05259938952,0.01259196248
5.3,-0.05122477754,0.01677589376
5.31,-0.0495200295,0.02081972148
5.32,-0.04749880837,0.02469762987
5.33,-0.04517677513,0.02838509455
5.34,-0.04257146967,0.03185903532
5.35,-0.03970218002,0.03509795821
5.36,-0.03658980109,0.03808208577
5.37,-0.03325668385,0.0407934751
5.38,-0.02972647608,0.0432161226
5.39,-0.02602395578,0.04533605523
5.4,-0.02217485838,0.04714140741
5.41,-0.01820569907,0.04862248349
5.42,-0.01414359123,0.04977180526
5.43,-0.01001606253,0.0505841445
5.44,-0.005850869556,0.05105654028
5.45,-0.001675812556,0.0511883012
5.46,0.002481448747,0.05098099255
5.47,0.006593576893,0.05043840871
5.48,0.01063373487,0.049566531
5.49,0.01457575957,0.04837347138
5.5,0.01839432944,0.04686940259
5.51,0.0220651252,0.04506647521
5.52,0.02556498273,0.04297872228
5.53,0.02887203706,0.04062195231
5.54,0.0319658567,0.0380136314
5.55,0.03482756743,0.03517275535
5.56,0.03743996481,0.03211971268
5.57,0.03978761482,0.02887613963
5.58,0.04185694209,0.025464768
5.59,0.04363630503,0.02190926699
5.6,0.04511605783,0.01823408017
5.61,0.04628859863,0.01446425859
5.62,0.04714840402,0.01062529124
5.63,0.04769204948,0.006742933908
5.64,0.04791821589,0.002843037747
5.65,0.04782768212,-0.001048621549
5.66,0.04742330394,-0.004906512646
5.67,0.04670997935,-0.008705514568
5.68,0.04569460085,-0.01242107867
5.69,0.04438599492,-0.01602938559
5.7,0.04279484931,-0.01950749616
5.71,0.04093362865,-0.02283349533
5.72,0.03881647912,-0.02598662831
5.73,0.03645912274,-0.02894742793
5.74,0.03387874225,-0.03169783258
5.75,0.03109385722,-0.03422129406
5.76,0.02812419248,-0.03650287458
5.77,0.02499053954,-0.03852933248
5.78,0.02171461225,-0.04028919615
5.79,0.01831889747,-0.04177282576
5.8,0.01482650181,-0.04297246256
5.81,0.01126099565,-0.04388226538
5.82,0.007646255186,-0.04449833436
5.83,0.004006303825,-0.04481872181
5.84,0.0003651538058,-0.0448434301
5.85,-0.003253350851,-0.04457439692
5.86,-0.006825689075,-0.04401546796
5.87,-0.01032881414,-0.04317235728
5.88,-0.01374030082,-0.04205259587
5.89,-0.01703848723,-0.04066546865
5.9,-0.02020261074,-0.03902194053
5.91,-0.02321293679,-0.03713457211
5.92,-0.02605088007,-0.03501742554
5.93,-0.02869911727,-0.03268596141
5.94,-0.03114169067,-0.03015692719
5.95,-0.03336410201,-0.02744823823
5.96,-0.03535339616,-0.02457885208
5.97,-0.03709823403,-0.02156863688
5.98,-0.03858895439,-0.01843823495
5.99,-0.03981762428,-0.0152089223
6,-0.04077807775,-0.01190246518
