"Freq [GHz]","re(S(Tx_p1,Tx_p1)) []","im(S(Tx_p1,Tx_p1)) []"
1,0.05301814418,0.02693544005
1.01,0.05473667642,0.02228739929
1.02,0.05604856781,0.01753971533
1.03,0.05694918546,0.01272809943
1.04,0.05743705853,0.00788832477
1.05,0.05751385285,0.003055943821
1.06,0.05718432021,-0.001733989251
1.07,0.05645622275,-0.006447188661
1.08,0.05534023374,-0.01105039748
1.09,0.05384981559,-0.01551163635
1.1,0.05200107658,-0.01980043852
1.11,0.04981260783,-0.02388806931
1.12,0.04730530195,-0.02774772842
1.13,0.04450215545,-0.03135473353
1.14,0.04142805653,-0.03468668387
1.15,0.03810956052,-0.03772360274
1.16,0.03457465483,-0.04044805793
1.17,0.03085251573,-0.04284525945
1.18,0.02697325909,-0.04490313398
1.19,0.02296768733,-0.04661237577
1.2,0.0188670347,-0.04796647402
1.21,0.01470271332,-0.04896171667
1.22,0.01050606182,-0.04959717114
1.23,0.006308099057,-0.04987464243
1.24,0.002139284584,-0.04979860934
1.25,-0.001970711881,-0.04937613978
1.26,-0.005993230372,-0.04861678613
1.27,-0.009900828163,-0.04753246206
1.28,-0.01366747328,-0.04613730204
1.29,-0.01726872263,-0.04444750515
1.3,-0.02068188347,-0.04248116479
1.31,-0.02388615715,-0.04025808608
1.32,-0.02686276421,-0.03779959266
1.33,-0.02959505007,-0.03512832488
1.34,-0.03206857081,-0.03226803117
1.35,-0.03427115874,-0.02924335475
1.36,-0.03619296743,-0.02607961734
1.37,-0.03782649642,-0.02280260212
1.38,-0.03916659567,-0.01943833759
1.39,-0.04021045026,-0.01601288445
1.4,-0.04095754571,-0.01255212706
1.41,-0.04140961495,-0.009081571442
1.42,-0.04157056748,-0.00562615127
1.43,-0.04144640197,-0.002210043537
1.44,-0.04104510339,0.001143504808
1.45,-0.04037652594,0.004412337903
1.46,-0.03945226312,0.007575538575
1.47,-0.03828550645,0.01061356151
1.48,-0.03689089446,0.01350835113
1.49,-0.03528435331,0.01624344354
1.5,-0.03348293097,0.01880405198
1.51,-0.0315046264,0.02117713549
1.52,-0.02936821555,0.02335145049
1.53,-0.02709307573,0.02531758546
1.54,-0.0246990101,0.0270679786
1.55,-0.02220607381,0.02859691902
1.56,-0.01963440334,0.02990053166
1.57,-0.01700405062,0.03097674683
1.58,-0.01433482314,0.03182525476
1.59,-0.0116461316,0.03244744627
1.6,-0.008956846117,0.03284634043
1.61,-0.006285162091,0.03302650023
1.62,-0.003648476867,0.03299393753
1.63,-0.001063277824,0.03275600841
1.64,0.00145495728,0.0323213003
1.65,0.003891847175,0.03169951211
1.66,0.006234180743,0.03090132897
1.67,0.008469977181,0.02993829266
1.68,0.01058853254,0.02882266943
1.69,0.01258045263,0.02756731634
1.7,0.01443767247,0.02618554774
1.71,0.01615346246,0.02469100291
1.72,0.01772242182,0.02309751651
1.73,0.01914045975,0.02141899267
1.74,0.02040476485,0.01966928415
1.75,0.02151376375,0.01786207748
1.76,0.02246706962,0.01601078508
1.77,0.02326542151,0.01412844522
1.78,0.02391061558,0.01222763059
1.79,0.02440542917,0.01032036605
1.8,0.02475353888,0.008418056157
1.81,0.02495943374,0.006531422875
1.82,0.02502832464,0.004670453615
1.83,0.0249660512,0.002844359917
1.84,0.02477898716,0.001061546695
1.85,0.02447394553,-0.0006704080053
1.86,0.02405808448,-0.002344762959
1.87,0.02353881517,-0.003955613737
1.88,0.0229237124,-0.005497883137
1.89,0.02222042909,-0.006967302598
1.9,0.02143661555,-0.008360385211
1.91,0.0205798441,-0.00967439103
1.92,0.01965754004,-0.01090728545
1.93,0.0186769193,-0.0120576915
1.94,0.01764493355,-0.01312483692
1.95,0.01656822291,-0.01410849696
1.96,0.0154530768,-0.01500893385
1.97,0.01430540295,-0.01582683395
1.98,0.01313070472,-0.01656324344
1.99,0.01193406673,-0.01721950373
2,0.0107201486,-0.0177971873
2.01,0.009493186625,-0.01829803508
2.02,0.008257003008,-0.01872389618
2.03,0.007015022252,-0.01907667076
2.04,0.005770294183,-0.01935825698
2.05,0.00452552301,-0.01957050244
2.06,0.003283101763,-0.01971516111
2.07,0.002045151381,-0.019793856
2.08,0.000813563668,-0.01980804812
2.09,-0.0004099527057,-0.01975901222
2.1,-0.001623824004,-0.01964781935
2.11,-0.002826561908,-0.0194753266
2.12,-0.004016713566,-0.01924217403
2.13,-0.005192812089,-0.01894878867
2.14,-0.006353328366,-0.01859539561
2.15,-0.00749662505,-0.01818203581
2.16,-0.008620913522,-0.01770859042
2.17,-0.009724214616,-0.01717481105
2.18,-0.01080432381,-0.01658035567
2.19,-0.01185878153,-0.0159248294
2.2,-0.01288484922,-0.01520782961
2.21,-0.01387949156,-0.01442899461
2.22,-0.01483936539,-0.01358805519
2.23,-0.0157608156,-0.01268488808
2.24,-0.01663987821,-0.01171957066
2.25,-0.01747229087,-0.01069243589
2.26,-0.01825351075,-0.009604126623
2.27,-0.01897873976,-0.00845564847
2.28,-0.01964295701,-0.007248420233
2.29,-0.02024095819,-0.005984321121
2.3,-0.02076740156,-0.004665733873
2.31,-0.02121686006,-0.003295583009
2.32,-0.02158387908,-0.001877367463
2.33,-0.02186303917,-0.0004151869002
2.34,-0.02204902311,0.001086238875
2.35,-0.02213668644,0.002621557991
2.36,-0.02212113083,0.004184782496
2.37,-0.02199777914,0.005769292639
2.38,-0.02176245153,0.00736784972
2.39,-0.02141144149,0.008972617675
2.4,-0.02094159083,0.01057519347
2.41,-0.02035036282,0.01216664628
2.42,-0.01963591219,0.01373756528
2.43,-0.01879715139,0.01527811586
2.44,-0.01783381182,0.01677810385
2.45,-0.01674649942,0.01822704732
2.46,-0.01553674347,0.01961425545
2.47,-0.01420703804,0.02092891373
2.48,-0.0127608752,0.02216017489
2.49,-0.01120276936,0.02329725456
2.5,-0.009538272104,0.02432953098
2.51,-0.007773977176,0.02524664761
2.52,-0.005917514988,0.0260386178
2.53,-0.003977536555,0.02669593029
2.54,-0.001963686568,0.02720965465
2.55,0.0001134344511,0.02757154535
2.56,0.002242318856,0.02777414344
2.57,0.004410611314,0.02781087471
2.58,0.006605178673,0.02767614317
2.59,0.008812189904,0.02736541878
2.6,0.01101720559,0.02687531837
2.61,0.01320527635,0.02620367872
2.62,0.01536104953,0.02534962087
2.63,0.01746888329,0.02431360476
2.64,0.01951296715,0.02309747335
2.65,0.02147744816,0.02170448563
2.66,0.02334656139,0.02013933766
2.67,0.02510476385,0.0184081714
2.68,0.02673687042,0.01651857068
2.69,0.0282281907,0.0144795442
2.7,0.02956466551,0.01230149525
2.71,0.0307330016,0.009996178163
2.72,0.03172080349,0.007576641637
2.73,0.03251670092,0.005057159035
2.74,0.03311047074,0.002453146066
2.75,0.03349315207,-0.0002189337003
2.76,0.03365715326,-0.002941674893
2.77,0.0335963498,-0.005696847266
2.78,0.03330617181,-0.008465522662
2.79,0.03278368031,-0.01122821108
2.8,0.03202763123,-0.01396500477
2.81,0.03103852627,-0.01665572936
2.82,0.02981865011,-0.01928010054
2.83,0.02837209308,-0.02181788534
2.84,0.02670475904,-0.02424906634
2.85,0.02482435794,-0.02655400771
2.86,0.02274038297,-0.0287136213
2.87,0.02046407212,-0.03070953171
2.88,0.01800835429,-0.03252423847
2.89,0.01538778,-0.03414127419
2.9,0.01261843727,-0.03554535699
2.91,0.009717852921,-0.03672253589
2.92,0.006704880017,-0.0376603278
2.93,0.00359957221,-0.03834784463
2.94,0.0004230458256,-0.03877590946
2.95,-0.002802669305,-0.03893716046
2.96,-0.00605478915,-0.03882614145
2.97,-0.009309943699,-0.03843937825
2.98,-0.01254435281,-0.03777543982
2.99,-0.01573400827,-0.03683498347
3,-0.01885486059,-0.0356207836
3.01,-0.02188300905,-0.03413774337
3.02,-0.02479489341,-0.03239288908
3.03,-0.02756748557,-0.03039534695
3.04,-0.03017847979,-0.02815630238
3.05,-0.03260647958,-0.02568894174
3.06,-0.03483117978,-0.02300837693
3.07,-0.03683354227,-0.02013155325
3.08,-0.03859596357,-0.01707714096
3.09,-0.04010243304,-0.01386541143
3.1,-0.04133868011,-0.01051809863
3.11,-0.04229230913,-0.007058246999
3.12,-0.04295292078,-0.003510046753
3.13,-0.04331221862,0.0001013420601
3.14,-0.0433640999,0.003749975453
3.15,-0.04310472967,0.007409319895
3.16,-0.04253259732,0.01105245367
3.17,-0.04164855502,0.01465227361
3.18,-0.04045583747,0.01818170552
3.19,-0.03896006267,0.0216139166
3.2,-0.03716921342,0.02492252817
3.21,-0.03509359971,0.0280818268
3.22,-0.03274580191,0.03106697229
3.23,-0.03014059524,0.03385420058
3.24,-0.02729485588,0.03642101996
3.25,-0.02422744935,0.03874639895
3.26,-0.02095910195,0.04081094405
3.27,-0.01751225616,0.0425970661
3.28,-0.01391091109,0.04408913355
3.29,-0.01018044909,0.04527361139
3.3,-0.006347449923,0.04613918448
3.31,-0.002439493867,0.04667686422
3.32,0.001515044663,0.04688007738
3.33,0.005487211444,0.04674473653
3.34,0.009447692967,0.04626929102
3.35,0.01336704142,0.04545475835
3.36,0.01721590234,0.04430473517
3.37,0.02096524307,0.042825388
3.38,0.02458658023,0.04102542344
3.39,0.02805220431,0.03891603803
3.4,0.03133539953,0.0365108481
3.41,0.03441065719,0.03382579998
3.42,0.03725388085,0.03087906125
3.43,0.03984258137,0.02769089381
3.44,0.04215606047,0.02428350965
3.45,0.04417558117,0.02068091047
3.46,0.04588452356,0.01690871224
3.47,0.04726852477,0.01299395622
3.48,0.0483156018,0.008964907728
3.49,0.04901625624,0.004850844351
3.5,0.04936355992,0.000681835151
3.51,0.04935322066,-0.003511487328
3.52,0.04898362769,-0.007698160483
3.53,0.04825587612,-0.01184712865
3.54,0.04717377033,-0.0159274818
3.55,0.04574380605,-0.01990869401
3.56,0.0439751313,-0.02376085982
3.57,0.04187948644,-0.02745492661
3.58,0.03947112363,-0.03096292102
3.59,0.03676670647,-0.03425816781
3.6,0.03378519037,-0.03731549908
3.61,0.03054768466,-0.0401114525
3.62,0.02707729755,-0.04262445669
3.63,0.02339896494,-0.04483500237
3.64,0.01953926465,-0.04672579785
3.65,0.01552621725,-0.04828190764
3.66,0.01138907536,-0.04949087297
3.67,0.007158102704,-0.0503428133
3.68,0.002864344984,-0.05083050797
3.69,-0.001460605831,-0.05094945731
3.7,-0.005784851865,-0.05069792267
3.71,-0.01007643247,-0.05007694509
3.72,-0.01430356821,-0.04909034237
3.73,-0.01843490379,-0.04774468466
3.74,-0.02243974793,-0.04604924851
3.75,-0.02628830848,-0.04401595006
3.76,-0.02995192067,-0.04165925755
3.77,-0.0334032669,-0.03899608413
3.78,-0.03661658622,-0.03604566149
3.79,-0.03956787194,-0.03282939567
3.8,-0.04223505567,-0.0293707058
3.81,-0.0445981766,-0.02569484737
3.82,-0.04663953437,-0.02182872115
3.83,-0.0483438246,-0.01780066952
3.84,-0.04969825593,-0.0136402615
3.85,-0.05069264758,-0.009378068532
3.86,-0.0513195069,-0.00504543248
3.87,-0.05157408602,-0.0006742277907
3.88,-0.05145441743,0.003703380295
3.89,-0.05096132817,0.008055179648
3.9,-0.05009843238,0.01234915533
3.91,-0.04887210258,0.01655373195
3.92,-0.04729141965,0.02063801243
3.93,-0.04536810218,0.02457201126
3.94,-0.04311641554,0.02832688053
3.95,-0.04055306163,0.03187512691
3.96,-0.03769705,0.03519081794
3.97,-0.03456955161,0.03824977601
3.98,-0.03119373613,0.04102975867
3.99,-0.02759459432,0.0435106237
4,-0.02379874679,0.04567447785
4.01,-0.01983424061,0.04750580809
4.02,-0.01573033553,0.0489915944
4.03,-0.01151728134,0.05012140319
4.04,-0.007226088214,0.05088746087
4.05,-0.00288829177,0.05128470683
4.06,0.001464285244,0.05131082566
4.07,0.005799772854,0.05096625833
4.08,0.01008649346,0.05025419231
4.09,0.01429319928,0.04918053086
4.1,0.01838930585,0.04775384166
4.11,0.02234511973,0.04598528538
4.12,0.02613205874,0.04388852473
4.13,0.02972286299,0.04147961479
4.14,0.03309179523,0.03877687556
4.15,0.03621482885,0.0358007477
4.16,0.03906982228,0.03257363276
4.17,0.04163667845,0.02911971907
4.18,0.04389748813,0.02546479475
4.19,0.04583665612,0.02163604939
4.2,0.04744100946,0.01766186579
4.21,0.04869988681,0.01357160365
4.22,0.04960520848,0.00939537666
4.23,0.05015152663,0.005163824933
4.24,0.05033605538,0.0009078844163
4.25,0.05015868065,-0.003341444883
4.26,0.04962194978,-0.007553330087
4.27,0.04873104115,-0.01169733429
4.28,0.0474937141,-0.01574364134
4.29,0.04592023958,-0.01966327476
4.3,0.04402331232,-0.02342830938
4.31,0.04181794513,-0.02701207386
4.32,0.03932134634,-0.03038934276
4.33,0.03655278135,-0.03353651673
4.34,0.03353341947,-0.03643178953
4.35,0.03028616734,-0.03905530055
4.36,0.02683549017,-0.04138927204
4.37,0.02320722233,-0.04341812974
4.38,0.01942836879,-0.04512860645
4.39,0.01552689893,-0.04650982754
4.4,0.01153153435,-0.04755337819
4.41,0.007471532335,-0.04825335163
4.42,0.003376466711,-0.04860637845
4.43,-0.0007239923819,-0.04861163663
4.44,-0.00480029797,-0.04827084259
4.45,-0.008823243404,-0.04758822319
4.46,-0.01276417555,-0.04657046929
4.47,-0.01659520241,-0.04522667115
4.48,-0.02028939371,-0.0435682364
4.49,-0.02382097287,-0.04160879131
4.5,-0.02716549909,-0.03936406618
4.51,-0.0303000382,-0.03685176591
4.52,-0.03320332109,-0.03409142676
4.53,-0.03585588852,-0.0311042606
4.54,-0.03824022154,-0.02791298773
4.55,-0.04034085646,-0.02454165987
4.56,-0.04214448365,-0.02101547451
4.57,-0.0436400297,-0.01736058219
4.58,-0.04481872228,-0.01360388827
4.59,-0.04567413747,-0.00977285053
4.6,-0.04620222932,-0.005895274422
4.61,-0.04640134158,-0.001999107296
4.62,-0.04627220164,0.001887766718
4.63,-0.04581789686,0.005737729668
4.64,-0.04504383376,0.009523629105
4.65,-0.04395768034,0.01321897227
4.66,-0.04256929221,0.0167981138
4.67,-0.04089062328,0.02023643548
4.68,-0.03893562169,0.02351051699
4.69,-0.03672011202,0.02659829622
4.7,-0.0342616647,0.0294792182
4.71,-0.03157945381,0.03213437161
4.72,-0.02869410429,0.03454661193
4.73,-0.02562752998,0.03670067053
4.74,-0.02240276366,0.03858324894
4.75,-0.0190437805,0.04018309778
4.76,-0.01557531626,0.04149107992
4.77,-0.01202268166,0.04250021758
4.78,-0.008411574348,0.04320572312
4.79,-0.004767889857,0.04360501356
4.8,-0.001117533018,0.04369770875
4.81,0.002513768839,0.0434856136
4.82,0.006100649498,0.04297268435
4.83,0.009618282964,0.04216497968
4.84,0.01304255678,0.04107059683
4.85,0.01635023838,0.03969959367
4.86,0.0195191332,0.03806389717
4.87,0.02252823373,0.03617719937
4.88,0.02535785812,0.03405484154
4.89,0.0279897779,0.03171368769
4.9,0.03040733353,0.02917198828
4.91,0.03259553749,0.02644923555
4.92,0.03454116398,0.02356601126
4.93,0.03623282493,0.02054382843
4.94,0.03766103179,0.01740496795
4.95,0.03881824294,0.01417231167
4.96,0.03969889646,0.01086917297
4.97,0.04029942824,0.007519126166
4.98,0.04061827541,0.004145836146
4.99,0.04065586541,0.0007728892378
5,0.04041459078,-0.002576373255
5.01,0.03989877013,-0.005879017781
5.02,0.03911459576,-0.00911267635
5.03,0.03807006845,-0.01225569836
5.04,0.03677492007,-0.01528729539
5.05,0.03524052475,-0.01818767799
5.06,0.03347979942,-0.02093818365
5.07,0.03150709458,-0.02352139501
5.08,0.02933807613,-0.02592124769
5.09,0.02698959947,-0.02812312708
5.1,0.02447957664,-0.0301139535
5.11,0.02182683769,-0.03188225531
5.12,0.01905098741,-0.03341822958
5.13,0.01617225838,-0.03471379011
5.14,0.01321136158,-0.03576260258
5.15,0.01018933565,-0.03656010679
5.16,0.007127395796,-0.03710352602
5.17,0.004046783662,-0.03739186357
5.18,0.0009686190041,-0.03742588686
5.19,-0.00208624565,-0.03720809916
5.2,-0.005097366409,-0.03674269954
5.21,-0.008044844518,-0.0360355314
5.22,-0.01090945707,-0.03509402016
5.23,-0.01367278103,-0.0339271007
5.24,-0.0163173099,-0.03254513526
5.25,-0.01882656212,-0.03095982258
5.26,-0.02118518076,-0.02918409891
5.27,-0.02337902382,-0.02723203192
5.28,-0.02539524461,-0.02511870829
5.29,-0.027222362,-0.02286011584
5.3,-0.02885031986,-0.02047302123
5.31,-0.03027053585,-0.0179748441
5.32,-0.03147593907,-0.01538352863
5.33,-0.03246099666,-0.01271741351
5.34,-0.03322172932,-0.00999510114
5.35,-0.03375571577,-0.007235327198
5.36,-0.03406208639,-0.004456831304
5.37,-0.03414150628,-0.001678229792
5.38,-0.03399614792,0.001082108603
5.39,-0.03362965399,0.003806183307
5.4,-0.03304709062,0.006476477931
5.41,-0.03225489173,0.00907607104
5.42,-0.03126079484,0.01158874097
5.43,-0.03007376912,0.01399906409
5.44,-0.02870393625,0.01629250592
5.45,-0.02716248474,0.01845550462
5.46,-0.02546157851,0.02047554639
5.47,-0.02361426046,0.02234123251
5.48,-0.02163435172,0.0240423375
5.49,-0.01953634749,0.02556985845
5.5,-0.01733531013,0.02691605508
5.51,-0.0150467604,0.0280744807
5.52,-0.01268656755,0.02904000376
5.53,-0.01027083911,0.02980882028
5.54,-0.007815811088,0.03037845713
5.55,-0.005337739378,0.03074776635
5.56,-0.002852793028,0.03091691068
5.57,-0.0003769501199,0.03088734078
5.58,0.002074103121,0.03066176417
5.59,0.004485069355,0.03024410653
5.6,0.006841132728,0.02963946568
5.61,0.009128046495,0.02885405874
5.62,0.01133221521,0.02789516289
5.63,0.01344077103,0.02677105045
5.64,0.01544164374,0.02549091861
5.65,0.01732362422,0.02406481466
5.66,0.01907642099,0.02250355708
5.67,0.02069070973,0.02081865326
5.68,0.02215817551,0.01902221446
5.69,0.02347154764,0.01712686853
5.7,0.02462462714,0.01514567122
5.71,0.02561230675,0.01309201646
5.72,0.02643058357,0.01097954644
5.73,0.02707656439,0.008822061913
5.74,0.02754846394,0.006633433438
5.75,0.02784559606,0.00442751401
5.76,0.0279683583,0.002218053673
5.77,0.02791820991,1.861660398E-05
5.78,0.02769764375,-0.002157498877
5.79,0.02731015239,-0.004297336909
5.8,0.02676018867,-0.006388356922
5.81,0.02605312129,-0.008418502319
5.82,0.02519518569,-0.01037626469
5.83,0.02419343072,-0.01225074325
5.84,0.02305566153,-0.01403169932
5.85,0.02179037915,-0.01570960551
5.86,0.02040671721,-0.01727568961
5.87,0.01891437626,-0.01872197292
5.88,0.01732355619,-0.02004130302
5.89,0.01564488718,-0.02122738086
5.9,0.01388935966,-0.02227478226
5.91,0.01206825373,-0.02317897375
5.92,0.01019306847,-0.02393632286
5.93,0.008275451572,-0.02454410294
5.94,0.006327129671,-0.02500049266
5.95,0.004359839845,-0.02530457031
5.96,0.00238526255,-0.02545630309
5.97,0.0004149564057,-0.02545653166
5.98,-0.001539704876,-0.02530695003
5.99,-0.003467593108,-0.02501008118
6,-0.005357883533,-0.02456924865
