"Freq [GHz]","re(S(Tx_p1,Tx_p1)) []","im(S(Tx_p1,Tx_p1)) []"
1,0.09754435186,0.07293482586
1.01,0.1028982098,0.06446158201
1.02,0.1075188151,0.05559611843
1.03,0.111377445,0.04640205113
1.04,0.1144509388,0.03694508757
1.05,0.1167218468,0.0272925355
1.06,0.1181785354,0.01751280179
1.07,0.1188152482,0.007674885013
1.08,0.1186321216,-0.002152133979
1.09,0.1176351575,-0.01189959989
1.1,0.1158361501,-0.02149978507
1.11,0.1132525707,-0.03088638216
1.12,0.1099074103,-0.03999498346
1.13,0.1058289805,-0.04876354349
1.14,0.1010506766,-0.05713282126
1.15,0.09561070321,-0.0650467989
1.16,0.08955176551,-0.07245307366
1.17,0.08292072836,-0.07930322038
1.18,0.07576824641,-0.08555312188
1.19,0.06814836799,-0.09116326485
1.2,0.06011811608,-0.09609899931
1.21,0.05173704974,-0.1003307597
1.22,0.04306680944,-0.1038342467
1.23,0.03417065001,-0.1065905673
1.24,0.02511296466,-0.1085863346
1.25,0.01595880409,-0.1098137246
1.26,0.006773394067,-0.1102704911
1.27,-0.002378344473,-0.1099599384
1.28,-0.01143226944,-0.1088908533
1.29,-0.02032548195,-0.1070773955
1.3,-0.02899677756,-0.1045389495
1.31,-0.03738708114,-0.1012999376
1.32,-0.04543986208,-0.09738959731
1.33,-0.05310152681,-0.09284172467
1.34,-0.06032178587,-0.08769438487
1.35,-0.06705399298,-0.08198959409
1.36,-0.07325545357,-0.07577297424
1.37,-0.07888770092,-0.06909338392
1.38,-0.08391673794,-0.06200252852
1.39,-0.08831324304,-0.05455455271
1.4,-0.09205273899,-0.04680561855
1.41,-0.09511572367,-0.03881347258
1.42,-0.09748776218,-0.03063700549
1.43,-0.09915953997,-0.02233580749
1.44,-0.1001268769,-0.01396972325
1.45,-0.1003907028,-0.00559840947
1.46,-0.09995699447,0.002719101374
1.47,-0.09883667589,0.0109248278
1.48,-0.09704548218,0.01896225354
1.49,-0.09460378886,0.02677672608
1.5,-0.09153640826,0.03431583666
1.51,-0.08787235489,0.04152977906
1.52,-0.08364458193,0.04837168452
1.53,-0.07888969131,0.05479793066
1.54,-0.07364761974,0.06076842229
1.55,-0.06796130356,0.0662468421
1.56,-0.06187632514,0.07120086997
1.57,-0.0554405438,0.07560236933
1.58,-0.04870371435,0.07942753969
1.59,-0.04171709621,0.08265703452
1.6,-0.03453305643,0.08527604403
1.61,-0.02720466951,0.08727434269
1.62,-0.01978531741,0.08864630155
1.63,-0.01232829267,0.08939086572
1.64,-0.004886407622,0.08951149771
1.65,0.002488387146,0.08901608747
1.66,0.009745372509,0.08791683029
1.67,0.01683541585,0.08623007403
1.68,0.02371130892,0.08397613716
1.69,0.03032808624,0.08117909959
1.7,0.03664332169,0.07786656814
1.71,0.04261740144,0.07406941902
1.72,0.04821377145,0.06982151951
1.73,0.05339915791,0.06515943136
1.74,0.05814375945,0.06012209858
1.75,0.06242140992,0.0547505221
1.76,0.06620971107,0.04908742424
1.77,0.06949013452,0.04317690563
1.78,0.07224809266,0.03706409738
1.79,0.07447297857,0.03079481136
1.8,0.07615817498,0.02441519133
1.81,0.07730103298,0.01797136747
1.82,0.07790282077,0.01150911727
1.83,0.07796864384,0.005073534953
1.84,0.07750733722,-0.001291287827
1.85,0.07653133156,-0.007542567902
1.86,0.07505649422,-0.01363912088
1.87,0.07310194726,-0.01954163382
1.88,0.07068986417,-0.02521291853
1.89,0.06784524717,-0.03061814378
1.9,0.06459568745,-0.035725045
1.91,0.06097111034,-0.04050411036
1.92,0.05700350776,-0.04492874206
1.93,0.05272666046,-0.04897539215
1.94,0.04817585218,-0.05262367224
1.95,0.04338757839,-0.05585643683
1.96,0.0383992519,-0.05865984006
1.97,0.03324890777,-0.06102336601
1.98,0.02797490981,-0.06293983288
1.99,0.02261566117,-0.0644053715
2,0.01720932092,-0.06541937898
2.01,0.01179352907,-0.06598444834
2.02,0.006405141787,-0.06610627519
2.03,0.001079978873,-0.06579354279
2.04,-0.004147414871,-0.06505778683
2.05,-0.009243992722,-0.06391324155
2.06,-0.01417841216,-0.06237666873
2.07,-0.01892122278,-0.06046717147
2.08,-0.02344503488,-0.05820599459
2.09,-0.02772466786,-0.05561631344
2.1,-0.03173727771,-0.05272301339
2.11,-0.03546246309,-0.04955246169
2.12,-0.03888234964,-0.046132274
2.13,-0.04198165244,-0.04249107754
2.14,-0.0447477166,-0.03865827276
2.15,-0.04717053629,-0.03466379574
2.16,-0.04924275262,-0.03053788307
2.17,-0.05095963091,-0.02631084114
2.18,-0.05231901812,-0.02201282159
2.19,-0.05332128135,-0.01767360467
2.2,-0.0539692285,-0.01332239199
2.21,-0.05426801207,-0.008987610157
2.22,-0.0542250177,-0.004696726633
2.23,-0.0538497385,-0.0004760789656
2.24,-0.05315363685,0.003649281575
2.25,-0.0521499952,0.007655731061
2.26,-0.05085375735,0.01152119796
2.27,-0.04928136196,0.01522527165
2.28,-0.04745056988,0.0187492939
2.29,-0.04538028711,0.02207643323
2.3,-0.04309038475,0.02519174196
2.31,-0.04060151801,0.02808219607
2.32,-0.03793494544,0.03073671807
2.33,-0.03511235031,0.03314618342
2.34,-0.03215566536,0.03530341074
2.35,-0.02908690249,0.03720313674
2.36,-0.02592798867,0.0388419765
2.37,-0.02270060921,0.04021837001
2.38,-0.01942605976,0.04133251597
2.39,-0.01612510766,0.04218629395
2.4,-0.01281786395,0.04278317604
2.41,-0.009523666435,0.04312812915
2.42,-0.006260974646,0.04322750937
2.43,-0.003047277118,0.04308894955
2.44,0.0001009886748,0.04272124152
2.45,0.003168503489,0.04213421418
2.46,0.006141120504,0.04133860895
2.47,0.009005906594,0.04034595372
2.48,0.01175117085,0.03916843672
2.49,0.01436648064,0.03781878141
2.5,0.01684266565,0.03631012373
2.51,0.01917181045,0.03465589271
2.52,0.02134723606,0.03286969552
2.53,0.02336347153,0.03096520794
2.54,0.02521621597,0.02895607112
2.55,0.02690229228,0.02685579534
2.56,0.02841959315,0.02467767152
2.57,0.0297670206,0.022434691
2.58,0.03094441995,0.02013947401
2.59,0.03195250925,0.0178042072
2.6,0.0327928053,0.01544059047
2.61,0.03346754724,0.01305979308
2.62,0.03397961885,0.01067241924
2.63,0.03433247054,0.00828848281
2.64,0.03453004198,0.005917391111
2.65,0.03457668642,0.003567937365
2.66,0.03447709753,0.001248301413
2.67,0.03423623963,-0.001033941824
2.68,0.03385928201,-0.003271806728
2.69,0.03335153817,-0.005458874869
2.7,0.0327184104,-0.007589267131
2.71,0.03196534035,-0.009657610852
2.72,0.03109776598,-0.0116590028
2.73,0.03012108511,-0.01358896884
2.74,0.02904062599,-0.01544342117
2.75,0.02786162474,-0.01721861403
2.76,0.02658920996,-0.01891109871
2.77,0.02522839421,-0.02051767884
2.78,0.02378407227,-0.02203536665
2.79,0.02226102589,-0.02346134125
2.8,0.02066393469,-0.02479290949
2.81,0.01899739271,-0.02602747018
2.82,0.01726593009,-0.02716248251
2.83,0.01547403936,-0.028195439
2.84,0.01362620554,-0.02912384366
2.85,0.01172693946,-0.02994519587
2.86,0.009780813456,-0.03065698012
2.87,0.007792498706,-0.03125666204
2.88,0.005766803308,-0.03174169092
2.89,0.00370871035,-0.03210950863
2.9,0.00162341507,-0.03235756504
2.91,-0.0004836397156,-0.03248333985
2.92,-0.002606730717,-0.03248437045
2.93,-0.004739824625,-0.03235828573
2.94,-0.006876552646,-0.03210284524
2.95,-0.009010189844,-0.03171598331
2.96,-0.01113363992,-0.03119585755
2.97,-0.01323942606,-0.03054090114
2.98,-0.01531968828,-0.02974987804
2.99,-0.01736618779,-0.02882194057
3,-0.01937031874,-0.02775668837
3.01,-0.02132312742,-0.02655422798
3.02,-0.02321533939,-0.02521523212
3.03,-0.0250373943,-0.02374099767
3.04,-0.02677948851,-0.02213350167
3.05,-0.02843162544,-0.02039545408
3.06,-0.02998367318,-0.01853034672
3.07,-0.03142542929,-0.01654249722
3.08,-0.0327466921,-0.01443708736
3.09,-0.03393733818,-0.01222019476
3.1,-0.03498740519,-0.009898817378
3.11,-0.0358871795,-0.007480889959
3.12,-0.03662728772,-0.004975291843
3.13,-0.03719879132,-0.002391845643
3.14,-0.03759328339,0.000258693724
3.15,-0.03780298654,0.002964659999
3.16,-0.03782085091,0.005713506794
3.17,-0.03764065128,0.008491849219
3.18,-0.03725708211,0.01128551597
3.19,-0.03666584947,0.0140796118
3.2,-0.03586375867,0.01685859022
3.21,-0.03484879663,0.0196063361
3.22,-0.03362020779,0.0223062578
3.23,-0.03217856258,0.02494138826
3.24,-0.03052581744,0.02749449449
3.25,-0.02866536547,0.02994819462
3.26,-0.02660207681,0.03228508182
3.27,-0.024342328,0.03448785396
3.28,-0.02189401952,0.03653944821
3.29,-0.01926658105,0.03842317934
3.3,-0.01647096377,0.04012288057
3.31,-0.01351961946,0.04162304583
3.32,-0.01042646601,0.04290897207
3.33,-0.007206839229,0.04396690035
3.34,-0.003877430973,0.04478415441
3.35,-0.0004562135787,0.04534927526
3.36,0.003037649051,0.04565215067
3.37,0.006583903404,0.04568413793
3.38,0.01016132084,0.04543817886
3.39,0.01374782396,0.04490890565
3.4,0.01732062419,0.0440927363
3.41,0.02085636951,0.04298795864
3.42,0.02433130162,0.04159480177
3.43,0.02772142115,0.03991549388
3.44,0.03100265999,0.03795430578
3.45,0.03415105918,0.03571757907
3.46,0.03714295122,0.03321373856
3.47,0.0399551452,0.03045328827
3.48,0.04256511335,0.02744879061
3.49,0.04495117738,0.02421482855
3.5,0.04709269309,0.02076795067
3.51,0.0489702316,0.01712659898
3.52,0.05056575567,0.01331101995
3.53,0.05186278941,0.009343158829
3.54,0.0528465799,0.005246537953
3.55,0.05350424914,0.001046119533
3.56,0.05382493488,-0.0032318462
3.57,0.0537999188,-0.007559986613
3.58,0.05342274094,-0.01190998495
3.59,0.05268929886,-0.01625277014
3.6,0.05159793059,-0.02055871669
3.61,0.05014948027,-0.02479785344
3.62,0.04834734558,-0.02894007944
3.63,0.04619750624,-0.03295538548
3.64,0.04370853296,-0.03681407951
3.65,0.0408915763,-0.04048701418
3.66,0.03776033533,-0.04394581485
3.67,0.03433100578,-0.04716310593
3.68,0.03062220776,-0.05011273401
3.69,0.02665489336,-0.05276998574
3.7,0.02245223433,-0.0551117986
3.71,0.01803949057,-0.05711696289
3.72,0.01344386006,-0.05876631293
3.73,0.00869431104,-0.06004290604
3.74,0.003821397675,-0.06093218738
3.75,-0.001142939786,-0.06142213925
3.76,-0.006165588917,-0.06150341345
3.77,-0.01121249164,-0.06116944519
3.78,-0.01624888176,-0.06041654757
3.79,-0.02123953181,-0.05924398532
3.8,-0.02614900734,-0.0576540272
3.81,-0.03094192687,-0.05565197605
3.82,-0.03558322537,-0.05324617607
3.83,-0.04003841933,-0.05044799686
3.84,-0.04427387142,-0.04727179411
3.85,-0.04825705245,-0.04373484679
3.86,-0.05195679873,-0.03985727109
3.87,-0.05534356262,-0.03566191146
3.88,-0.05838965427,-0.03117420925
3.89,-0.06106947247,-0.02642204976
3.9,-0.06335972277,-0.02143558848
3.91,-0.06523962082,-0.01624705781
3.92,-0.06669107934,-0.01089055531
3.93,-0.06769887694,-0.005401815075
3.94,-0.06825080726,0.0001820362819
3.95,-0.06833780705,0.005822737297
3.96,-0.06795406191,0.01148116112
3.97,-0.06709708869,0.01711759481
3.98,-0.06576779347,0.02269202645
3.99,-0.06397050457,0.02816443784
4,-0.06171297995,0.03349510068
4.01,-0.0590063887,0.03864487387
4.02,-0.0558652664,0.04357549969
4.03,-0.05230744463,0.04824989658
4.04,-0.04835395457,0.05263244611
4.05,-0.04402890554,0.05668927201
4.06,-0.03935933887,0.06038850885
4.07,-0.03437505811,0.06370055835
4.08,-0.02910843669,0.06659833113
4.09,-0.02359420421,0.06905747186
4.1,-0.01786921289,0.07105656605
4.11,-0.01197218566,0.07257732656
4.12,-0.005943447889,0.07360475832
4.13,0.0001753555914,0.07412729973
4.14,0.006341555921,0.07413693948
4.15,0.01251176604,0.07362930767
4.16,0.01864219465,0.07260374028
4.17,0.02468896588,0.07106331633
4.18,0.03060844238,0.06901486716
4.19,0.03635754931,0.06646895756
4.2,0.04189409675,0.06343983867
4.21,0.04717709804,0.05994537279
4.22,0.0521670817,0.05600693044
4.23,0.05682639426,0.0516492603
4.24,0.06111949192,0.04690033271
4.25,0.06501321838,0.0417911579
4.26,0.06847706698,0.03635557998
4.27,0.07148342476,0.03063004826
4.28,0.07400779657,0.02465336736
4.29,0.0760290074,0.01846642792
4.3,0.07752938118,0.01211191983
4.31,0.07849489461,0.005634030147
4.32,0.07891530459,-0.0009218723533
4.33,0.07878424825,-0.00750956335
4.34,0.07809931449,-0.0140822977
4.35,0.07686208649,-0.02059315011
4.36,0.07507815453,-0.02699535924
4.37,0.07275709897,-0.03324267256
4.38,0.0699124433,-0.03928968956
4.39,0.06656157747,-0.04509220036
4.4,0.06272565192,-0.0506075175
4.41,0.0584294429,-0.05579479803
4.42,0.0537011901,-0.06061535366
4.43,0.04857240749,-0.0650329464
4.44,0.04307766885,-0.06901406745
4.45,0.03725436938,-0.07252819709
4.46,0.0311424651,-0.07554804365
4.47,0.02478419191,-0.07804975948
4.48,0.01822376643,-0.08001313226
4.49,0.01150707066,-0.0814217502
4.5,0.004681322882,-0.08226313954
4.51,-0.002205262865,-0.08252887345
4.52,-0.009103826059,-0.08221465121
4.53,-0.01596521529,-0.08132034703
4.54,-0.02274034739,-0.07985002803
4.55,-0.02938056751,-0.07781194114
4.56,-0.03583800726,-0.07521846879
4.57,-0.04206593849,-0.07208605385
4.58,-0.0480191197,-0.06843509404
4.59,-0.05365413269,-0.06428980664
4.6,-0.05892970683,-0.05967806436
4.61,-0.0638070284,-0.05463120364
4.62,-0.06825003265,-0.04918380653
4.63,-0.07222567649,-0.04337345788
4.64,-0.07570418941,-0.03724047961
4.65,-0.07865930102,-0.0308276438
4.66,-0.08106844314,-0.02417986697
4.67,-0.08291292509,-0.01734388756
4.68,-0.0841780807,-0.01036792914
4.69,-0.08485338582,-0.003301351798
4.7,-0.08493254552,0.003805705716
4.71,-0.08441355017,0.01090269044
4.72,-0.08329869993,0.01793900346
4.73,-0.08159459742,0.02486436932
4.74,-0.07931210855,0.03162920374
4.75,-0.07646629182,0.03818497691
4.76,-0.07307629644,0.04448456969
4.77,-0.06916523013,0.05048261992
4.78,-0.06475999738,0.05613585641
4.79,-0.05989110958,0.06140341786
4.8,-0.05459246808,0.0662471546
4.81,-0.04890112212,0.07063191058
4.82,-0.04285700311,0.07452578377
4.83,-0.03650263743,0.07790036267
4.84,-0.02988283974,0.08073093756
4.85,-0.0230443892,0.08299668449
4.86,-0.01603569087,0.0846808209
4.87,-0.008906424886,0.08577073154
4.88,-0.001707185998,0.08625806385
4.89,0.005510883817,0.08613879193
4.9,0.012696467,0.08541324882
4.91,0.01979844347,0.08408612657
4.92,0.02676626242,0.08216644443
4.93,0.03355030993,0.07966748505
4.94,0.04010226988,0.0766066994
4.95,0.04637547521,0.0730055811
4.96,0.05232524722,0.06888951092
4.97,0.05790922011,0.06428757289
4.98,0.06308764858,0.05923234312
4.99,0.06782369602,0.05375965315
5,0.07208370138,0.0479083294
5.01,0.07583742252,0.04171991083
5.02,0.07905825442,0.03523834681
5.03,0.08172342059,0.0285096775
5.04,0.08381413629,0.02158169915
5.05,0.08531574238,0.01450361673
5.06,0.08621780882,0.007325686582
5.07,0.08651420714,9.88516964E-05
5.08,0.08620315132,-0.007125627711
5.09,0.08528720689,-0.01429654551
5.1,0.08377326808,-0.02136312013
5.11,0.0816725035,-0.02827536152
5.12,0.07900027048,-0.03498443178
5.13,0.07577599903,-0.04144299687
5.14,0.07202304615,-0.04760556685
5.15,0.06776852172,-0.05342882207
5.16,0.06304308724,-0.058871923
5.17,0.05788072901,-0.06389680142
5.18,0.05231850746,-0.06846843083
5.19,0.04639628451,-0.07255507419
5.2,0.04015643106,-0.07612850718
5.21,0.03364351675,-0.0791642154
5.22,0.02690398437,-0.08164156406
5.23,0.01998581139,-0.0835439391
5.24,0.01293816097,-0.08485885866
5.25,0.005811025264,-0.08557805422
5.26,-0.001345136483,-0.08569752085
5.27,-0.008479762322,-0.08521753632
5.28,-0.01554255179,-0.08414264904
5.29,-0.02248382724,-0.08248163491
5.3,-0.0292548896,-0.08024742364
5.31,-0.03580836608,-0.07745699501
5.32,-0.04209854721,-0.07413124608
5.33,-0.04808171076,-0.07029483029
5.34,-0.05371643032,-0.06597596987
5.35,-0.05896386615,-0.06120624281
5.36,-0.06378803645,-0.05602034629
5.37,-0.06815606691,-0.05045583824
5.38,-0.07203841697,-0.04455285893
5.39,-0.07540908108,-0.03835383498
5.4,-0.07824576368,-0.03190316771
5.41,-0.0805300267,-0.02524690834
5.42,-0.08224740857,-0.01843242249
5.43,-0.08338751398,-0.01150804635
5.44,-0.08394407397,-0.004522737208
5.45,-0.08391497586,0.002474279192
5.46,-0.08330226308,0.009433861829
5.47,-0.08211210493,0.01630730552
5.48,-0.08035473666,0.02304668748
5.49,-0.07804437052,0.02960520672
5.5,-0.07519907837,0.03593751394
5.51,-0.07184064705,0.04200002954
5.52,-0.06799440753,0.04775124739
5.53,-0.06368903936,0.05315202235
5.54,-0.05895635178,0.05816583939
5.55,-0.05383104338,0.06275906262
5.56,-0.04835044208,0.06690116232
5.57,-0.04255422736,0.07056491855
5.58,-0.03648413707,0.07372659996
5.59,-0.03018366069,0.07636611665
5.6,-0.02369772176,0.078467146
5.61,-0.0170723514,0.08001723094
5.62,-0.01035435575,0.08100784974
5.63,-0.003590979465,0.08143445737
5.64,0.00317043209,0.08129649799
5.65,0.009882769554,0.08059738876
5.66,0.01649949276,0.0793444753
5.67,0.02297495799,0.07754895919
5.68,0.02926473698,0.07522579827
5.69,0.03532592538,0.07239358061
5.7,0.04111743856,0.06907437318
5.71,0.04660029263,0.0652935466
5.72,0.05173786883,0.06107957716
5.73,0.05649615934,0.056463828
5.74,0.06084399303,0.05148031082
5.75,0.06475323953,0.04616543024
5.76,0.06819899028,0.04055771261
5.77,0.07115971555,0.03469752144
5.78,0.07361739627,0.0286267615
5.79,0.07555763,0.0223885738
5.8,0.07696971051,0.01602702385
5.81,0.07784668043,0.009586785265
5.82,0.07818535688,0.003112821271
5.83,0.0779863301,-0.003349933816
5.84,0.07725393525,-0.009756890662
5.85,0.07599619773,-0.01606411639
5.86,0.07422475276,-0.02222863922
5.87,0.07195473982,-0.02820874414
5.88,0.06920467296,-0.03396425757
5.89,0.06599628817,-0.03945681899
5.9,0.06235436899,-0.04465013786
5.91,0.05830655173,-0.04951023384
5.92,0.05388311206,-0.05400565901
5.93,0.04911673439,-0.05810770041
5.94,0.04404226605,-0.0617905617
5.95,0.03869645797,-0.06503152292
5.96,0.03311769396,-0.06781107711
5.97,0.02734571055,-0.07011304334
5.98,0.02142130949,-0.07192465524
5.99,0.01538606497,-0.07323662485
6,0.009282027804,-0.07404318135
