"Freq [GHz]","re(S(Tx_p1,Tx_p1)) []","im(S(Tx_p1,Tx_p1)) []"
1,0.1047926937,0.08321434154
1.01,0.1109567528,0.07414307591
1.02,0.1163388024,0.06461501322
1.03,0.1209048982,0.05469772569
1.04,0.1246269803,0.04446130511
1.05,0.1274830566,0.03397784525
1.06,0.1294573422,0.02332091132
1.07,0.1305403504,0.01256500048
1.08,0.1307289375,0.001784997708
1.09,0.1300262997,-0.008944369102
1.1,0.128441923,-0.01954907034
1.11,0.1259914868,-0.02995630831
1.12,0.1226967216,-0.04009503924
1.13,0.1185852225,-0.04989647964
1.14,0.1136902207,-0.05929459351
1.15,0.1080503133,-0.06822655651
1.16,0.1017091561,-0.07663319396
1.17,0.09471511935,-0.08445938933
1.18,0.08712091118,-0.09165446047
1.19,0.07898317113,-0.09817250068
1.2,0.07036203666,-0.1039726826
1.21,0.06132068668,-0.1090195223
1.22,0.05192486526,-0.113283103
1.23,0.0422423896,-0.1167392549
1.24,0.0323426457,-0.1193696928
1.25,0.02229607599,-0.121162108
1.26,0.01217366259,-0.1221102163
1.27,0.002046410208,-0.122213761
1.28,-0.008015167415,-0.1214784705
1.29,-0.01794155364,-0.1199159738
1.3,-0.02766472395,-0.1175436709
1.31,-0.0371186262,-0.1143845635
1.32,-0.0462396425,-0.1104670442
1.33,-0.05496702954,-0.1058246489
1.34,-0.06324333414,-0.1004957718
1.35,-0.07101478103,-0.09452334849
1.36,-0.07823163036,-0.08795450685
1.37,-0.0848485023,-0.08084019081
1.38,-0.09082466672,-0.07323475894
1.39,-0.09612429599,-0.06519556148
1.4,-0.1007166794,-0.05678249914
1.41,-0.1045763978,-0.04805756707
1.42,-0.1076834579,-0.03908438773
1.43,-0.1100233848,-0.02992773608
1.44,-0.1115872734,-0.02065306095
1.45,-0.1123717983,-0.01132600602
1.46,-0.1123791819,-0.002011934174
1.47,-0.1116171228,0.00722454128
1.48,-0.110098684,0.01632001512
1.49,-0.1078421427,0.02521273501
1.5,-0.1048708038,0.03384302945
1.51,-0.1012127779,0.04215371587
1.52,-0.09690072662,0.05009048586
1.53,-0.09197157673,0.05760226512
1.54,-0.08646620676,0.06464154545
1.55,-0.08042910757,0.07116468684
1.56,-0.07390802042,0.07713218752
1.57,-0.06695355523,0.08250892043
1.58,-0.05961879238,0.08726433476
1.59,-0.05195887095,0.09137262126
1.6,-0.04403056694,0.09481284075
1.61,-0.03589186451,0.09756901523
1.62,-0.02760152383,0.09963018125
1.63,-0.01921864853,0.1009904058
1.64,-0.01080225629,0.1016487649
1.65,-0.002410855577,0.1016092857
1.66,0.005897968298,0.100880853
1.67,0.01406795479,0.09947708118
1.68,0.02204455458,0.09741615282
1.69,0.02977529819,0.09472062657
1.7,0.03721014413,0.09141721494
1.71,0.0443018044,0.08753653497
1.72,0.05100604501,0.08311283359
1.73,0.05728195987,0.07818369037
1.74,0.06309221605,0.07278970004
1.75,0.06840326934,0.06697413756
1.76,0.07318554862,0.06078260854
1.77,0.07741360829,0.05426268778
1.78,0.08106624809,0.04746354895
1.79,0.0841265998,0.04043558822
1.8,0.08658218086,0.03323004488
1.81,0.08842491484,0.0258986218
1.82,0.08965111929,0.01849310862
1.83,0.09026146155,0.01106501041
1.84,0.09026088329,0.003665184646
1.85,0.08965849501,-0.003656511076
1.86,0.08846744173,-0.01085155792
1.87,0.08670474142,-0.01787309912
1.88,0.08439109775,-0.02467624545
1.89,0.08155068919,-0.03121836086
1.9,0.07821093639,-0.03745932654
1.91,0.07440224994,-0.04336178175
1.92,0.0701577609,-0.04889134
1.93,0.06551303635,-0.0540167795
1.94,0.06050578243,-0.05871020675
1.95,0.05517553736,-0.06294719273
1.96,0.04956335699,-0.06670688111
1.97,0.04371149533,-0.06997206811
1.98,0.0376630826,-0.07272925411
1.99,0.03146180337,-0.07496866714
2,0.02515157713,-0.0766842586
2.01,0.0187762437,-0.07787367181
2.02,0.01237925575,-0.07853818428
2.03,0.006003380681,-0.07868262461
2.04,-0.0003095861798,-0.07831526523
2.05,-0.006519095053,-0.07744769224
2.06,-0.01258610009,-0.07609465404
2.07,-0.01847330106,-0.07427389007
2.08,-0.02414536682,-0.07200594177
2.09,-0.02956913935,-0.06931394725
2.1,-0.03471381722,-0.06622342185
2.11,-0.03955111759,-0.06276202655
2.12,-0.04405541596,-0.05895932619
2.13,-0.04820386327,-0.0548465397
2.14,-0.05197647984,-0.05045628437
2.15,-0.05535622622,-0.04582231628
2.16,-0.05832905074,-0.04097926903
2.17,-0.06088391424,-0.03596239267
2.18,-0.06301279225,-0.03080729498
2.19,-0.06471065515,-0.0255496869
2.2,-0.06597542726,-0.02022513401
2.21,-0.06680792543,-0.01486881579
2.22,-0.06721177857,-0.009515294267
2.23,-0.06719332881,-0.004198293583
2.24,-0.06676151602,0.001049508126
2.25,-0.06592774675,0.006196673319
2.26,-0.06470574912,0.01121318499
2.27,-0.06311141537,0.01607061103
2.28,-0.06116263341,0.02074225218
2.29,-0.05887910914,0.02520327297
2.3,-0.05628218129,0.02943081517
2.31,-0.0533946302,0.03340409343
2.32,-0.05024048249,0.03710447289
2.33,-0.04684481311,0.04051552885
2.34,-0.04323354641,0.04362308857
2.35,-0.03943325788,0.04641525555
2.36,-0.03547097804,0.04888241658
2.37,-0.03137399989,0.05101723229
2.38,-0.02716969137,0.05281461178
2.39,-0.02288531412,0.05427167205
2.4,-0.01854784961,0.0553876833
2.41,-0.01418383388,0.05616400091
2.42,-0.009819201737,0.05660398517
2.43,-0.005479141314,0.05671291001
2.44,-0.00118795973,0.05649786176
2.45,0.003031039588,0.05596762922
2.46,0.007155667402,0.0551325863
2.47,0.01116494664,0.05400456844
2.48,0.01503919762,0.05259674413
2.49,0.01876011044,0.05092348271
2.5,0.0223108045,0.04900021978
2.51,0.02567587533,0.04684332138
2.52,0.02884142894,0.04446994805
2.53,0.03179510405,0.04189792002
2.54,0.03452608262,0.03914558438
2.55,0.03702508927,0.03623168545
2.56,0.03928438003,0.03317523905
2.57,0.04129772139,0.02999541164
2.58,0.04306036008,0.02671140496
2.59,0.04456898456,0.02334234691
2.6,0.04582167904,0.01990718914
2.61,0.04681787081,0.0164246119
2.62,0.04755827184,0.0129129364
2.63,0.04804481554,0.009390045026
2.64,0.0482805895,0.005873309497
2.65,0.04826976518,0.002379527155
2.66,0.04801752543,-0.001075134778
2.67,0.04752999054,-0.00447518699
2.68,0.04681414379,-0.007805858135
2.69,0.04587775712,-0.01105312743
2.7,0.04472931776,-0.01420375011
2.71,0.04337795628,-0.01724527617
2.72,0.04183337688,-0.02016606287
2.73,0.04010579017,-0.02295528136
2.74,0.03820584915,-0.02560291827
2.75,0.03614458852,-0.02809977245
2.76,0.03393336783,-0.03043744787
2.77,0.03158381848,-0.03260834292
2.78,0.02910779488,-0.03460563696
2.79,0.02651732973,-0.03642327471
2.8,0.02382459347,-0.03805594894
2.81,0.02104185774,-0.0394990822
2.82,0.01818146282,-0.04074880803
2.83,0.01525578874,-0.04180195227
2.84,0.01227722985,-0.0426560148
2.85,0.009258172441,-0.04330915229
2.86,0.00621097518,-0.04376016223
2.87,0.003147951881,-0.04400846857
2.88,8.135614949E-05,-0.0440541093
2.89,-0.002976632497,-0.04389772604
2.9,-0.006013921551,-0.04354055587
2.91,-0.009018517942,-0.04298442541
2.92,-0.01197854046,-0.0422317471
2.93,-0.01488223267,-0.04128551774
2.94,-0.01771797672,-0.04014931899
2.95,-0.02047430855,-0.03882731969
2.96,-0.02313993485,-0.03732427981
2.97,-0.02570375221,-0.03564555561
2.98,-0.02815486865,-0.03379710566
2.99,-0.03048262797,-0.03178549734
3,-0.03267663701,-0.0296179134
3.01,-0.03472679605,-0.02730215799
3.02,-0.03662333239,-0.02484666174
3.03,-0.03835683724,-0.02226048532
3.04,-0.03991830574,-0.01955332102
3.05,-0.04129918011,-0.01673549166
3.06,-0.04249139571,-0.01381794645
3.07,-0.04348742979,-0.01081225321
3.08,-0.04428035256,-0.007730586448
3.09,-0.04486388025,-0.004585710896
3.1,-0.04523242972,-0.001390959955
3.11,-0.04538117403,0.001839791188
3.12,-0.04530609851,0.005092158206
3.13,-0.04500405676,0.008351286261
3.14,-0.04447282574,0.01160189484
3.15,-0.04371115946,0.01482832894
3.16,-0.0427188405,0.01801461662
3.17,-0.04149672858,0.02114453299
3.18,-0.04004680553,0.02420167041
3.19,-0.03837221578,0.02716951493
3.2,-0.03647730181,0.03003152841
3.21,-0.03436763366,0.03277123625
3.22,-0.0320500319,0.0353723202
3.23,-0.02953258342,0.03781871565
3.24,-0.0268246493,0.04009471297
3.25,-0.02393686427,0.04218506212
3.26,-0.02088112725,0.04407507982
3.27,-0.01767058247,0.04575075859
3.28,-0.01431959083,0.04719887656
3.29,-0.01084369119,0.04840710747
3.3,-0.007259551399,0.04936412958
3.31,-0.003584908948,0.05005973278
3.32,0.0001614988295,0.05048492269
3.33,0.003960014845,0.05063202087
3.34,0.007790152504,0.05049475994
3.35,0.01163069581,0.05006837278
3.36,0.01545980895,0.04934967464
3.37,0.01925515483,0.04833713723
3.38,0.02299402205,0.04703095379
3.39,0.02665345945,0.04543309431
3.4,0.03021041769,0.04354734997
3.41,0.03364189671,0.04137936606
3.42,0.03692509832,0.03893666258
3.43,0.04003758269,0.03622864202
3.44,0.04295742781,0.03326658367
3.45,0.0456633905,0.03006362411
3.46,0.04813506803,0.02663472345
3.47,0.05035305874,0.02299661722
3.48,0.05229912062,0.01916775367
3.49,0.05395632635,0.0151682167
3.5,0.05530921354,0.01101963434
3.51,0.0563439287,0.006745073212
3.52,0.05704836379,0.002368919392
3.53,0.0574122839,-0.002083253945
3.54,0.05742744482,-0.006584831282
3.55,0.05708769928,-0.01110831121
3.56,0.05638909074,-0.01562547369
3.57,0.05532993362,-0.02010755701
3.58,0.05391087893,-0.02452544347
3.59,0.05213496443,-0.02884985241
3.6,0.05000764857,-0.03305153936
3.61,0.04753682744,-0.0371014999
3.62,0.04473283419,-0.04097117671
3.63,0.04160842056,-0.04463266837
3.64,0.0381787201,-0.04805893812
3.65,0.03446119311,-0.0512240213
3.66,0.03047555305,-0.05410322941
3.67,0.02624367488,-0.05667334951
3.68,0.02178948529,-0.05891283701
3.69,0.01713883555,-0.0608020004
3.7,0.01231935748,-0.06232317627
3.71,0.007360303186,-0.06346089293
3.72,0.002292369658,-0.06420202138
3.73,-0.002852490858,-0.06453591189
3.74,-0.008041273528,-0.06445451518
3.75,-0.0132401353,-0.06395248663
3.76,-0.01841461958,-0.06302727264
3.77,-0.02352988968,-0.06167917797
3.78,-0.02855096942,-0.05991141331
3.79,-0.0334429891,-0.05773012218
3.8,-0.03817143521,-0.05514438674
3.81,-0.04270240183,-0.05216621201
3.82,-0.04700284198,-0.04881048819
3.83,-0.05104081691,-0.04509493108
3.84,-0.0547857414,-0.04104000062
3.85,-0.05820862318,-0.03666879783
3.86,-0.06128229446,-0.03200694054
3.87,-0.06398163369,-0.02708241858
3.88,-0.06628377574,-0.02192542911
3.89,-0.06816830871,-0.01656819316
3.9,-0.06961745561,-0.01104475434
3.91,-0.07061623929,-0.005390761104
3.92,-0.07115262921,0.0003567660699
3.93,-0.07121766851,0.006159681072
3.94,-0.0708055803,0.01197897037
3.95,-0.06991385186,0.01777502127
3.96,-0.06854329602,0.02350789841
3.97,-0.06669808872,0.02913762634
3.98,-0.06438578226,0.03462447624
3.99,-0.06161729388,0.03992925469
4,-0.05840686921,0.04501359216
4.01,-0.05477202071,0.04984022921
4.02,-0.05073344128,0.05437329809
4.03,-0.04631489318,0.05857859755
4.04,-0.04154307301,0.06242385877
4.05,-0.03644745335,0.06587900021
4.06,-0.031060102,0.06891636933
4.07,-0.02541547999,0.0715109692
4.08,-0.01955021954,0.07364066816
4.09,-0.01350288349,0.07528639066
4.1,-0.007313707756,0.07643228765
4.11,-0.001024328681,0.07706588509
4.12,0.005322502999,0.07717820906
4.13,0.01168321941,0.07676388646
4.14,0.01801374194,0.07582122009
4.15,0.0242697946,0.07435223743
4.16,0.03040722199,0.07236271241
4.17,0.03638230957,0.0698621597
4.18,0.0421521038,0.06686380142
4.19,0.0476747298,0.06338450608
4.2,0.05290970402,0.05944470008
4.21,0.05781823958,0.05506825212
4.22,0.06236354197,0.05028233112
4.23,0.06651109258,0.04511723858
4.24,0.07022891811,0.0396062162
4.25,0.07348784348,0.0337852303
4.26,0.07626172626,0.02769273412
4.27,0.07852767081,0.0213694099
4.28,0.08026622011,0.01485789227
4.29,0.08146152397,0.008202475075
4.3,0.08210148182,0.001448803508
4.31,0.08217785909,-0.005356446054
4.32,0.081686376,-0.01216589637
4.33,0.08062676776,-0.01893180731
4.34,0.07900281578,-0.02560641906
4.35,0.0768223491,-0.03214229796
4.36,0.0740972162,-0.03849268246
4.37,0.07084322681,-0.0446118266
4.38,0.06708006424,-0.05045533838
4.39,0.06283116853,-0.05598051041
4.4,0.05812359111,-0.06114664051
4.41,0.05298782194,-0.06591533949
4.42,0.04745759021,-0.07025082401
4.43,0.04156963985,-0.07412019202
4.44,0.03536348155,-0.07749367875
4.45,0.02888112277,-0.08034489114
4.46,0.02216677784,-0.08265101882
4.47,0.0152665601,-0.08439302001
4.48,0.008228158235,-0.08555578068
4.49,0.001100499284,-0.08612824576
4.5,-0.006066599416,-0.08610352117
4.51,-0.01322278666,-0.08547894573
4.52,-0.02031753963,-0.08425613244
4.53,-0.0273005293,-0.08244097838
4.54,-0.03412198627,-0.08004364325
4.55,-0.04073306427,-0.07707849637
4.56,-0.04708619864,-0.07356403255
4.57,-0.05313545713,-0.06952275717
4.58,-0.05883688027,-0.06498104121
4.59,-0.0641488088,-0.0599689473
4.6,-0.0690321956,-0.05452002779
4.61,-0.07345089987,-0.04867109628
4.62,-0.07737196102,-0.04246197434
4.63,-0.0807658505,-0.03593521495
4.64,-0.08360669927,-0.02913580485
4.65,-0.0858724994,-0.02211084784
4.66,-0.08754527795,-0.01490923128
4.67,-0.08861124196,-0.007581278336
4.68,-0.08906089324,-0.0001783883851
4.69,-0.08888911198,0.007247331753
4.7,-0.08809520859,0.01464344299
4.71,-0.08668294309,0.02195755284
4.72,-0.08466051202,0.02913769515
4.73,-0.08204050267,0.03613270793
4.74,-0.07883981497,0.04289260631
4.75,-0.07507955155,0.04936894809
4.76,-0.07078487665,0.05551518889
4.77,-0.06598484485,0.0612870244
4.78,-0.06071220081,0.06664271712
4.79,-0.05500315149,0.07154340503
4.8,-0.04889711241,0.07595339008
4.81,-0.04243642979,0.07984040402
4.82,-0.0356660806,0.08317584975
4.83,-0.02863335267,0.08593501638
4.84,-0.02138750721,0.08809726612
4.85,-0.01397942624,0.08964619181
4.86,-0.006461247408,0.09056974373
4.87,0.001114010977,0.09086032476
4.88,0.008692832041,0.09051485307
4.89,0.01622158671,0.08953479188
4.9,0.02364692148,0.08792614598
4.91,0.03091614476,0.08569942508
4.92,0.03797760888,0.08286957407
4.93,0.04478108496,0.07945587077
4.94,0.05127812785,0.07548179191
4.95,0.05742242845,0.07097484819
4.96,0.06317015074,0.06596638974
4.97,0.0684802511,0.06049138327
4.98,0.07331477744,0.05458816267
4.99,0.077639146,0.0482981547
5,0.08142239377,0.04166558202
5.01,0.0846374045,0.03473714555
5.02,0.08726110689,0.02756168854
5.03,0.08927464319,0.02018984489
5.04,0.09066350719,0.01267367426
5.05,0.09141765045,0.005066286668
5.06,0.09153155599,-0.002578540661
5.07,0.09100427901,-0.01020675135
5.08,0.08983945415,-0.01776439997
5.09,0.08804526942,-0.02519804134
5.1,0.08563440692,-0.0324551161
5.11,0.08262395075,-0.03948432975
5.12,0.07903526294,-0.04623602239
5.13,0.07489382815,-0.05266252638
5.14,0.07022906851,-0.05871850936
5.15,0.06507412977,-0.06436130001
5.16,0.0594656405,-0.06955119434
5.17,0.05344344609,-0.07425174003
5.18,0.04705031953,-0.07842999703
5.19,0.04033165108,-0.08205677222
5.2,0.03333511926,-0.08510682674
5.21,0.0261103454,-0.08755905418
5.22,0.01870853453,-0.0893966287
5.23,0.01118210506,-0.09060712165
5.24,0.0035843102,-0.09118258627
5.25,-0.0040311463,-0.0911196095
5.26,-0.01161049712,-0.09041933095
5.27,-0.01910029821,-0.0890874286
5.28,-0.0264478128,-0.08713407168
5.29,-0.03360138949,-0.08457384088
5.3,-0.040510832,-0.08142561674
5.31,-0.0471277576,-0.07771243701
5.32,-0.05340594178,-0.07346132403
5.33,-0.05930164655,-0.06870308359
5.34,-0.06477393011,-0.06347207669
5.35,-0.06978493557,-0.05780596597
5.36,-0.07430015668,-0.0517454388
5.37,-0.07828867873,-0.04533390895
5.38,-0.08172339282,-0.03861719924
5.39,-0.08458118204,-0.03164320745
5.4,-0.08684307836,-0.02446155799
5.41,-0.08849438896,-0.01712324194
5.42,-0.08952479138,-0.00968024812
5.43,-0.08992839672,-0.002185187887
5.44,-0.08970378059,0.005309083543
5.45,-0.08885398166,0.0127498465
5.46,-0.08738646794,0.02008489419
5.47,-0.08531307113,0.02726290526
5.48,-0.08264988957,0.03423380875
5.49,-0.07941716067,0.040949139
5.5,-0.07563910387,0.04736237777
5.51,-0.07134373522,0.05342928121
5.52,-0.06656265525,0.05910818933
5.53,-0.06133081162,0.06436031582
5.54,-0.05568623843,0.069150016
5.55,-0.04966977411,0.07344503134
5.56,-0.04332476018,0.07721670852
5.57,-0.03669672297,0.08044019176
5.58,-0.02983304077,0.08309458708
5.59,-0.02278259893,0.08516309727
5.6,-0.01559543538,0.08663312694
5.61,-0.008322379232,0.08749635677
5.62,-0.001014685187,0.08774878674
5.63,0.006276333728,0.08739074805
5.64,0.01349967226,0.08642688378
5.65,0.0206049953,0.08486609867
5.66,0.02754299391,0.08272147837
5.67,0.03426573233,0.08001017902
5.68,0.04072698374,0.07675328802
5.69,0.04688255204,0.07297565719
5.7,0.05269057776,0.06870570963
5.71,0.05811182559,0.06397522178
5.72,0.06310995187,0.05881908245
5.73,0.06765174997,0.05327503067
5.74,0.07170737192,0.04738337433
5.75,0.07525052499,0.04118669173
5.76,0.07825864164,0.03472951839
5.77,0.08071302202,0.02805802138
5.78,0.08259894795,0.02121966362
5.79,0.0839057678,0.01426286063
5.8,0.08462695179,0.007236632256
5.81,0.08476011751,0.0001902519204
5.82,0.08430702552,-0.006827104015
5.83,0.08327354544,-0.01376670433
5.84,0.0816695928,-0.02058060587
5.85,0.07950903723,-0.02722198898
5.86,0.07680958303,-0.03364548291
5.87,0.07359262293,-0.03980747906
5.88,0.06988306638,-0.04566642985
5.89,0.06570914377,-0.051183131
5.9,0.06110218804,-0.05632098554
5.91,0.05609639555,-0.06104624752
5.92,0.0507285679,-0.06532824395
5.93,0.0450378368,-0.06913957346
5.94,0.03906537407,-0.07245628038
5.95,0.03285408891,-0.07525800318
5.96,0.02644831468,-0.07752809642
5.97,0.01989348766,-0.07925372534
5.98,0.01323581994,-0.08042593287
5.99,0.006521969016,-0.08103967845
6,-0.0002012936019,-0.08109384888
