"Freq [GHz]","re(S(Antenna1_1_1,Antenna1_1_1)) []","im(S(Antenna1_1_1,Antenna1_1_1)) []"
1,0.377323309247975,0.0293214873815673
1.004,0.371367094197071,0.00884053933336582
1.008,0.364341534276122,-0.0111490918090711
1.012,0.356282892493621,-0.0305665318472424
1.016,0.347235475789731,-0.0493345615221086
1.02,0.337251088456324,-0.0673805308623129
1.024,0.326388378099224,-0.0846371762328622
1.028,0.314712091746109,-0.101043327933868
1.032,0.302292260912557,-0.116544499221902
1.036,0.289203335140584,-0.131093350848965
1.04,0.27552328375338,-0.144650028363844
1.044,0.261332685195832,-0.15718237252451
1.048,0.246713822586488,-0.168666006103011
1.052,0.231749802870837,-0.179084303092198
1.056,0.216523715359609,-0.188428248718753
1.06,0.201117843493377,-0.196696200795372
1.064,0.18559030752718,-0.203847597264984
1.068,0.170024184893134,-0.209858356997938
1.072,0.154541798852471,-0.214824377390672
1.076,0.139215150633826,-0.218773779252298
1.08,0.124112195702711,-0.221739487587047
1.084,0.109296629102122,-0.223758679935518
1.088,0.0948277441240605,-0.224872253345952
1.092,0.0807603557831967,-0.225124319128
1.096,0.0671447795572737,-0.224561732631618
1.1,0.0540268552024324,-0.223233663208488
1.104,0.0414480051762843,-0.221191207483771
1.108,0.0294453173095544,-0.218487047025891
1.112,0.0180516417772402,-0.215175149571747
1.116,0.00729569320093303,-0.211310511220968
1.12,-0.00279785026612066,-0.206948935415618
1.124,-0.0122082577419854,-0.202146843230708
1.128,-0.0207706473401964,-0.196960064046213
1.132,-0.0285700086175856,-0.191484221568209
1.136,-0.0356522281082988,-0.185782960413241
1.14,-0.0420185053691388,-0.179913567138241
1.144,-0.0476740301201434,-0.173932391646484
1.148,-0.0526279235857386,-0.167894610148334
1.152,-0.0568931704811941,-0.161853975967414
1.156,-0.0604865364655474,-0.155862558136256
1.16,-0.0634284658513177,-0.149970468956748
1.164,-0.0657429546309445,-0.144225582933988
1.168,-0.0674573943734994,-0.138673250641304
1.172,-0.0686023832451177,-0.133356012121977
1.176,-0.0692115013171261,-0.128313315307176
1.18,-0.0693210483913232,-0.123581245652144
1.184,-0.0689697437613356,-0.119192273679071
1.188,-0.0681983886241508,-0.115175027394291
1.192,-0.0670494931734316,-0.111554096577421
1.196,-0.0655668717455377,-0.108349875713415
1.2,-0.0637952107002662,-0.105578451905751
1.204,-0.0617796149012857,-0.103251543385188
1.208,-0.0595651397906638,-0.101376493337482
1.212,-0.0571963169682619,-0.0999563226713648
1.216,-0.054716681935005,-0.0989898440608398
1.22,-0.0521683132057487,-0.098471838194837
1.224,-0.0495913922696877,-0.098393291684393
1.228,-0.047023793926556,-0.0987416944789384
1.232,-0.0445007163142451,-0.0995013931297464
1.236,-0.0420543594542867,-0.100653994637273
1.24,-0.0397136603917837,-0.102178814216177
1.244,-0.0375040920550481,-0.104053358882545
1.248,-0.0354475317341767,-0.106253837676924
1.252,-0.0336305444897552,-0.108534995081726
1.256,-0.0319845097387285,-0.110846629356796
1.26,-0.0304190511559401,-0.113393583728664
1.264,-0.0289383906764566,-0.116173681441146
1.268,-0.0275471880592553,-0.119186673495791
1.272,-0.0262509837802011,-0.12243412148183
1.276,-0.0250566224988196,-0.125919206223033
1.28,-0.0239726455860858,-0.129646465086723
1.284,-0.0230096415979611,-0.133621462504839
1.288,-0.0221805442654163,-0.137850399994525
1.292,-0.021500868547224,-0.142339673536414
1.296,-0.0209888763527965,-0.14709538761656
1.3,-0.0206656650948606,-0.152122836519134
1.304,-0.0205551736221641,-0.157425964500641
1.308,-0.0206841020071799,-0.163006817305466
1.312,-0.0210817433955717,-0.168864998031117
1.316,-0.0217797280756519,-0.174997140639099
1.32,-0.0228116819955044,-0.181396414381928
1.324,-0.0242128037829468,-0.188052072146347
1.328,-0.0260193663623799,-0.194949055119768
1.332,-0.0282681510471597,-0.202067665176726
1.336,-0.0309958236899145,-0.209383315554587
1.34,-0.0342382640178354,-0.216866368590172
1.344,-0.0380298605819418,-0.224482068046882
1.348,-0.0424027848638596,-0.232190571427519
1.352,-0.0473862588804836,-0.239947086052071
1.356,-0.0530058311711898,-0.247702110296028
1.36,-0.059282676285561,-0.255401779376195
1.364,-0.0662329328137155,-0.262988312949722
1.368,-0.0738670945985017,-0.270400559495958
1.372,-0.0821894690448011,-0.277574630443492
1.376,-0.0913182967439754,-0.284449533209797
1.38,-0.101484035267228,-0.290891461082261
1.384,-0.1122903333177,-0.296773600111046
1.388,-0.123690680180588,-0.302033794347822
1.392,-0.135632125911784,-0.30661494412499
1.396,-0.148055915524178,-0.310465729557744
1.4,-0.160898209030014,-0.313541248533899
1.404,-0.174090875513151,-0.315803558731767
1.408,-0.187562347828468,-0.317222114838266
1.412,-0.201238523751013,-0.317774094233981
1.416,-0.215043698463306,-0.317444605954742
1.42,-0.228901512840975,-0.31622678035532
1.424,-0.242735901776937,-0.31412173853441
1.428,-0.25647202684321,-0.311138442993579
1.432,-0.270037177991475,-0.307293432981018
1.436,-0.283361629599693,-0.302610449896128
1.44,-0.296379437125727,-0.297119960196103
1.444,-0.309029161709783,-0.290858584878869
1.448,-0.321254511597655,-0.283868446135584
1.452,-0.33300489054319,-0.276196443249304
1.456,-0.344235845426638,-0.267893470855463
1.46,-0.354909406981014,-0.259013593575146
1.464,-0.36499431935224,-0.249613191639394
1.468,-0.374466156618723,-0.239750092474944
1.472,-0.383307326005299,-0.229482703258942
1.476,-0.391506959727253,-0.218869159263985
1.48,-0.399060699343615,-0.207966502304351
1.484,-0.405970378286174,-0.196829902876988
1.488,-0.412243609951673,-0.185511938656755
1.492,-0.417893290343538,-0.17406194069665
1.496,-0.422937025515966,-0.162525417468252
1.5,-0.427396495390171,-0.150943565300322
1.504,-0.431214933945018,-0.139649321327147
1.508,-0.434576227988754,-0.12839169258561
1.512,-0.437511216081062,-0.117183340292551
1.516,-0.440049717507651,-0.106031682373511
1.52,-0.44221982296035,-0.0949392199469912
1.524,-0.444047245082827,-0.0839039507744311
1.528,-0.445554738878731,-0.0729198601949379
1.532,-0.446761600546406,-0.0619774787069003
1.536,-0.447683251667727,-0.0510644947597142
1.54,-0.448330914146189,-0.0401664104895883
1.544,-0.448711379531128,-0.0292672278775178
1.548,-0.448826874652934,-0.0183501525041579
1.552,-0.448675023890946,-0.00739830217736956
1.556,-0.448248906692326,0.00360459202957617
1.56,-0.447537207479277,0.0146735043577338
1.564,-0.446524453540209,0.0258214639142574
1.568,-0.445191335317703,0.0370589457474085
1.572,-0.44351510205196,0.0483933130286187
1.576,-0.441470025079681,0.0598283188314099
1.58,-0.439027919859718,0.07136367479503
1.584,-0.436158717300094,0.0829946927185796
1.588,-0.432831074461996,0.0947120038212331
1.592,-0.429013014269723,0.106501359005696
1.596,-0.424672583809407,0.118343512142496
1.6,-0.419778520745805,0.130214187229777
1.604,-0.414300917622045,0.142084128652078
1.608,-0.408211874089586,0.153919232905655
1.612,-0.401486127615717,0.165680758956363
1.616,-0.394101653807769,0.177325613008298
1.62,-0.386040228115481,0.188806703216554
1.624,-0.377287941622975,0.200073358243685
1.628,-0.367645295400048,0.211370142499317
1.632,-0.35715578966538,0.222382711549873
1.636,-0.345885100818594,0.23293129477118
1.64,-0.33385558018748,0.242943433091358
1.644,-0.321097282560658,0.252348316968458
1.648,-0.30764774367721,0.261077633647819
1.652,-0.293551666975158,0.269066376939298
1.656,-0.278860525802315,0.276253610507621
1.66,-0.263632087987813,0.282583176679176
1.664,-0.247929870371769,0.288004343631561
1.668,-0.231822531239206,0.292472385038808
1.672,-0.215383209176272,0.295949087030361
1.676,-0.198688816837136,0.298403178554019
1.68,-0.181819298444855,0.299810681906123
1.684,-0.164856859769521,0.300155181546459
1.688,-0.147885179309522,0.299428009606448
1.692,-0.130988609249325,0.297628348062245
1.696,-0.114251374600876,0.294763247613568
1.7,-0.0977567786546629,0.290847564588973
1.704,-0.0815864226385736,0.285903817483343
1.708,-0.065819447131747,0.2799619657078
1.712,-0.0505318024084766,0.273059113367393
1.716,-0.0357955546355008,0.26523914175006
1.72,-0.0216782344149893,0.256552274439768
1.724,-0.00824223371046146,0.247054579693032
1.728,0.00445574310972445,0.236807415017366
1.732,0.0163651688231081,0.22587681940618
1.736,0.0274421186396333,0.214332859100755
1.74,0.0376496269358658,0.202248933180622
1.744,0.0469579715271217,0.189701045632381
1.748,0.0553448821703041,0.176767051056341
1.752,0.0624653281630273,0.163735246464415
1.756,0.0683924258618422,0.150798945310358
1.76,0.0735047554757119,0.137849171688397
1.764,0.0778328118274619,0.124940615078161
1.768,0.0814108824379475,0.112122745409408
1.772,0.0842763623480891,0.0994395507354759
1.776,0.0864690506849411,0.0869293545571235
1.78,0.0880304373131609,0.0746247141294166
1.784,0.0890029881033554,0.0625524006159849
1.788,0.089429437551494,0.0507334611603866
1.792,0.0893520975190722,0.039183361859065
1.796,0.0888121910497539,0.0279122099910539
1.8,0.0878492200419951,0.016925052698242
1.804,0.0865003754088948,0.00622224844237626
1.808,0.0847999981978504,-0.00420009346400951
1.812,0.0827790995289321,-0.0143496110042757
1.816,0.0804649470596455,-0.02423713193819
1.82,0.0778807245378003,-0.0338760683143464
1.824,0.0750452705878844,-0.043281771573244
1.828,0.0719729018657809,-0.0524708576514208
1.832,0.0686733244896665,-0.0614605122372236
1.836,0.0651516367311003,-0.0702677869204877
1.84,0.0614084244408517,-0.0789088975164364
1.844,0.0574399495216864,-0.0873985361337505
1.848,0.0532384301761501,-0.0957492087007573
1.852,0.0487924102634744,-0.103970609793388
1.856,0.044087213580722,-0.112069046088339
1.86,0.0391054773936797,-0.120046919714808
1.864,0.0338277580750293,-0.12790228201039
1.868,0.0282332003299032,-0.135628467209536
1.872,0.0223002601665758,-0.1432138150362
1.876,0.0158838543968537,-0.150802551036341
1.88,0.00862091550419702,-0.15861705598277
1.884,0.000823163596238741,-0.166080565226303
1.888,-0.00750004075029542,-0.173137314031894
1.892,-0.0163325165061827,-0.179730697973204
1.896,-0.0256510471356105,-0.185804123951139
1.9,-0.0354252703526051,-0.1913018943739
1.904,-0.0456176771819366,-0.196170111788257
1.908,-0.0561837235195232,-0.200357590587575
1.912,-0.0670720557066916,-0.203816761963343
1.916,-0.0782248498504295,-0.206504558012851
1.92,-0.0895782629387266,-0.208383260865779
1.924,-0.10106299201729,-0.209421302815596
1.928,-0.112604936022534,-0.209594004009013
1.932,-0.124125952894329,-0.208884234538266
1.936,-0.135544703429014,-0.207282989004388
1.94,-0.146777571231288,-0.204789862415206
1.944,-0.157739647191337,-0.201413417488699
1.948,-0.168345765364478,-0.197171435177079
1.952,-0.178511576163216,-0.192091041290222
1.956,-0.188154641853156,-0.186208704398857
1.96,-0.197195538689029,-0.179570101568661
1.964,-0.205558949517222,-0.172229850665827
1.968,-0.213174730588608,-0.164251109832832
1.972,-0.219978936196067,-0.155705046899874
1.976,-0.22591478523247,-0.146670183227602
1.98,-0.230933554103847,-0.137231618854071
1.984,-0.23499538136635,-0.127480147307401
1.988,-0.23806997046701,-0.117511270587031
1.992,-0.240137178128587,-0.107424126346862
1.996,-0.241187477428329,-0.0973203408829728
2,-0.241222286259653,-0.087302822873906
2.004,-0.239489951945017,-0.0778447781450832
2.008,-0.236875354427994,-0.0688629564917437
2.012,-0.233446024623318,-0.0604381982652358
2.016,-0.229277294786064,-0.0526424993157676
2.02,-0.224451163926834,-0.0455382124751327
2.024,-0.219055077734706,-0.0391773929897186
2.028,-0.213180641223615,-0.033601297019529
2.032,-0.206922283093949,-0.0288400405541845
2.036,-0.200375891742103,-0.0249124234318844
2.04,-0.193637443268104,-0.0218259207721196
2.044,-0.186801642005619,-0.0195768416371668
2.048,-0.179960593908574,-0.0181506522405483
2.052,-0.173202532887963,-0.017522458411981
2.056,-0.166610619018003,-0.0176576399066813
2.06,-0.160261827100777,-0.0185126265008703
2.064,-0.154225942110636,-0.0200358037610596
2.068,-0.148564676999281,-0.022168534617048
2.072,-0.143330926186937,-0.0248462806488689
2.076,-0.138568166281325,-0.0279998058042951
2.08,-0.134310013064781,-0.0315564437525531
2.084,-0.130579941911043,-0.03544140916204
2.088,-0.127391175866215,-0.0395791323372134
2.092,-0.124746743282279,-0.0438945963104677
2.096,-0.122639704584179,-0.0483146554226782
2.1,-0.121053544570319,-0.0527693142923862
2.104,-0.119962724872883,-0.0571929469925956
2.108,-0.119333387983333,-0.0615254367397729
2.112,-0.119124202555258,-0.0657132175832131
2.116,-0.119287337010776,-0.0697102010587855
2.12,-0.119769546702665,-0.0734785720281331
2.124,-0.12051335794793,-0.0769894403331779
2.128,-0.121048401768687,-0.0793745091572623
2.132,-0.121345596845782,-0.0813178133915863
2.136,-0.121470688393984,-0.0831653757721094
2.14,-0.121397599180208,-0.0849715736036316
2.144,-0.121109567091011,-0.0867947791699767
2.148,-0.120599637263831,-0.0886960058780459
2.152,-0.119870971680796,-0.0907375004406885
2.156,-0.118936971067578,-0.0929813049062578
2.16,-0.117821206440986,-0.0954878123259068
2.164,-0.116557161150319,-0.0983143402670981
2.168,-0.115187786762522,-0.101513745964392
2.172,-0.11376487935563,-0.105133106354586
2.176,-0.112348285305487,-0.109212485297402
2.18,-0.111004948685597,-0.113783808945919
2.184,-0.109807814437916,-0.118869868748264
2.188,-0.108834604243178,-0.124483469587556
2.192,-0.108166483655633,-0.130626738596976
2.196,-0.107886641179448,-0.137290607572852
2.2,-0.108078801308628,-0.144454479656609
2.204,-0.108825694763469,-0.152086087972586
2.208,-0.110207510111296,-0.160141551266805
2.212,-0.112300351402471,-0.168565628384578
2.216,-0.115174726726774,-0.177292170704455
2.22,-0.11889409236861,-0.186244768463584
2.224,-0.123513476666722,-0.195337583756948
2.228,-0.129078206999214,-0.204476360511227
2.232,-0.135622761849127,-0.213559598285616
2.236,-0.143169768442164,-0.222479874705257
2.24,-0.151729164614332,-0.231125298226896
2.244,-0.161297541288971,-0.239381071137538
2.248,-0.171857679504237,-0.247131140356208
2.252,-0.183785591467493,-0.253869579363388
2.256,-0.196884016136179,-0.259337864428702
2.26,-0.21060764469912,-0.263800336674129
2.264,-0.224855400182732,-0.267195949243942
2.268,-0.239520175126977,-0.269475361134915
2.272,-0.254490261802384,-0.270601545318118
2.276,-0.269650843991902,-0.270550220075546
2.28,-0.284885528600141,-0.269310097508772
2.284,-0.300077894784315,-0.266882945608442
2.288,-0.315113038083377,-0.263283463105893
2.292,-0.329879086917799,-0.258538968885391
2.296,-0.344268669261546,-0.252688910500595
2.3,-0.358180307873847,-0.245784199065404
2.304,-0.371519723601671,-0.237886380210218
2.308,-0.3842010272321,-0.229066653192727
2.312,-0.396147782302968,-0.219404752869984
2.316,-0.407293922831582,-0.208987710717901
2.32,-0.417584512069512,-0.197908513609099
2.324,-0.426976330762656,-0.186264680110718
2.328,-0.435438285676001,-0.174156775784426
2.332,-0.442951631932944,-0.161686889715222
2.336,-0.449510005491487,-0.148957095379241
2.34,-0.455119264635533,-0.136067919239959
2.344,-0.459797142540102,-0.123116840608923
2.348,-0.463572715626045,-0.110196845725482
2.352,-0.466485695273734,-0.0973950587834587
2.356,-0.468585553247306,-0.084791471196212
2.36,-0.469930493632238,-0.0724577892914395
2.364,-0.470586286764978,-0.0604564190618862
2.368,-0.470624982634778,-0.0488396044204484
2.372,-0.470123523261168,-0.0376487333352077
2.376,-0.469225606770077,-0.027011859981312
2.38,-0.468199284852766,-0.0171016083516481
2.384,-0.466963014094637,-0.00759276518644345
2.388,-0.465583238525671,0.00153490298728382
2.392,-0.464121325838941,0.0103106538225862
2.396,-0.462632432625013,0.0187719747973448
2.4,-0.461164479678354,0.0269636512126885
2.404,-0.459757253576623,0.034936711274126
2.408,-0.458441649125038,0.0427472642762183
2.412,-0.457239064966504,0.0504552503100763
2.416,-0.456160962687674,0.0581231206244526
2.42,-0.455208597011345,0.0658144695138148
2.424,-0.454372922396236,0.0735926390956996
2.428,-0.453634678496034,0.081519319086996
2.432,-0.452964654370217,0.0896531636985892
2.436,-0.452324128549353,0.0980484480079655
2.44,-0.451770755076936,0.106841610499149
2.444,-0.451177036538121,0.11607175134807
2.448,-0.450403931972495,0.125721400843743
2.452,-0.449376432813222,0.135807527298471
2.456,-0.44801585600189,0.146336424515112
2.46,-0.446241258484282,0.157303216103387
2.464,-0.443970910186512,0.168691540860264
2.468,-0.441123802828565,0.180473425860963
2.472,-0.437621171142927,0.192609350696709
2.476,-0.433388002761697,0.205048503842338
2.48,-0.42835451297224,0.21772922901079
2.484,-0.422457561069222,0.230579656421383
2.488,-0.415641985529659,0.243518511124435
2.492,-0.407861836363117,0.256456087994626
2.496,-0.39908148447526,0.26929537983964
2.5,-0.389276589427584,0.281933343408459
2.504,-0.377856131739676,0.294506431967951
2.508,-0.365345582453886,0.306512699622883
2.512,-0.351785889556671,0.317831133707773
2.516,-0.337232613137466,0.328345153748211
2.52,-0.321755324856136,0.337944406671891
2.524,-0.305436787815429,0.346526475839338
2.528,-0.288371929047362,0.353998477266802
2.532,-0.270666620043986,0.360278518094248
2.536,-0.252436283815659,0.365296994585057
2.54,-0.233804349561222,0.368997709192711
2.544,-0.214900578374535,0.37133878912746
2.548,-0.19585928543636,0.372293391796297
2.552,-0.176817485791816,0.371850185674579
2.556,-0.157912991987615,0.370013598709776
2.56,-0.139282492671712,0.366803829670259
2.564,-0.121059641532521,0.36225662180824
2.568,-0.103373186068144,0.356422801360115
2.572,-0.0863451648210279,0.34936758740392
2.576,-0.0700892011627207,0.341169682937361
2.58,-0.054708919936641,0.331920160286001
2.584,-0.0402965118581978,0.321721157361883
2.588,-0.0269314680687356,0.310684403988347
2.592,-0.0146795050935027,0.298929600431019
2.596,-0.00359169738934878,0.28658267235726
2.6,0.0062961682611657,0.27377392862066
2.604,0.0149640056032849,0.260636149872134
2.608,0.0224076015457698,0.247302637116568
2.612,0.0286385447621816,0.233905250225988
2.616,0.0336839100175806,0.220572466760523
2.62,0.0375857019531311,0.207427491269131
2.624,0.0404000653894299,0.19458644485519
2.628,0.0417571480489266,0.183130282096235
2.632,0.0423205733173797,0.172621598727858
2.636,0.0423891331300719,0.162780878319549
2.64,0.0420751249700569,0.153615918383687
2.644,0.0414876572297366,0.145119057526127
2.648,0.0407306497674092,0.13726793225532
2.652,0.0399009619526276,0.13002648359378
2.656,0.0390866782008986,0.12334619460907
2.66,0.0383655792223733,0.117167536329726
2.664,0.0378038233559694,0.111421596274922
2.668,0.0374548595615288,0.106031860843063
2.672,0.0373585895561958,0.100916120580233
2.676,0.0375407926445243,0.0959884651328915
2.68,0.0380128227204309,0.0911613333700333
2.684,0.0387715821889335,0.0863475831201976
2.688,0.0397997734831297,0.0814625446707064
2.692,0.0410664238047236,0.0764260221438897
2.696,0.0425276748639837,0.0711642077725395
2.7,0.044127824308589,0.0656114751958807
2.704,0.0458006019441862,0.0597120197598477
2.708,0.0474706593436252,0.0534213161604934
2.712,0.0490552480735697,0.0467073665021344
2.716,0.0504660583364362,0.0395517151472015
2.72,0.0516111868759489,0.0319502104948878
2.724,0.0523972005912377,0.0239134977315135
2.728,0.0527312604145571,0.0154672309566628
2.732,0.0525232684736936,0.00665199788313252
2.736,0.0516880010832888,-0.0024770452781477
2.74,0.0501471895243788,-0.0118508260712667
2.744,0.0478315112784645,-0.0213872877687305
2.748,0.0446824554459064,-0.0309925886411354
2.752,0.0399136812956631,-0.0407413190081378
2.756,0.0334404941465948,-0.0502383118256238
2.76,0.0260272109071589,-0.0590833652637476
2.764,0.0177441545564396,-0.0671527672343942
2.768,0.00867815196036945,-0.0743316092432701
2.772,-0.00106866272374401,-0.0805159186700078
2.776,-0.0113803121207087,-0.0856146252242687
2.78,-0.0221286843120158,-0.0895513286919266
2.784,-0.0331754593379081,-0.0922658381918367
2.788,-0.0443742234537075,-0.0937154569853585
2.792,-0.0555727373454786,-0.0938759902459085
2.796,-0.0666153227641576,-0.0927424582918063
2.8,-0.0773453291671419,-0.0903295017877147
2.804,-0.0876076412356248,-0.0866714705513434
2.808,-0.0972511868173954,-0.0818221926856378
2.812,-0.106131404896379,-0.0758544255947629
