"Freq [GHz]","re(S(Antenna1_1_1,Antenna1_1_1)) []","im(S(Antenna1_1_1,Antenna1_1_1)) []"
1,0.371607017955475,0.0310021284825673
1.004,0.366031178126071,0.0114784100403658
1.008,0.359538925384122,-0.00763284619207106
1.012,0.352151135114621,-0.0262741942222424
1.016,0.343893278055731,-0.0443889722541086
1.02,0.334795390710324,-0.0619217300463129
1.024,0.324892003842224,-0.0788186494349622
1.028,0.314222031216109,-0.0950279541108676
1.032,0.302828621007557,-0.110500305263902
1.036,0.290758972501584,-0.125189180194965
1.04,0.27806412077238,-0.139051231497444
1.044,0.264798692080832,-0.15204662484851
1.048,0.251020632561488,-0.164139353858011
1.052,0.236790912839837,-0.175297530775198
1.056,0.222173210791609,-0.185493652132753
1.06,0.207233574780377,-0.194704838626372
1.064,0.19197751771818,-0.202881732472984
1.068,0.176447095137634,-0.209963370166938
1.072,0.160829161605471,-0.215984633225672
1.076,0.145201741852826,-0.220947373143298
1.08,0.129642690887711,-0.224859753606047
1.084,0.114229158572022,-0.227736248527518
1.088,0.0990370529490605,-0.229597596505952
1.092,0.0841405051981967,-0.230470711072
1.096,0.0696113391972737,-0.230388546609618
1.1,0.0555185488364324,-0.229389919485488
1.104,0.0419277863742843,-0.227519284374771
1.108,0.0289008653445544,-0.224826465589891
1.112,0.0164952817242402,-0.221366343726247
1.116,0.00476375727693303,-0.217198497993568
1.12,-0.00624619083712066,-0.212386805015618
1.124,-0.0164926498739854,-0.206998995220708
1.128,-0.0257239954711964,-0.201029390466613
1.132,-0.0340328643115856,-0.194665098865209
1.136,-0.0414765478862988,-0.188020854597241
1.14,-0.0480520560231388,-0.181177200430241
1.144,-0.0537638588601434,-0.174213712061484
1.148,-0.0586237220167386,-0.167208268366334
1.152,-0.0626504661591941,-0.160236340261414
1.156,-0.0658696523505474,-0.153370306445256
1.16,-0.0683131957215177,-0.146678804285748
1.164,-0.0700189108019445,-0.140226123913988
1.168,-0.0710299929284994,-0.134071653450304
1.172,-0.0713944411068177,-0.128269382804977
1.176,-0.0711644286491261,-0.122867472848176
1.18,-0.0703956288283232,-0.117907896559144
1.184,-0.0691465036243356,-0.113426157218071
1.188,-0.0674775644001508,-0.109451088702291
1.192,-0.0654506140154315,-0.106004741092421
1.196,-0.0631279804035377,-0.103102354271415
1.2,-0.0605717520962662,-0.100752420767751
1.204,-0.0578430263042857,-0.0989568377522883
1.208,-0.0550011805426638,-0.097711146935882
1.212,-0.0521031783672619,-0.0970048596612648
1.216,-0.049202919771005,-0.0968218631348398
1.22,-0.0463506463937487,-0.097140902406837
1.224,-0.0435924109266877,-0.097936131390393
1.228,-0.040969619407556,-0.0991777249499384
1.232,-0.0385186542362451,-0.100832542957746
1.236,-0.0362705844592867,-0.102864836127273
1.24,-0.0342509687137837,-0.105236982526177
1.244,-0.0324797548810481,-0.107910242972545
1.248,-0.0309712788321767,-0.110845522796924
1.252,-0.0298794314753552,-0.113730795401726
1.256,-0.0291028381989285,-0.116475726036796
1.26,-0.0284494799419401,-0.119322213518664
1.264,-0.0279044198564566,-0.122265030071146
1.268,-0.0274531513962553,-0.125303438695791
1.272,-0.0270823593592011,-0.12844102289483
1.276,-0.0267806479388196,-0.131685406521033
1.28,-0.0265392208360858,-0.135047868722723
1.284,-0.0263524992679611,-0.138542861588839
1.288,-0.0262186646654163,-0.142187439290525
1.292,-0.026140114327224,-0.146000609818914
1.296,-0.0261238194727965,-0.15000262157956
1.3,-0.0261815772148606,-0.154214198682134
1.304,-0.0263301495421641,-0.158655739784641
1.308,-0.0265912846871799,-0.163346496253466
1.312,-0.0269916181075717,-0.168303746007117
1.316,-0.0275624527986519,-0.173541979699099
1.32,-0.0283394207235044,-0.179072115931928
1.324,-0.0293620294849468,-0.184900761956347
1.328,-0.0306731004803799,-0.191029535619768
1.332,-0.0323181070161597,-0.197454463596726
1.336,-0.0343444228019145,-0.204165469684586
1.34,-0.0368004931087354,-0.211145965580172
1.344,-0.0397349425349418,-0.218372554846882
1.348,-0.0431956347968596,-0.225814858907519
1.352,-0.0472287011024836,-0.233435471892071
1.356,-0.0518775546111898,-0.241190048816028
1.36,-0.057181909055561,-0.249027529237195
1.364,-0.0631768199837155,-0.256890496210722
1.368,-0.0698917668385017,-0.264715667736958
1.372,-0.0773497940448011,-0.272434515516492
1.376,-0.0857215750439754,-0.280014153386697
1.38,-0.0953452065872279,-0.287359022679261
1.384,-0.1057454689877,-0.294206387926046
1.388,-0.116882601990588,-0.300474655146822
1.392,-0.128707747951784,-0.30608659134199
1.396,-0.141163516204178,-0.310970398477744
1.4,-0.154184678172014,-0.315060709333899
1.404,-0.167698982183151,-0.318299489001767
1.408,-0.181628074992468,-0.320636827758266
1.412,-0.195888515153013,-0.32203161229398
1.416,-0.210392862019306,-0.322452064814742
1.42,-0.225050822824475,-0.32187614144532
1.424,-0.239770439313037,-0.32029178369441
1.428,-0.25445929488021,-0.317697019373579
1.432,-0.269025722760475,-0.314099911581018
1.436,-0.283379995883693,-0.309518357166128
1.44,-0.297435479335727,-0.303979738376103
1.444,-0.311109727069783,-0.297520433902869
1.448,-0.324325505357655,-0.290185197740584
1.452,-0.33701172701319,-0.282026416742304
1.456,-0.349104281536638,-0.273103259273463
1.46,-0.360546748591014,-0.263480729530946
1.464,-0.37129098376224,-0.253228643387394
1.468,-0.381297568058723,-0.242420542928844
1.472,-0.390536114675299,-0.231132567763942
1.476,-0.398985429087253,-0.219442301849985
1.48,-0.406633520973615,-0.207427614867351
1.484,-0.413477468756174,-0.195165517156988
1.488,-0.419523140442673,-0.182731047006755
1.492,-0.424784776090538,-0.17019620817665
1.496,-0.429284440361966,-0.157628975028252
1.5,-0.433051354887171,-0.145092380920322
1.504,-0.435909427706718,-0.133035337147147
1.508,-0.438211906727754,-0.12116371855561
1.512,-0.440011695539062,-0.109502419942551
1.516,-0.441362149949651,-0.0980679296835113
1.52,-0.44231592664635,-0.0868684840169912
1.524,-0.442923872005827,-0.0759043690744311
1.528,-0.443233969338731,-0.0651683630149379
1.532,-0.443290361466406,-0.0546463090049003
1.536,-0.443132464357727,-0.0443178071557142
1.54,-0.442794185486189,-0.0341570123275883
1.544,-0.442303259021128,-0.0241335227065178
1.548,-0.441680707522934,-0.0142133429897579
1.552,-0.440940438200946,-0.00435990515636956
1.556,-0.440088978782326,0.00546487122957617
1.56,-0.439125356389277,0.0152994973707338
1.564,-0.438041120140209,0.0251818306812574
1.568,-0.436820505907703,0.0351480055434085
1.572,-0.43544073949196,0.0452313971186187
1.576,-0.433872472422681,0.0554616353014099
1.58,-0.432080342234718,0.06586368478503
1.584,-0.430023647643094,0.0764570061485796
1.588,-0.427657127054996,0.0872548113712331
1.592,-0.424931827443823,0.0982634254956965
1.596,-0.421796049397407,0.109481764682496
1.6,-0.418196353141805,0.120900938629777
1.604,-0.414078609478045,0.132503983772078
1.608,-0.409389079112586,0.144265731325655
1.612,-0.404075503565717,0.156152812406363
1.616,-0.398088190777769,0.168123800248298
1.62,-0.391381078865481,0.180129487696554
1.624,-0.383912761712975,0.192113296024685
1.628,-0.375407370080048,0.204524358146317
1.632,-0.36585209303538,0.216874077006873
1.636,-0.355300865628594,0.22887941402418
1.64,-0.34376166351748,0.240435199215358
1.644,-0.331254948220658,0.251436301930458
1.648,-0.31781360889721,0.261779155210819
1.652,-0.303482719825158,0.271363256938297
1.656,-0.288319119132315,0.280092626137621
1.66,-0.272390816567813,0.287877193869176
1.664,-0.255776240302769,0.294634109211561
1.668,-0.238563334976206,0.300288942668808
1.672,-0.220848525019272,0.304776770570361
1.676,-0.202735558829136,0.308043126394019
1.68,-0.184334250871855,0.310044806546123
1.684,-0.165759139959521,0.310750520386459
1.688,-0.147128082692522,0.310141376696448
1.692,-0.128560801856325,0.308211200802245
1.696,-0.110177409842876,0.304966678783568
1.7,-0.0920969273246629,0.300427328068973
1.704,-0.0744358172885736,0.294625295093343
1.708,-0.057306554151747,0.2876049838778
1.712,-0.0408162471484766,0.279422520740393
1.716,-0.0250653362655008,0.27014506304106
1.72,-0.0101463780849893,0.259849961355768
1.724,0.00385706233953854,0.248623786654332
1.728,0.0168713989497244,0.236561235515366
1.732,0.0288338782231081,0.22376392809518
1.736,0.0396932873896333,0.210339114853755
1.74,0.0494105077158659,0.196398309230622
1.744,0.0579589051671217,0.182055864492381
1.748,0.0653245528403041,0.167427513666341
1.752,0.0709631061430273,0.152974051724415
1.756,0.0750234813318422,0.139003372450358
1.76,0.0781555103277119,0.125316553378397
1.764,0.0804341868124619,0.111979143728161
1.768,0.0819390925419475,0.099045125229408
1.772,0.0827528410510891,0.0865566350254759
1.776,0.0829595132399411,0.0745438838171235
1.78,0.0826431079431609,0.0630252677594166
1.784,0.0818860303633554,0.0520076703059849
1.788,0.080767640681494,0.0414869475303866
1.792,0.0793628841390722,0.031448587879065
1.796,0.0777410229697539,0.0218685350010539
1.8,0.0759644887919951,0.012714159955242
1.804,0.0740878728088948,0.00394536695237626
1.808,0.0721570689978504,-0.00448418502700951
1.812,0.0702085833089321,-0.0126257643135257
1.816,0.0682690197296455,-0.02053417328119
1.82,0.0663547515478003,-0.0282663019203464
1.824,0.0644717832278845,-0.035879651428244
1.828,0.0626158059157809,-0.0434308516514208
1.832,0.0607724464096665,-0.0509741963372236
1.836,0.0589177067211003,-0.0585602205404877
1.84,0.0570185882508517,-0.0662343436064364
1.844,0.0550338920016864,-0.0740356009337505
1.848,0.0529151830681501,-0.0819954863807573
1.852,0.0506079053069744,-0.0901369257933884
1.856,0.048052629319022,-0.0984734004683395
1.86,0.0451864147036797,-0.107008237254808
1.864,0.0419442653960293,-0.11573407969039
1.868,0.0382606550599032,-0.124632551879536
1.872,0.0340710982365758,-0.1336741241662
1.876,0.0290877569668537,-0.143049171206341
1.88,0.022664098634197,-0.15302169953277
1.884,0.0153771886362387,-0.162720836546303
1.888,0.00723117495970458,-0.172043426906894
1.892,-0.00175641574618269,-0.180885477547204
1.896,-0.0115545513556105,-0.189143885721239
1.9,-0.0221187861126051,-0.1967181782237
1.904,-0.0333915717919366,-0.203512234360257
1.908,-0.0453027852295232,-0.209435965631575
1.912,-0.0577704662766916,-0.214406925473343
1.916,-0.0707017567704295,-0.218351822922851
1.92,-0.0839940279787266,-0.221207915855779
1.924,-0.0975361809672902,-0.222924260405596
1.928,-0.111210101612534,-0.223462795689013
1.932,-0.124892249346329,-0.222799244948266
1.936,-0.138455356347014,-0.220923817004388
1.94,-0.151770212303288,-0.217841694735206
1.944,-0.164707507869337,-0.213573300538699
1.948,-0.177139709032478,-0.208154331937079
1.952,-0.188942933772216,-0.201635564040222
1.956,-0.199998801943156,-0.194082419098857
1.96,-0.210196229619029,-0.185574306998661
1.964,-0.219433139447222,-0.176203744065827
1.968,-0.227618059778608,-0.166075261152832
1.972,-0.234671586476067,-0.155304115169874
1.976,-0.24052768345247,-0.144014821665602
1.98,-0.245134799983847,-0.132339528679272
1.984,-0.24845678547635,-0.120416255111401
1.988,-0.25047358529701,-0.108387018905031
1.992,-0.251181704538587,-0.0963958825258617
1.996,-0.250594429818329,-0.0845869445629728
2,-0.248741803089653,-0.073102307803906
2.004,-0.244671418185017,-0.0628557796750832
2.008,-0.239651359267994,-0.0534438779917437
2.012,-0.233801263533318,-0.0449507916852358
2.016,-0.227248251516064,-0.0374445919157676
2.02,-0.220124809457834,-0.0309765724351327
2.024,-0.212566616176706,-0.0255808631797186
2.028,-0.204710349196715,-0.021274321259529
2.032,-0.196691505097949,-0.0180566990941845
2.036,-0.188642268706103,-0.0159110850518844
2.04,-0.180689464928104,-0.0148046078321196
2.044,-0.172952625505619,-0.0146893914671668
2.048,-0.165542201268574,-0.0155037439005483
2.052,-0.158557947907963,-0.017173558681981
2.056,-0.152087510478003,-0.0196139055166813
2.06,-0.146205228720777,-0.0227307829168703
2.064,-0.140971181670636,-0.0264230032203326
2.068,-0.136430486029281,-0.030584178510048
2.072,-0.132612858876937,-0.0351047741348689
2.076,-0.129532450971325,-0.0398741956082951
2.08,-0.127187952364781,-0.0447828741825532
2.084,-0.125562967891043,-0.04972431620204
2.088,-0.124626655606215,-0.0545970822672134
2.092,-0.124334616942279,-0.0593066631904677
2.096,-0.124630023454179,-0.0637672211726782
2.1,-0.125444960990319,-0.0679031673723862
2.104,-0.126701968651883,-0.0716505489125956
2.108,-0.128315746809333,-0.0749582221197729
2.112,-0.130195005499858,-0.0777887916532131
2.116,-0.132244422306776,-0.0801192992587855
2.12,-0.134366676924665,-0.0819416498081331
2.124,-0.13646452828793,-0.0832627663631779
2.128,-0.137592915548687,-0.0831271883372623
2.132,-0.137958315365782,-0.0824877331815863
2.136,-0.137774718173984,-0.0818066268121093
2.14,-0.137031638550208,-0.0811905698236316
2.144,-0.135734895171011,-0.0807471417219767
2.148,-0.133906566273831,-0.0805825417620459
2.152,-0.131584648160796,-0.0807993609986885
2.156,-0.128822424437578,-0.0814944231479578
2.16,-0.125687557760986,-0.0827567306169069
2.164,-0.122260920820319,-0.0846655501060981
2.168,-0.118635187052522,-0.087288669564392
2.172,-0.11491320555563,-0.0906808556445864
2.176,-0.111206188045487,-0.094882537027402
2.18,-0.107631738475597,-0.0999187355259188
2.184,-0.104311758518916,-0.105798262658264
2.188,-0.101370263863178,-0.112513195047556
2.192,-0.098931147676633,-0.120038637536976
2.196,-0.0971159282864476,-0.128332778222852
2.2,-0.096041518346628,-0.137337234966609
2.204,-0.0958180523024694,-0.146977688292586
2.208,-0.0965468080912955,-0.157164791006805
2.212,-0.0983182573924708,-0.167795340504578
2.216,-0.101210276676774,-0.178753695644455
2.22,-0.10528654901861,-0.189913415923584
2.224,-0.110595183306722,-0.201139097616948
2.228,-0.117167574349214,-0.212288377858227
2.232,-0.125017523449127,-0.223214075507616
2.236,-0.134140635282164,-0.233766434928257
2.24,-0.144514002094332,-0.243795437451896
2.244,-0.156096182378971,-0.253153143975538
2.248,-0.168827476184237,-0.261696031506208
2.252,-0.182976687817493,-0.268671071983388
2.256,-0.198211484636178,-0.273837090848702
2.26,-0.21397674170912,-0.277705272744129
2.264,-0.230133147992732,-0.280233957403942
2.268,-0.246538740639977,-0.281398019004915
2.272,-0.263050925942384,-0.281188934948118
2.276,-0.279528480524902,-0.279614607715546
2.28,-0.295833502833141,-0.276698945388772
2.284,-0.311833286259315,-0.272481210208442
2.288,-0.327402086629377,-0.267015147545893
2.292,-0.342422758597799,-0.260367910925391
2.296,-0.356788237771546,-0.252618801930595
2.3,-0.370402847883847,-0.243857845895404
2.304,-0.383183415091671,-0.234184226870218
2.308,-0.3950601746221,-0.223704607342727
2.312,-0.405977458162968,-0.212531359268984
2.316,-0.415894153771582,-0.200780734581901
2.32,-0.424783933679512,-0.188571003618099
2.324,-0.432635248702655,-0.176020590412718
2.328,-0.439451091636001,-0.163246233501426
2.332,-0.445248535472944,-0.150361200367222
2.336,-0.450058055541487,-0.137473582499241
2.34,-0.453922647945532,-0.124684696929959
2.344,-0.456896759640102,-0.112087617958923
2.348,-0.459045048266045,-0.0997658609654824
2.352,-0.460440992283734,-0.0877922376934587
2.356,-0.461165374151306,-0.076227899546212
2.36,-0.461304661019238,-0.0651215827614395
2.364,-0.460949308985978,-0.0545090659518862
2.368,-0.460192017812778,-0.0444128474804484
2.372,-0.459125963800168,-0.0348420465452077
2.376,-0.457943209326077,-0.025878847691312
2.38,-0.456982070442766,-0.0176140431916481
2.384,-0.456041022504637,-0.00971071374644345
2.388,-0.455176962775671,-0.00211757863271618
2.392,-0.454437646168941,0.00522385172258621
2.396,-0.453860859485013,0.0123779627873448
2.4,-0.453473770148354,0.0194136345566885
2.404,-0.453292458386623,0.026402774183126
2.408,-0.453321638865038,0.0334188055802183
2.412,-0.453554575156504,0.0405351397240763
2.416,-0.453973187227674,0.0478236493234526
2.42,-0.454548349671345,0.0553531713758148
2.424,-0.455240375226236,0.0631880606856996
2.428,-0.455999675826034,0.071386816356996
2.432,-0.456767590410217,0.0800008022985891
2.436,-0.457477366679353,0.0890730811279655
2.44,-0.458143786236936,0.0987576985291493
2.444,-0.458612238829121,0.10905578388807
2.448,-0.458732123062495,0.119905688953743
2.452,-0.458412848388222,0.131298725008471
2.456,-0.45756390768489,0.143213810725112
2.46,-0.456096464867282,0.155617511513387
2.464,-0.453924926626512,0.168464274980264
2.468,-0.450968474668565,0.181696858800963
2.472,-0.447152535542927,0.195246944576709
2.476,-0.442410166201697,0.209035928552338
2.48,-0.43668333451224,0.22297587758079
2.484,-0.429924075839222,0.236970636391383
2.488,-0.422095508369659,0.250917069953435
2.492,-0.413172692043117,0.264706423093626
2.496,-0.40314331833526,0.27822577758664
2.5,-0.392008220287584,0.291359585849459
2.504,-0.379116886149676,0.304108975684951
2.508,-0.365143135613886,0.316075035870883
2.512,-0.350158309646671,0.327142421397773
2.516,-0.334246962107467,0.337204318828211
2.52,-0.317505725336136,0.346163970501891
2.524,-0.300042002985429,0.353936045109338
2.528,-0.281972510367362,0.360447835766802
2.532,-0.263421685035986,0.365640269044248
2.536,-0.244519991682659,0.369468711465057
2.54,-0.225402147007222,0.371903563202711
2.544,-0.206205290941435,0.37293063133746
2.548,-0.18706713133736,0.372551278976297
2.552,-0.168124089295816,0.370782349214579
2.556,-0.149509472177615,0.367655866509776
2.56,-0.131351700671712,0.363218521030259
2.564,-0.113772615352521,0.35753094470824
2.568,-0.0968858869481444,0.350666790580115
2.572,-0.0807955528010279,0.342711629823921
2.576,-0.0655947000927207,0.333761683261361
2.58,-0.0513643142166409,0.323922406536001
2.584,-0.0381723084381978,0.313306949965883
2.588,-0.0260727478887356,0.302034515917347
2.592,-0.0151052787335028,0.290228637787019
2.596,-0.00529476993934878,0.27801540575726
2.6,0.0033488277411657,0.26552166515066
2.604,0.0108304038232849,0.252873213502134
2.608,0.0171693930457698,0.240193022596568
2.612,0.0223992673921816,0.227599511085988
2.616,0.0265668230675806,0.215204892840523
2.62,0.0297312726061311,0.203113625079131
2.624,0.0319631553794299,0.19142097884519
2.628,0.0330701062679266,0.181279857766235
2.632,0.0336342096163797,0.172113258377858
2.636,0.0338956792890719,0.163575438969549
2.64,0.0339560326500569,0.155648373783687
2.644,0.0339103284797366,0.148300747956127
2.648,0.0338455477474092,0.14148910380532
2.652,0.0338391449526276,0.13515917564378
2.656,0.0339577909708986,0.12924738967907
2.66,0.0342563255223733,0.123682503769726
2.664,0.0347769340759694,0.118387359483922
2.668,0.0355485606115288,0.113280717663663
2.672,0.0365865643261958,0.108279147567233
2.676,0.0378926243845243,0.103298938880891
2.68,0.0394548934804309,0.0982580057000333
2.684,0.0412483970989335,0.0930777517001976
2.688,0.0432356717731297,0.0876848663107064
2.692,0.0453676320047236,0.0820130225138897
2.696,0.0475846521439837,0.0760044487125395
2.7,0.049817846178589,0.0696113482758807
2.704,0.0519905253651862,0.0627971431298477
2.708,0.0540198107756252,0.0555375198504934
2.712,0.0558183753555697,0.0478212598621344
2.716,0.0572962879224362,0.0396508381772015
2.72,0.0583629297259489,0.0310427788048878
2.724,0.0589289527012377,0.0220277583915136
2.728,0.0589082478245571,0.0126504534366628
2.732,0.0582198910536936,0.00296913034313252
2.736,0.0567900347632888,-0.0069450183981477
2.74,0.0545537126043788,-0.0170087848112667
2.744,0.0514565268984645,-0.0271280916087305
2.748,0.0474561888059064,-0.0371993591221354
2.752,0.0417485625456631,-0.0472074466841378
2.756,0.0342987640365948,-0.0567447598625238
2.76,0.0259350686471589,-0.0654952177627476
2.764,0.0167449823164396,-0.0733429488043942
2.768,0.00683092117036944,-0.0801828941432701
2.772,-0.00369119579374402,-0.0859226635700078
2.776,-0.0146935779007087,-0.0904842072042687
2.78,-0.0260383938120158,-0.0938052764819266
2.784,-0.0375797758779081,-0.0958406510618367
2.788,-0.0491659681437075,-0.0965631117653585
2.792,-0.0606415861574786,-0.0959641430559085
2.796,-0.0718499551705576,-0.0940543527118063
2.8,-0.0826354914801419,-0.0908636002877148
2.804,-0.0928460912246248,-0.0864408304013434
2.808,-0.102335490367395,-0.0808536110056378
2.812,-0.110965559766379,-0.0741873816247629
