"Freq [GHz]","re(S(Antenna1_1_1,Antenna1_1_1)) []","im(S(Antenna1_1_1,Antenna1_1_1)) []"
1,0.368777118095975,0.0304474967245673
1.004,0.363298771085471,0.0114789537643658
1.008,0.357004208269122,-0.00712770561407106
1.012,0.349900307889621,-0.0253318726332424
1.016,0.341995894161731,-0.0430905608261086
1.02,0.333302348938324,-0.0603584433103129
1.024,0.323834234683224,-0.0770880045859622
1.028,0.313609909016109,-0.0932298094868677
1.032,0.302652110758557,-0.108732888644902
1.036,0.290988497508584,-0.123545236473965
1.04,0.27865211551238,-0.137614414414844
1.044,0.265681783750832,-0.15088824904351
1.048,0.252122376071488,-0.163315611680011
1.052,0.238024986979837,-0.174847263544198
1.056,0.223446969897609,-0.185436748202753
1.06,0.208451839066377,-0.195041311234372
1.064,0.19303005959118,-0.203581492668984
1.068,0.177225930605634,-0.210957201813938
1.072,0.161270405821471,-0.217198544857672
1.076,0.145258476004826,-0.222295366013298
1.08,0.129286991000711,-0.226247344896048
1.084,0.113453440918922,-0.229064306887518
1.088,0.0978546924970605,-0.230766363805953
1.092,0.0825857058051968,-0.231383879172
1.096,0.0677382571322737,-0.230957256229618
1.1,0.0533996939034324,-0.229536550585488
1.104,0.0396517469042843,-0.227180913650771
1.108,0.0265694239345544,-0.223957876283891
1.112,0.0142200072642402,-0.219942485911247
1.116,0.00266217518693303,-0.215216313420568
1.12,-0.00805473505712066,-0.209866348991618
1.124,-0.0178913083139854,-0.203983808374008
1.128,-0.0265545913911964,-0.197670915892213
1.132,-0.0342114664115856,-0.191101543327209
1.136,-0.0409607412762988,-0.184377459168241
1.14,-0.0468230105931388,-0.177586818329241
1.144,-0.0518275275171434,-0.170812479265484
1.148,-0.0560112658927386,-0.164131111657334
1.152,-0.0594178893331941,-0.157612456923414
1.156,-0.0620966513275474,-0.151318750815256
1.16,-0.0641012513543177,-0.145304313455748
1.164,-0.0654886720369445,-0.139615308493988
1.168,-0.0663180220344994,-0.134289669280304
1.172,-0.0666494083721177,-0.129357186474977
1.176,-0.0665428604751261,-0.124839748038176
1.18,-0.0660573262633232,-0.120751719737144
1.184,-0.0652497583123356,-0.117100451409071
1.188,-0.0641743054931508,-0.113886892203291
1.192,-0.0628816224734316,-0.111106296005421
1.196,-0.0614183064735377,-0.108748997159415
1.2,-0.0598264674562662,-0.106801235657851
1.204,-0.0581434344342857,-0.105246010744288
1.208,-0.0564015977926638,-0.104063942051882
1.212,-0.0546283840472619,-0.103234118072365
1.216,-0.052846356821005,-0.10273491288084
1.22,-0.0510734350437487,-0.102544753567837
1.224,-0.0493232171776877,-0.102642822681393
1.228,-0.047605398091556,-0.103009682162938
1.232,-0.0459262638652451,-0.103627807697746
1.236,-0.0442892484162867,-0.104482024897273
1.24,-0.0426955351997837,-0.105559841406177
1.244,-0.0411446868498481,-0.106851671912545
1.248,-0.0396352857671767,-0.108350955286924
1.252,-0.0381432696213552,-0.109817405281726
1.256,-0.0365788093727285,-0.111268866246796
1.26,-0.0349403239999401,-0.112967955178664
1.264,-0.0332387815024566,-0.114938853426146
1.268,-0.0314898589162553,-0.117205755873791
1.272,-0.0297139428102011,-0.11979209657483
1.276,-0.0279360147388196,-0.122719791690033
1.28,-0.0261854278260858,-0.126008515637723
1.284,-0.0244955824579611,-0.129675024789239
1.288,-0.0229035110354163,-0.133732541398525
1.292,-0.021449382967224,-0.138190208599914
1.296,-0.0201759422327965,-0.14305262530656
1.3,-0.0191278906648606,-0.148319467801134
1.304,-0.0183512304431641,-0.153985202724641
1.308,-0.0178925793811799,-0.160038894108466
1.312,-0.0177984725405717,-0.166464105135117
1.316,-0.0181146631116519,-0.173238893509099
1.32,-0.0188854348615044,-0.180335897401928
1.324,-0.0201529375421468,-0.187722507826347
1.328,-0.0219565555593799,-0.195361121429768
1.332,-0.0243323190141597,-0.203209467146726
1.336,-0.0273123649129145,-0.211220998824587
1.34,-0.0309244550148354,-0.219345345600172
1.344,-0.0351915554129418,-0.227528811136882
1.348,-0.0401314816028596,-0.235714912953519
1.352,-0.0457566115074836,-0.243844952499071
1.356,-0.0520736677111898,-0.251858607494028
1.36,-0.059083569045561,-0.259694537735195
1.364,-0.0667813506737155,-0.267290996370722
1.368,-0.0751561509585017,-0.274586439041458
1.372,-0.0841912625648011,-0.281520123939492
1.376,-0.0939585008739754,-0.288015725196697
1.38,-0.104603947877228,-0.293926262455261
1.384,-0.1157915739977,-0.299218307220046
1.388,-0.127468747820588,-0.303846947956822
1.392,-0.139579296375784,-0.30777274703599
1.396,-0.152064113762178,-0.310961995207744
1.4,-0.164861782489014,-0.313386899253899
1.404,-0.177909200794151,-0.315025703291767
1.408,-0.191142209456468,-0.315862744868266
1.412,-0.204496211937613,-0.31588844733398
1.416,-0.217906782021306,-0.315099250484742
1.42,-0.231310253411475,-0.31349748195532
1.424,-0.244644286102937,-0.31109117210441
1.428,-0.25784840463921,-0.307893815473579
1.432,-0.270864503701475,-0.303924082317018
1.436,-0.283637316798693,-0.299205483812128
1.44,-0.296114844145727,-0.293765995129103
1.444,-0.308248736119783,-0.287637640493869
1.448,-0.319994629187655,-0.280856044896584
1.452,-0.33131243119319,-0.273459957239304
1.456,-0.342166553846638,-0.265490749985963
1.46,-0.352526090121014,-0.256991900651946
1.464,-0.36236493494224,-0.248008460645395
1.468,-0.371661848258723,-0.238586517206944
1.472,-0.380400459625299,-0.228772654343942
1.476,-0.388569214367253,-0.218613418779985
1.48,-0.396161261870615,-0.208154797049351
1.484,-0.403174287037174,-0.197441709856988
1.488,-0.409610286831673,-0.186517529826755
1.492,-0.415475294244538,-0.17542362861665
1.496,-0.420779052857966,-0.164198959308252
1.5,-0.425534645796171,-0.152879679450322
1.504,-0.429698510887118,-0.141766401347147
1.508,-0.433414370019754,-0.13063307921561
1.512,-0.436704359423062,-0.119493965952551
1.516,-0.439590289145651,-0.108359329643511
1.52,-0.44209310415435,-0.0972356101069912
1.524,-0.444232370677827,-0.0861256412474311
1.528,-0.446025795538731,-0.0750289360079379
1.532,-0.447488785836406,-0.0639420298879003
1.536,-0.448634055817727,-0.0528588778767142
1.54,-0.449471287386189,-0.0417712991055883
1.544,-0.450006849761128,-0.0306694625925178
1.548,-0.450243583202934,-0.0195424068591579
1.552,-0.450180650890945,-0.00837858557236956
1.556,-0.449813462002326,0.00283356910957617
1.56,-0.449133668029277,0.0141050741937338
1.564,-0.448129233580209,0.0254458234712574
1.568,-0.446784581477703,0.0368640242134085
1.572,-0.44508081118896,0.0483656520686187
1.576,-0.442995988340681,0.0599539331014099
1.58,-0.440505502041718,0.07162886179503
1.584,-0.437582485735095,0.0833867632785796
1.588,-0.434198296211996,0.0952199077512331
1.592,-0.430323044525023,0.107116184125696
1.596,-0.425926171659407,0.119058839542496
1.6,-0.420977061016805,0.131026290299777
1.604,-0.415445679122045,0.142992008782078
1.608,-0.409303235361586,0.154924490245655
1.612,-0.402522851135717,0.166787301766363
1.616,-0.395080228467769,0.178539214988298
1.62,-0.386954307995481,0.190134422729554
1.624,-0.378127906102975,0.201522838643685
1.628,-0.368357715160048,0.212933936231317
1.632,-0.35771047105538,0.224052065008873
1.636,-0.346263249768594,0.23469801332738
1.64,-0.33403709742748,0.244795595448358
1.644,-0.321061516380658,0.254269717368458
1.648,-0.30737437226721,0.263047372293819
1.652,-0.293021682275158,0.271058623148298
1.656,-0.278057286702315,0.278237558017621
1.66,-0.262542407397813,0.284523204689176
1.664,-0.246545098513769,0.289860391111561
1.668,-0.230139596383206,0.294200539078808
1.672,-0.213405576814272,0.297502379480361
1.676,-0.196427329426236,0.299732578444019
1.68,-0.179292859887855,0.300866264686123
1.684,-0.162092931976521,0.300887450106459
1.688,-0.144920062286522,0.299789336616448
1.692,-0.127867481188325,0.297574504002245
1.696,-0.111028074232876,0.294254975163568
1.7,-0.0944933184646629,0.289852156698973
1.704,-0.0783522286285736,0.284396654523343
1.708,-0.062690327821747,0.2779279660198
1.712,-0.0475886573284766,0.270494051758393
1.716,-0.0331228398455008,0.26215079174406
1.72,-0.0193622097249893,0.252961332693068
1.724,-0.00636902309046146,0.242995334471332
1.728,0.00580224012972445,0.232328125353366
1.732,0.0171054716431081,0.22103977718718
1.736,0.0275034179796333,0.209214112823755
1.74,0.0369680435958658,0.196937659320622
1.744,0.0454807672171217,0.184298561502381
1.748,0.0530325668703041,0.171385471026341
1.752,0.0593192744650273,0.158611144884415
1.756,0.0644763671658422,0.146171215180358
1.76,0.0688904520767119,0.133834687268397
1.764,0.0726099619790619,0.121646392628161
1.768,0.0756857963899474,0.109643178369408
1.772,0.0781702119090891,0.0978538244254759
1.776,0.0801157193389411,0.0862991047871235
1.78,0.0815740055531609,0.0749919905294166
1.784,0.0825948976733554,0.0639379905459849
1.788,0.083225386701494,0.0531356235503866
1.792,0.0835087267890722,0.042577012829065
1.796,0.0834836251997539,0.0322485933290539
1.8,0.0831835369819951,0.022131918833242
1.804,0.0826360764688948,0.0122045551357763
1.808,0.0818625561078504,0.00244104373699049
1.812,0.0808776613389321,-0.00718608078752567
1.816,0.0796892677196455,-0.01670523764319
1.82,0.0782984046378003,-0.0261447295903464
1.824,0.0766993672478845,-0.035531674988244
1.828,0.0748799760957809,-0.0448909613714208
1.832,0.0728219810496665,-0.0542442401972236
1.836,0.0705016040391003,-0.0636089815504877
1.84,0.0678902124048517,-0.0729976072864364
1.844,0.0649551123578864,-0.0824167195937505
1.848,0.0616604498111501,-0.0918664411707573
1.852,0.0579682037834744,-0.101339881023388
1.856,0.053839255687022,-0.110822738418339
1.86,0.0492345161736797,-0.120293055004808
1.864,0.0441160898960293,-0.12972112314039
1.868,0.0384484574999032,-0.139069555509536
1.872,0.0321996533465757,-0.1482935187062
1.876,0.0251368435068537,-0.157450658826341
1.88,0.016763703634197,-0.16656958328577
1.884,0.00767380770623874,-0.175165404167303
1.888,-0.00209802191029541,-0.183157086896994
1.892,-0.0125066440661827,-0.190466414043204
1.896,-0.0234968994656105,-0.197019318278139
1.9,-0.0350040817926051,-0.2027471766247
1.904,-0.0469545742119366,-0.207588044330257
1.908,-0.0592666432195232,-0.211487807511575
1.912,-0.0718513789666916,-0.214401234633343
1.916,-0.0846137692104295,-0.216292908432851
1.92,-0.0974538911147266,-0.217138021585779
1.924,-0.11026820358129,-0.216923021365596
1.928,-0.122950920495534,-0.215646090739013
1.932,-0.135395444122329,-0.213317456188266
1.936,-0.147495836417013,-0.209959514774388
1.94,-0.159148305265288,-0.205606776155206
1.944,-0.170252682149337,-0.200305617948699
1.948,-0.180713867582478,-0.194113856167079
1.952,-0.190443220942216,-0.187100134950222
1.956,-0.199359871983156,-0.179343143378857
1.96,-0.207391932319029,-0.170930669458661
1.964,-0.214477586467222,-0.161958504527827
1.968,-0.220566043918608,-0.152529213633832
1.972,-0.225618335666067,-0.142750789832874
1.976,-0.22960794087247,-0.132735212425602
1.98,-0.232521232113847,-0.122596930846071
1.984,-0.23435773027635,-0.112451297368401
1.988,-0.23513016328701,-0.102412972795031
1.992,-0.234864325798587,-0.0925943300658617
1.996,-0.233598740258329,-0.0831038808429728
2,-0.231384122919653,-0.074044750103906
2.004,-0.227804345105017,-0.0662949480150832
2.008,-0.223614715867994,-0.0592725020317437
2.012,-0.218916388016318,-0.0530171691552358
2.016,-0.213812351728064,-0.0475554072557676
2.02,-0.208405714708834,-0.0429004194751327
2.024,-0.202798013769706,-0.0390524186697186
2.028,-0.197087585719715,-0.035999105329529
2.032,-0.191368024407949,-0.0337163489541845
2.036,-0.185726749096103,-0.0321690593518844
2.04,-0.180243707538104,-0.0313122313921196
2.044,-0.174990234565619,-0.0310921438171668
2.048,-0.170028084588574,-0.0314476902545483
2.052,-0.165408653127963,-0.032311818363981
2.056,-0.161172399498003,-0.0336130513016813
2.06,-0.157348479180777,-0.0352770644968703
2.064,-0.153954590870636,-0.0372282897230596
2.068,-0.150997039589281,-0.039391518100048
2.072,-0.148471013536937,-0.0416934738248689
2.076,-0.146361068641325,-0.0440643307982951
2.08,-0.144641811434781,-0.0464391455325532
2.084,-0.143278767231043,-0.04875918101204
2.088,-0.142229417645215,-0.0509730982072134
2.092,-0.141444388532279,-0.0530379940504677
2.096,-0.140868766776679,-0.0549202674926782
2.1,-0.140443522233319,-0.0565962980623862
2.104,-0.140107009257883,-0.0580529244925956
2.108,-0.139796520874333,-0.0592877146897729
2.112,-0.139449867659858,-0.0603090213832131
2.116,-0.139006952946776,-0.0611358219887855
2.12,-0.138411315974665,-0.0617973444081331
2.124,-0.13761161494793,-0.0623324844431779
2.128,-0.135715383728687,-0.0623826669972623
2.132,-0.133146597275782,-0.0625321172935863
2.136,-0.130196092853984,-0.0630326626801093
2.14,-0.126903931480208,-0.0639622553506316
2.144,-0.123322042131011,-0.0653934039379767
2.148,-0.119513402583831,-0.0673915552500459
2.152,-0.115551012070796,-0.0700136006466885
2.156,-0.111516674307578,-0.0733065328279578
2.16,-0.107499612530986,-0.0773062761569069
2.164,-0.103594940980319,-0.0820367104560981
2.168,-0.0999020193425223,-0.087508905064392
2.172,-0.0965227187176296,-0.0937205761745864
2.176,-0.0935596290404867,-0.100655776667402
2.18,-0.0911142384175972,-0.108284823855919
2.184,-0.0892851156459164,-0.116564466528264
2.188,-0.0881661266631777,-0.125438288597556
2.192,-0.087844715212633,-0.134837342926976
2.196,-0.0884002767784476,-0.144681004952852
2.2,-0.089902653236628,-0.154878032296609
2.204,-0.0924107737924694,-0.165327813132586
2.208,-0.0959714650812955,-0.175921782896805
2.212,-0.100618450642471,-0.186544986485578
2.216,-0.106371557126774,-0.197077760433455
2.22,-0.11323614062861,-0.207397507857984
2.224,-0.121202743786722,-0.217380537333948
2.228,-0.130246989689214,-0.226903935847227
2.232,-0.140329715629127,-0.235847445415616
2.236,-0.151397345342164,-0.244095312839257
2.24,-0.163382494644332,-0.251538082511896
2.244,-0.176204801898971,-0.258074302945538
2.248,-0.189771970784237,-0.263612119096208
2.252,-0.204008206347493,-0.267562418923388
2.256,-0.218609120360178,-0.269860303718702
2.26,-0.23336704828612,-0.270999463544129
2.264,-0.248166853549732,-0.270985195123942
2.268,-0.262896491752977,-0.269835577874915
2.272,-0.277448487932384,-0.267580855828118
2.276,-0.291721313406902,-0.264262647805546
2.28,-0.305620642597141,-0.259933000888772
2.284,-0.319060471929315,-0.254653304188442
2.288,-0.331964085919377,-0.248493082105893
2.292,-0.344264857257799,-0.241528687715391
2.296,-0.355906871311546,-0.233841918310595
2.3,-0.366845367443847,-0.225518576081404
2.304,-0.377046993351671,-0.216646997366218
2.308,-0.3864898707121,-0.207316574382727
2.312,-0.395163474122968,-0.197616292957984
2.316,-0.403068327841582,-0.187633309427901
2.32,-0.410215527579512,-0.177451588947099
2.324,-0.416626097652655,-0.167150626271718
2.328,-0.422330195836001,-0.156804268611426
2.332,-0.427366180952944,-0.146479658237222
2.336,-0.431779559881487,-0.136236310669241
2.34,-0.435621832807533,-0.126125341659959
2.344,-0.438949256655101,-0.116188854068923
2.348,-0.441821547950045,-0.106459492865482
2.352,-0.444300547136734,-0.0969601736534587
2.356,-0.446448866737306,-0.087703987726212
2.36,-0.448328545882238,-0.0786942832614395
2.364,-0.449999733409978,-0.0699249198618862
2.368,-0.451519421254778,-0.0613806908404484
2.372,-0.452940248580168,-0.0530379046952077
2.376,-0.454400737106077,-0.044883855631312
2.38,-0.456131968322766,-0.0368603408616481
2.384,-0.457885303774637,-0.0288317141424435
2.388,-0.459669279585671,-0.0207500650987162
2.392,-0.461484149188941,-0.0125664947571138
2.396,-0.463321841505013,-0.00423227081265517
2.4,-0.465166068338354,0.00430002595368847
2.404,-0.466992578366623,0.013075382694126
2.408,-0.468769551935038,0.0221352809172183
2.412,-0.470458129656504,0.0315166854420764
2.416,-0.472013064947674,0.0412511117634526
2.42,-0.473383489491345,0.0513637864258148
2.424,-0.474513778386236,0.0618729133256996
2.428,-0.475344500835034,0.072789057106996
2.432,-0.475813440509217,0.0841146529685892
2.436,-0.475856669310673,0.0958436499379655
2.44,-0.475420509510936,0.108063256639149
2.444,-0.474403846645121,0.12071047308807
2.448,-0.472730434702495,0.133685794313743
2.452,-0.470341934973222,0.146941270308471
2.456,-0.46718497681789,0.160421052295112
2.46,-0.463212135697282,0.174062028593387
2.464,-0.458382823406512,0.187794575720264
2.468,-0.452664077518565,0.201543412240963
2.472,-0.446031238712927,0.215228541833709
2.476,-0.438468506551697,0.228766270699338
2.48,-0.42996936619224,0.24207028350669
2.484,-0.420536880519222,0.255052761430383
2.488,-0.410183844469659,0.267625525425435
2.492,-0.398932800033117,0.279701187724626
2.496,-0.38681591292526,0.29119429464964
2.5,-0.373874713717584,0.302022444207459
2.504,-0.359733385759676,0.311944917744951
2.508,-0.344924685543886,0.320948447370883
2.512,-0.329533358746671,0.328975928907773
2.516,-0.313649466794466,0.335979939648211
2.52,-0.297367180538136,0.341923219011891
2.524,-0.280783536406949,0.346778996079338
2.528,-0.263997174209362,0.350531162106802
2.532,-0.247107075775986,0.353174288754248
2.536,-0.230211323065659,0.354713494915057
2.54,-0.213405893666222,0.355164167332711
2.544,-0.196783510616435,0.35455154216746
2.548,-0.18043256225736,0.352910156606297
2.552,-0.164436106405816,0.350283181394579
2.556,-0.148870971667615,0.346721646389776
2.56,-0.133806966731712,0.342283572951259
2.564,-0.119306206892521,0.33703302746824
2.568,-0.105422565068144,0.331039111616115
2.572,-0.0922012525910279,0.32437490511292
2.576,-0.0796785330127207,0.317116377238361
2.58,-0.0678815704366409,0.309341283356001
2.584,-0.0568284116581978,0.301128062544883
2.588,-0.0465280999087356,0.292554752103347
2.592,-0.0369809158635028,0.283697933967019
2.596,-0.0281787402693488,0.27463172754726
2.6,-0.0201055307488343,0.26542684234066
2.604,-0.0127379042057151,0.256149702832134
2.608,-0.00604581477023019,0.246861656756568
2.612,6.68363718158349E-06,0.237618276745988
2.616,0.00546060211358055,0.228468763890523
2.62,0.0103611216181311,0.219455460299131
2.624,0.0147566511794299,0.21061347633519
2.628,0.0189158237509266,0.202655239776235
2.632,0.0229382057863797,0.195070064647858
2.636,0.0268147157790719,0.187596005819549
2.64,0.0305736656900569,0.180202179933687
2.644,0.0342362875797366,0.172854327266127
2.648,0.0378164111374092,0.16551590002132
2.652,0.0413202863026276,0.15814917430978
2.656,0.0447465518008986,0.15071636810307
2.66,0.0480863479323733,0.143180747652726
2.664,0.0513235707959694,0.135507705394922
2.668,0.0544352623615288,0.127665792867063
2.672,0.0573921299961958,0.119627692918233
2.676,0.0601591867945243,0.111371116560891
2.68,0.0626965027404309,0.102879610640033
2.684,0.0649600554289335,0.0941432639201976
2.688,0.0669026676681297,0.0851593003607064
2.692,0.0684750180907236,0.0759325497538897
2.696,0.0696267100976437,0.0664757876525395
2.7,0.070307383316589,0.0568099378358807
2.704,0.0704678512561862,0.0469641324998477
2.708,0.0700612481786252,0.0369756270904934
2.712,0.0690441678255697,0.0268895686121344
2.716,0.0673777765024362,0.0167586179672015
2.72,0.0650288829759489,0.00664242926488781
2.724,0.0619709477512377,-0.00339300944848645
2.728,0.0581850149545571,-0.0132761672333372
2.732,0.0536605504436936,-0.0229308843878675
2.736,0.0483961707132887,-0.0322773991051477
2.74,0.0424002483143789,-0.0412334740642667
2.744,0.0356913808584645,-0.0497156086957305
2.748,0.0282987120359064,-0.0576403211211354
2.752,0.0198189670956631,-0.0647205153391378
2.756,0.0103871766465948,-0.0707159643725238
2.76,0.000567186417158909,-0.0757212439327476
2.764,-0.00953524861356038,-0.0796938008743942
2.768,-0.0198091946396306,-0.0826031576532701
2.772,-0.030139969993744,-0.0844315309300078
2.776,-0.0404106488657087,-0.0851742797842687
2.78,-0.0505036178740158,-0.0848401746619266
2.784,-0.0603021641889081,-0.0834514806618367
2.788,-0.0696920733837075,-0.0810438512153585
2.792,-0.0785632143254786,-0.0776660306359085
2.796,-0.0868110883081576,-0.0733793668718063
2.8,-0.0943383195091419,-0.0682571385177148
2.804,-0.101056064464625,-0.0623837026413434
2.808,-0.106885318627395,-0.0558534731756378
2.812,-0.111758099416379,-0.0487697419447629
