"Freq [GHz]","re(S(Antenna1_1_1,Antenna1_1_1)) []","im(S(Antenna1_1_1,Antenna1_1_1)) []"
1,0.375598581007975,0.0307023981715673
1.004,0.369893493001071,0.0105178488883658
1.008,0.363168211903122,-0.00921981798007106
1.012,0.355451264447621,-0.0284376268152424
1.016,0.346777988347731,-0.0470649227851086
1.02,0.337190214268324,-0.0650340991533129
1.024,0.326735867878224,-0.0822812662129622
1.028,0.315468503010109,-0.0987468535872676
1.032,0.303446777554557,-0.114376139612802
1.036,0.290733884304584,-0.129119703520965
1.04,0.27739694860838,-0.142933798087844
1.044,0.263506404891832,-0.15578064231151
1.048,0.249135363110488,-0.167628635411011
1.052,0.234358975667837,-0.178452495011198
1.056,0.219253814225609,-0.188233323750753
1.06,0.203897264641377,-0.196958609673372
1.064,0.18832414152318,-0.204575165005984
1.068,0.172603823273634,-0.211035458863938
1.072,0.156896011919171,-0.216420483557672
1.076,0.141278499945126,-0.220747417353298
1.08,0.125826669734711,-0.224039309236047
1.084,0.110613086886122,-0.226324765440518
1.088,0.0957071331290605,-0.227637620588952
1.092,0.0811746762341967,-0.228016598152
1.096,0.0670777738432737,-0.227504963712618
1.1,0.0534744080104324,-0.226150173752488
1.104,0.0404182471462843,-0.224003521633771
1.108,0.0279584323105544,-0.221119781652891
1.112,0.0161393850642402,-0.217556851175247
1.116,0.00500063458693304,-0.213375390264568
1.12,-0.00542333758712066,-0.208638457645578
1.124,-0.0151032363139854,-0.203411141456708
1.128,-0.0238167720111964,-0.197740896293213
1.132,-0.0316726991815856,-0.191763017007209
1.136,-0.0387329021662988,-0.185561614673241
1.14,-0.0450005411851388,-0.179205769262241
1.144,-0.0504844721131434,-0.172763068712484
1.148,-0.0551990647977386,-0.166299134028334
1.152,-0.0591639801621941,-0.159877156583414
1.156,-0.0624039054015474,-0.153557451635256
1.16,-0.0649482470685177,-0.147397032485748
1.164,-0.0668307824529745,-0.141449210103988
1.168,-0.0680892703374994,-0.135763223370304
1.172,-0.0687650230111177,-0.130383905064977
1.176,-0.0689024422311261,-0.125351389048176
1.18,-0.0685485226893232,-0.120700863662144
1.184,-0.0677523274213356,-0.116462376252071
1.188,-0.0665644404231508,-0.112660693367291
1.192,-0.0650364025734316,-0.109315220418421
1.196,-0.0632201376435377,-0.106439984022415
1.2,-0.0611673759262662,-0.104043679338751
1.204,-0.0589290832942857,-0.102129783747288
1.208,-0.0565549042326638,-0.100696737139282
1.212,-0.0540926272672619,-0.0997381879673648
1.216,-0.051587681391005,-0.0992433029688398
1.22,-0.0490826721437487,-0.099197137273837
1.224,-0.0466169652766877,-0.099581060362393
1.228,-0.044226325917556,-0.100373232149938
1.232,-0.0419426200112451,-0.101549122327746
1.236,-0.0397935843462867,-0.103082065057273
1.24,-0.0378026701277837,-0.104943840066177
1.244,-0.0359889641630481,-0.107105270672545
1.248,-0.0343671902271767,-0.109536828116924
1.252,-0.0330378404232552,-0.111945702271726
1.256,-0.0319080218077285,-0.114271106936796
1.26,-0.0308506453789401,-0.116759028908664
1.264,-0.0298603493584566,-0.119409763611146
1.268,-0.0289327183172553,-0.122226700445791
1.272,-0.0280648532002011,-0.12521611658483
1.276,-0.0272559078988196,-0.128386885439033
1.28,-0.0265075802960858,-0.131750104438723
1.284,-0.0258245465679611,-0.135318648728839
1.288,-0.0252148281954163,-0.139106658833525
1.292,-0.024690082507224,-0.143128971782914
1.296,-0.0242658086027965,-0.14740050647356
1.3,-0.0239614623548606,-0.151935615170134
1.304,-0.023800475432164,-0.156747413874641
1.308,-0.0238101752771799,-0.161847105031466
1.312,-0.0240216048775717,-0.167243306425117
1.316,-0.0244692427186519,-0.172941400299099
1.32,-0.0251906257245044,-0.178942916681928
1.324,-0.0262258794389468,-0.185244964536347
1.328,-0.0276171618123799,-0.191839723759768
1.332,-0.0294080287301597,-0.198714010166726
1.336,-0.0316427309709146,-0.205848924694586
1.34,-0.0343654538978354,-0.213219596420172
1.344,-0.0376195124759418,-0.220795027806882
1.348,-0.0414465153668596,-0.228538048687519
1.352,-0.0458855127574836,-0.236405383782071
1.356,-0.0509721432411898,-0.244347836356028
1.36,-0.056737795435561,-0.252310588987195
1.364,-0.0632088002637155,-0.260233619740722
1.368,-0.0704056694585017,-0.268052230428958
1.372,-0.0783423955948011,-0.275697681228492
1.376,-0.0871726539039754,-0.283116203314697
1.38,-0.0971968336272279,-0.290176971952261
1.384,-0.1079493632077,-0.296692563378046
1.388,-0.119385315610588,-0.302588878417822
1.392,-0.131451756641784,-0.30779667018799
1.396,-0.144088345784178,-0.312252467147744
1.4,-0.157228047572014,-0.315899417073899
1.404,-0.170797943013151,-0.318688038461767
1.408,-0.184720128579468,-0.320576867338266
1.412,-0.198912689200013,-0.32153298919398
1.416,-0.213290730092306,-0.321532447244742
1.42,-0.227767451555675,-0.32056052079532
1.424,-0.242255250001937,-0.31861186881441
1.428,-0.25666682806721,-0.315690536673579
1.432,-0.270916296456475,-0.311809825741018
1.436,-0.284920250308693,-0.306992027886128
1.44,-0.298598803225727,-0.301268029286103
1.444,-0.311876562789783,-0.294676789612869
1.448,-0.324683532277655,-0.287264705280584
1.452,-0.33695592457319,-0.279084866672304
1.456,-0.348636875546638,-0.270196221607463
1.46,-0.359677045821014,-0.260662658255946
1.464,-0.37003510179224,-0.250552022453695
1.468,-0.379678068408723,-0.239935085180944
1.472,-0.388581548725299,-0.228884476864942
1.476,-0.396729806917253,-0.217473605679985
1.48,-0.404115714003615,-0.205775577287351
1.484,-0.410740557696174,-0.193862133426988
1.488,-0.416613719732673,-0.181802626376755
1.492,-0.421752226580538,-0.16966304598665
1.496,-0.426180181165966,-0.157505114658252
1.5,-0.429928085288171,-0.145385465030322
1.504,-0.432878392612718,-0.133753369137147
1.508,-0.435326865424654,-0.12228794517561
1.512,-0.437323224585062,-0.111007800282551
1.516,-0.438916977262651,-0.0999236186335113
1.52,-0.44015633315735,-0.0890383758369911
1.524,-0.441087164515827,-0.0783476922344311
1.528,-0.441752027158731,-0.0678403178249379
1.532,-0.442189258496406,-0.0574987394849003
1.536,-0.442432167367727,-0.0472998993157142
1.54,-0.442508328756189,-0.0372160110755883
1.544,-0.442438994711128,-0.0272154603585178
1.548,-0.442238631092934,-0.0172637727197579
1.552,-0.441914587290946,-0.00732463304836956
1.556,-0.441466904302326,0.00263906129557617
1.56,-0.440888263929277,0.0126641314867338
1.564,-0.440164079990209,0.0227860505482574
1.568,-0.439272729857703,0.0330378969434085
1.572,-0.43818592249196,0.0434493461786187
1.576,-0.436869197062681,0.0540457172614099
1.58,-0.435282544174718,0.06484709027503
1.584,-0.433381139602095,0.0758675099485796
1.588,-0.431116179100996,0.0871142886812331
1.592,-0.428435800738823,0.0985874213056965
1.596,-0.425286080346407,0.110279121472496
1.6,-0.421612084213805,0.122173488439777
1.604,-0.417358962409045,0.134246310242078
1.608,-0.412473065408586,0.146465007785655
1.612,-0.406903066405717,0.158788721846363
1.616,-0.400601071417769,0.171168542888298
1.62,-0.393523699685481,0.183547881626554
1.624,-0.385633116952975,0.195862975694685
1.628,-0.376585967140048,0.208504551648317
1.632,-0.36643664201538,0.220991514266873
1.636,-0.355275005478594,0.23305148610318
1.64,-0.34311983228748,0.244577127547358
1.644,-0.330002718590658,0.255462472058458
1.648,-0.31596786794721,0.265604509125819
1.652,-0.301071682335158,0.274904726908298
1.656,-0.285382165362315,0.283270590957621
1.66,-0.268978147517813,0.290616936519176
1.664,-0.251948346012769,0.296867253551561
1.668,-0.234390274166206,0.301954845138808
1.672,-0.216409017381272,0.305823842230361
1.676,-0.198115894693136,0.308430059784019
1.68,-0.179627026408855,0.309741681876123
1.684,-0.161061829710521,0.309739766046459
1.688,-0.142541464940522,0.308418559726448
1.692,-0.124187255988325,0.305785624572245
1.696,-0.106119108382876,0.301861767313568
1.7,-0.0884539487546629,0.296680778568973
1.704,-0.0713042086985736,0.290288983923343
1.708,-0.054776375641747,0.2827446143578
1.712,-0.0389696319784766,0.274117005598393
1.716,-0.0239746026155008,0.26448563860006
1.72,-0.00987222930498926,0.253939035582268
1.724,0.00326721164953854,0.242573528128332
1.728,0.0153849338997244,0.230491915755366
1.732,0.0264342955031081,0.21780203494018
1.736,0.0363812738496333,0.204615259903755
1.74,0.0452047537558659,0.191044957440622
1.744,0.0528966245971217,0.177204918932381
1.748,0.0594616847703041,0.163207792866341
1.752,0.0644651848830273,0.149610952054415
1.756,0.0681140440538422,0.136680114670358
1.76,0.0709908584187119,0.124083402458397
1.764,0.0731769929031619,0.111863851458161
1.768,0.0747552460999475,0.100052069869408
1.772,0.0758081698630891,0.0886663961354759
1.776,0.0764164404089411,0.0777132709671235
1.78,0.0766573069231609,0.0671878136994166
1.784,0.0766031425633554,0.0570745906559849
1.788,0.076320120351494,0.0473485599003866
1.792,0.0758670349490722,0.037976174369065
1.796,0.0752942884797539,0.0289166230410539
1.8,0.0746430559319951,0.020123187576242
1.804,0.0739446429188948,0.0115446903385763
1.808,0.0732200453378504,0.00312700826899049
1.812,0.0724797172589321,-0.00518537392052567
1.816,0.0717235500396455,-0.01344779825319
1.82,0.0709410624178003,-0.0217138829503464
1.824,0.0701117975678845,-0.030034013858244
1.828,0.0692059202557809,-0.0384539041014208
1.832,0.0681850035296665,-0.0470132473772236
1.836,0.0670029916611003,-0.0557444885504877
1.84,0.0656073227718517,-0.0646717336464364
1.844,0.0639401922006863,-0.0738098190237505
1.848,0.0619399351141501,-0.0831635569607573
1.852,0.0595425048394744,-0.0927271723133884
1.856,0.056683021657022,-0.102483941468339
1.86,0.0532973654836797,-0.112406042044808
1.864,0.0493237848660293,-0.12245461796039
1.868,0.0447044944199032,-0.132580061319536
1.872,0.0393872324365757,-0.1427225087562
1.876,0.0330607057068537,-0.152964677256341
1.88,0.025070883704197,-0.16336024924277
1.884,0.0161767910862387,-0.173247437924303
1.888,0.00641660029970459,-0.182519593378464
1.892,-0.00415790951618269,-0.191074034001204
1.896,-0.0154818931556105,-0.198813777173139
1.9,-0.0274781956826051,-0.2056491893247
1.904,-0.0400583126319366,-0.211499528950257
1.908,-0.0531235389095232,-0.216294358101575
1.912,-0.0665662883266916,-0.219974799503343
1.916,-0.0802715632104295,-0.222494619452851
1.92,-0.0941185509287266,-0.223821118855779
1.924,-0.10798232238429,-0.223935818075596
1.928,-0.121735605871534,-0.222834924419013
1.932,-0.135250608530329,-0.220529574488266
1.936,-0.148400856788014,-0.217045847054388
1.94,-0.161063026995288,-0.212424545915206
1.944,-0.173118737529337,-0.206720755528699
1.948,-0.184456274232478,-0.200003176077079
1.952,-0.194972222022216,-0.192353247780222
1.956,-0.204572977203156,-0.183864077778856
1.96,-0.213176116389029,-0.174639185988661
1.964,-0.220711600697222,-0.164791089105827
1.968,-0.227122796078608,-0.154439744548832
1.972,-0.232367293646067,-0.143710878329374
1.976,-0.23641751690247,-0.132734222696602
1.98,-0.239261106303847,-0.121641690820071
1.984,-0.24090107474635,-0.110565516768401
1.988,-0.24135573144701,-0.0996363897450306
1.992,-0.240658375168587,-0.0889816113658617
1.996,-0.238856761308329,-0.0787233048129728
2,-0.236012351209653,-0.068976703633906
2.004,-0.231573426795017,-0.0607657944950832
2.008,-0.226492691837994,-0.0534107842017437
2.012,-0.220888765734318,-0.0469511416952358
2.016,-0.214881446138064,-0.0414108568057676
2.02,-0.208589739839834,-0.0367986497651327
2.024,-0.202129955909706,-0.0331084263497186
2.028,-0.195613891239715,-0.030319967059529
2.032,-0.189147136637949,-0.0283998350741845
2.036,-0.182827529586103,-0.0273024844318844
2.04,-0.176743776768104,-0.0269715467521196
2.044,-0.170974266685619,-0.0273412723371668
2.048,-0.165586089258574,-0.0283380990205483
2.052,-0.160634275637963,-0.029882320444981
2.056,-0.156161267858003,-0.0318898242446813
2.06,-0.152196624000777,-0.0342738695608703
2.064,-0.148756960450636,-0.0369468731230596
2.068,-0.145846129149281,-0.039822173290048
2.072,-0.143455623756937,-0.0428157420848689
2.076,-0.141565204721325,-0.0458478165182951
2.08,-0.140143730044781,-0.0488444218125531
2.084,-0.139150175031043,-0.05173876172204
2.088,-0.138534821176215,-0.0544724530172134
2.092,-0.138240592153279,-0.0569965843104677
2.096,-0.138204512017179,-0.0592725825326782
2.1,-0.138359259374319,-0.0612728735023862
2.104,-0.138634789633883,-0.0629813267725956
2.108,-0.138959996594333,-0.0643934784297729
2.112,-0.139264384169858,-0.0655165294832131
2.116,-0.139479719126776,-0.0663691210187855
2.12,-0.139541636114665,-0.0669808910381331
2.124,-0.13939116741793,-0.0673918216931779
2.128,-0.138079362688687,-0.0671099668972623
2.132,-0.136024675055782,-0.0668265752615863
2.136,-0.133525860313984,-0.0668476104471094
2.14,-0.130619957070208,-0.0672584977808316
2.144,-0.127356587931011,-0.0681392170979767
2.148,-0.123797094323831,-0.0695626428230459
2.152,-0.120013466130796,-0.0715930194566885
2.156,-0.116087086537578,-0.0742845966279577
2.16,-0.112107315030986,-0.0776804449269069
2.164,-0.108169934300319,-0.0818114704160981
2.168,-0.104375487992522,-0.086695642464392
2.172,-0.10082753812563,-0.0923374454145864
2.176,-0.0976308717764867,-0.098727561417402
2.18,-0.0948896869295972,-0.105842787365919
2.184,-0.0927057873849164,-0.113646185598264
2.188,-0.0911768161671777,-0.122087463747556
2.192,-0.090394555742633,-0.131103576146976
2.196,-0.0904433219984476,-0.140619535162852
2.2,-0.091398477126628,-0.150549418166609
2.204,-0.0933250843524694,-0.160797552622586
2.208,-0.0962767249612955,-0.171259859486805
2.212,-0.100294495322471,-0.181825332434578
2.216,-0.105406198656774,-0.192377629252455
2.22,-0.11162574292861,-0.202796749516584
2.224,-0.118952753436722,-0.212960772256248
2.228,-0.127372404599214,-0.222747626273227
2.232,-0.136855472739127,-0.232036865745616
2.236,-0.147358607972164,-0.240711423849257
2.24,-0.158824819904332,-0.248659317791896
2.244,-0.171184169068971,-0.255775279515538
2.248,-0.184354652604237,-0.261962287736208
2.252,-0.198363874127493,-0.266618937843388
2.256,-0.212916518896178,-0.269640587608702
2.26,-0.22771436353412,-0.271506233954129
2.264,-0.242642998891732,-0.272210755743942
2.268,-0.257589891955977,-0.271761573214915
2.272,-0.272445802229384,-0.270178172808118
2.276,-0.287106114966902,-0.267491473195546
2.28,-0.301472073947141,-0.263743045038772
2.284,-0.315451898209315,-0.258984199188442
2.288,-0.328961769299377,-0.253274959405893
2.292,-0.341926677477799,-0.246682937045391
2.296,-0.354281117891546,-0.239282126080595
2.3,-0.365969629833847,-0.231151637825404
2.304,-0.376947174541671,-0.222374394953218
2.308,-0.3871793497121,-0.213035804586727
2.312,-0.396642440712968,-0.203222430449984
2.316,-0.405323311451582,-0.193020683286902
2.32,-0.413219139469512,-0.182515548421099
2.324,-0.420337002392655,-0.171789368351718
2.328,-0.426693324616001,-0.160920697151426
2.332,-0.432313195082944,-0.149983242227222
2.336,-0.437229568461487,-0.139044907319241
2.34,-0.441482363745533,-0.128166949129959
2.344,-0.445117475185101,-0.117403258118923
2.348,-0.448185711869045,-0.106799771915482
2.352,-0.450741682626734,-0.0963940280534587
2.356,-0.452842643773306,-0.086214860536212
2.36,-0.454547327312238,-0.0762822425014395
2.364,-0.455914767324978,-0.0666072755518862
2.368,-0.457003142054778,-0.0571923237704484
2.372,-0.457868648730168,-0.0480312888352077
2.376,-0.458646198956077,-0.039153860661312
2.38,-0.459571274342766,-0.0305748301716481
2.384,-0.460445154244637,-0.0220993939464435
2.388,-0.461290613475671,-0.0136894837727162
2.392,-0.462123493408941,-0.00530420958341379
2.396,-0.462952425565013,0.00309917397734483
2.4,-0.463778677668354,0.0115642795493885
2.404,-0.464596123276623,0.020134592559126
2.408,-0.465391334035038,0.0288524847792183
2.412,-0.466143792156504,0.0377582503420763
2.416,-0.466826219017674,0.0468891781134526
2.42,-0.467405014191345,0.0562786736158148
2.424,-0.467840797816236,0.0659554429956996
2.428,-0.468089047996034,0.075942750446996
2.432,-0.468100823460217,0.0862577595085892
2.436,-0.467823560863353,0.0969109672379655
2.44,-0.467248903413936,0.107999756779149
2.444,-0.466270587023121,0.11949514312807
2.448,-0.464793331440495,0.131325898963743
2.452,-0.462757770161222,0.143465300318471
2.456,-0.46010667712989,0.155878602035112
2.46,-0.456785957577282,0.168523297663387
2.464,-0.452745601316512,0.181349495880264
2.468,-0.447940585248565,0.194300407630963
2.472,-0.442331712892927,0.207312937386709
2.476,-0.435886379291697,0.220318369972338
2.48,-0.428579251012239,0.23324314371279
2.484,-0.420392852059222,0.246009699312383
2.488,-0.411318047669659,0.258537392914435
2.492,-0.401354419603117,0.270743461238626
2.496,-0.39051052768526,0.28254402584864
2.5,-0.378804054057584,0.293855123284459
2.504,-0.365788513019676,0.304599899264951
2.508,-0.351979282523886,0.314576397630883
2.512,-0.337441323596671,0.323709112187773
2.516,-0.322247508167467,0.331929650658211
2.52,-0.306477743506136,0.339177575241891
2.524,-0.290218009399429,0.345401132329338
2.528,-0.273559321951362,0.350557862766802
2.532,-0.256596638683986,0.354615085604248
2.536,-0.239427720254659,0.357550250335057
2.54,-0.222151964445222,0.359351154032711
2.544,-0.204869228274435,0.36001602208746
2.548,-0.18767865405736,0.359553452566297
2.552,-0.170677514995816,0.357982226444579
2.556,-0.153960095417615,0.355330987469776
2.56,-0.137616620301712,0.351637796970259
2.564,-0.121732247682521,0.34694957095824
2.568,-0.106386136878144,0.341321407729115
2.572,-0.0916506041110279,0.33481581590792
2.576,-0.0775903760427207,0.327501854073361
2.58,-0.064261950256641,0.319454193907001
2.584,-0.0517130704481978,0.310752119917883
2.588,-0.0399823223287357,0.301478479443347
2.592,-0.0290988549235028,0.291718597157019
2.596,-0.0190822300193488,0.28155916873726
2.6,-0.0099424012688343,0.27108714846066
2.604,-0.00167982235671505,0.260388645702134
2.608,0.00571431766576981,0.249547844876568
2.612,0.0122577354921816,0.238645963325988
2.616,0.0179765763915806,0.227760261040523
2.62,0.0229048253721311,0.216963115369131
2.624,0.0270836148784299,0.20632117334519
2.628,0.0304624597539266,0.196648147646235
2.632,0.0333747088863797,0.187510579517858
2.636,0.0359419629190719,0.178664773749549
2.64,0.0382197266900569,0.170104424133687
2.644,0.0402593493797366,0.161815959796127
2.648,0.0421071653674092,0.15377929995532
2.652,0.0438037445226276,0.14596870452378
2.656,0.0453832618508986,0.13835370641907
2.66,0.0468729951723733,0.130900110137726
2.664,0.0482929572659694,0.123571040793922
2.668,0.0496556673315288,0.116328026755063
2.672,0.0509660645961958,0.109132098890233
2.676,0.0522215650045243,0.101944889070891
2.68,0.0534122597604309,0.0947297106100333
2.684,0.0545212527689335,0.0874526034601976
2.688,0.0555251319031297,0.0800833274507064
2.692,0.0563945670847236,0.0725962875338897
2.696,0.0570950264439837,0.0649713755125395
2.7,0.057587599920589,0.0571947142858807
2.704,0.0578299179841862,0.0492592912898477
2.708,0.0577771517555252,0.0411654697904934
2.712,0.0573830792415697,0.0329213678921344
2.716,0.0566012012764362,0.0245430971072015
2.72,0.0553858897259489,0.0160548542748878
2.724,0.0536935496912377,0.00748886260151355
2.728,0.0514837768745571,-0.00111484007333721
2.732,0.0487204910336936,-0.00970876563686748
2.736,0.0453730263332888,-0.0182384899281477
2.74,0.0414171595643789,-0.0266433119812667
2.744,0.0368360581084645,-0.0348570508977305
2.748,0.0316211297059064,-0.0428089708171354
2.752,0.0252402991156631,-0.0504448189671378
2.756,0.0177063854965948,-0.0574919434835238
2.76,0.0096116918971589,-0.0637898123427476
2.764,0.00103250546643962,-0.0692702346143942
2.768,-0.00794615767963056,-0.0738736070932701
2.772,-0.017231583823744,-0.0775499969900078
2.776,-0.0267245230907087,-0.0802600983542687
2.78,-0.0363204657820158,-0.0819760467919266
2.784,-0.0459110163579081,-0.0826820789218367
2.788,-0.0553853462897075,-0.0823750251353585
2.792,-0.0646317057104786,-0.0810646262759085
2.796,-0.0735389725681576,-0.0787736674718063
2.8,-0.0819982172891419,-0.0755379247177148
2.804,-0.0899042603546248,-0.0714059226513434
2.808,-0.0971572000673954,-0.0664385043856378
2.812,-0.103663887846379,-0.0607082172947629
