"Freq [GHz]","re(S(Antenna1_1_1,Antenna1_1_1)) []","im(S(Antenna1_1_1,Antenna1_1_1)) []"
1,0.372996940040975,0.0229992531335673
1.004,0.366263579368071,0.00334763655536582
1.008,0.358605856543122,-0.0157374958639711
1.012,0.350063427039621,-0.0341987091957424
1.016,0.340680464187731,-0.0519814153040386
1.02,0.330505435300324,-0.0690342940414129
1.024,0.319590833797224,-0.0853096943178622
1.028,0.307992869510109,-0.100764010168868
1.032,0.295771119860557,-0.115358027230902
1.036,0.282988145078584,-0.129057235381965
1.04,0.26970907110238,-0.141832103643844
1.044,0.256001144153832,-0.15365831390751
1.048,0.241933261379488,-0.164516950420011
1.052,0.227575482200837,-0.174394642481198
1.056,0.212998525336569,-0.183283658253753
1.06,0.198273256643077,-0.191181948119372
1.064,0.18346830593318,-0.198072705953984
1.068,0.168661838381634,-0.203950652863938
1.072,0.153929864477471,-0.208866358179672
1.076,0.139338601528826,-0.212842714114298
1.08,0.124951417127711,-0.215907731618047
1.084,0.110828374398122,-0.218094197672518
1.088,0.0970258200180605,-0.219439285733952
1.092,0.0835960205871967,-0.2199841247651
1.096,0.0705868522372737,-0.219773333083227
1.1,0.0580415475754324,-0.218854523901088
1.104,0.0459985031272843,-0.217277790036771
1.108,0.0344911494755544,-0.215095175703891
1.112,0.0235478851572402,-0.212360143622247
1.116,0.013192074285933,-0.209127045845568
1.12,0.00344210662787934,-0.205450606712618
1.124,-0.00568848227798537,-0.201385426128708
1.128,-0.0141455493861964,-0.197038971845213
1.132,-0.0219728355402856,-0.192442174997209
1.136,-0.0291904839371088,-0.187626663798241
1.14,-0.0358042826901388,-0.182637344279241
1.144,-0.0418226035411434,-0.177516718985484
1.148,-0.0472559809187386,-0.172304823090334
1.152,-0.0521167074981941,-0.167039226189414
1.156,-0.0564184563835474,-0.161755094971256
1.16,-0.0601759390105177,-0.156485310369748
1.164,-0.0634046067329445,-0.151260631406988
1.168,-0.0661204025294994,-0.146109896737704
1.172,-0.0683395677171177,-0.141060253987677
1.176,-0.0700785067321261,-0.136137406314676
1.18,-0.0713537112183232,-0.131365865272244
1.184,-0.0721817427393356,-0.126769199039071
1.188,-0.0725792715491508,-0.122370265366291
1.192,-0.0725631670294316,-0.118191419220421
1.196,-0.0721506337315377,-0.114254686036415
1.2,-0.0713593854102662,-0.110581892671751
1.204,-0.0702078481892857,-0.107194749684288
1.208,-0.0687153829292638,-0.104114880147882
1.212,-0.0669025162028619,-0.101363792127365
1.216,-0.064791168850005,-0.0989627938348398
1.22,-0.0624048710735487,-0.096932852516837
1.224,-0.0597689533366877,-0.095294400057393
1.228,-0.056910702984556,-0.0940670902619384
1.232,-0.0538594775092451,-0.0932695144697464
1.236,-0.0506467666812867,-0.0929188838132734
1.24,-0.0473061973147837,-0.0930306876961774
1.244,-0.0438734762820481,-0.0936183391555448
1.248,-0.0403862692771767,-0.0946928184499242
1.252,-0.0368264823743552,-0.0962336500103258
1.256,-0.0332285387767285,-0.0982698906930164
1.26,-0.0296953919939401,-0.100839970499564
1.264,-0.0262762821584566,-0.103941014175146
1.268,-0.0230203853112553,-0.107565266375791
1.272,-0.0199762132682011,-0.11170011103583
1.276,-0.0171910257038196,-0.116328179092033
1.28,-0.0147102686590858,-0.121427540408723
1.284,-0.0125770526189611,-0.126971973419839
1.288,-0.0108316817974163,-0.132931303879525
1.292,-0.00951124448802402,-0.139271802307914
1.296,-0.00864927222159649,-0.14595662829456
1.3,-0.00827547318616056,-0.152946308810134
1.304,-0.00841554293196405,-0.160199237080641
1.308,-0.00909105290647987,-0.167672178445466
1.312,-0.0103194149325717,-0.175320769970117
1.316,-0.0121139174216519,-0.183100001322099
1.32,-0.0144838270015044,-0.190964665596928
1.324,-0.0174345473749468,-0.198869770320347
1.328,-0.0209678257283799,-0.206770900674768
1.332,-0.0250819958461597,-0.214624529078726
1.336,-0.0297722463879145,-0.222388267485386
1.34,-0.0350309024948354,-0.230021061076672
1.344,-0.0408477090559418,-0.237483324346082
1.348,-0.0472101045778596,-0.244737022780029
1.352,-0.0541034756054836,-0.251745705410171
1.356,-0.0615113830491898,-0.258474495315628
1.36,-0.069415753452561,-0.264890046655895
1.364,-0.0777970302387155,-0.270960477947722
1.368,-0.0866342820775017,-0.276655292030958
1.372,-0.0959052677958011,-0.281945293446492
1.376,-0.105600822679975,-0.286787815824697
1.38,-0.115718324716228,-0.291118533973261
1.384,-0.1261829287117,-0.294951483012046
1.388,-0.136964638282588,-0.298263082610822
1.392,-0.148031788361584,-0.30103139494199
1.396,-0.159351045046078,-0.303236306335744
1.4,-0.170887438825524,-0.304859734736899
1.404,-0.182604438106351,-0.305885855659767
1.408,-0.194464068320968,-0.306301337874266
1.412,-0.206427080064013,-0.30609557901898
1.416,-0.218453167643306,-0.305260930631742
1.42,-0.230501237278475,-0.30379290180532
1.424,-0.242529721966937,-0.30169033081841
1.428,-0.25449693790421,-0.298955514686579
1.432,-0.266361475309475,-0.295594287528018
1.436,-0.278082614696693,-0.291616040065128
1.44,-0.289620758102727,-0.287033674247903
1.444,-0.300937863549783,-0.281863489019359
1.448,-0.311997870250655,-0.276124995450884
1.452,-0.32276710162919,-0.269840661840304
1.456,-0.333214633322638,-0.263035591797463
1.46,-0.343312613827014,-0.255737140741946
1.464,-0.35303652642424,-0.247974478541394
1.468,-0.362365382386723,-0.239778108146944
1.472,-0.371281837267299,-0.231179351889942
1.476,-0.379772224156253,-0.222209818675985
1.48,-0.387826500170715,-0.212900866382351
1.484,-0.395438105014874,-0.203283074499988
1.488,-0.402603733131873,-0.193385742223755
1.492,-0.409323023678538,-0.18323642697965
1.496,-0.415598175202966,-0.172860537577252
1.5,-0.421433494413171,-0.162280994964322
1.504,-0.426886507579718,-0.151616555266147
1.508,-0.431940254089754,-0.14077203410161
1.512,-0.436599366438062,-0.129755746866551
1.516,-0.440867218709651,-0.118573561229511
1.52,-0.44474545205635,-0.107229238781991
1.524,-0.448233565848827,-0.0957248566049311
1.528,-0.451328587551731,-0.0840612966958379
1.532,-0.454024832109406,-0.0722387891039003
1.536,-0.456313759099727,-0.0602574929237142
1.54,-0.458183933061189,-0.0481180980785883
1.544,-0.459621089443128,-0.0358224301305178
1.548,-0.460608305512934,-0.0233740401577579
1.552,-0.461126272551946,-0.0107787620863696
1.556,-0.461153662680326,0.00195477923457617
1.56,-0.460667580914277,0.0148147245947338
1.564,-0.459644090610619,0.0277856151292574
1.568,-0.458058798303203,0.0408481165204084
1.572,-0.45588748226296,0.0539788414336187
1.576,-0.453106747884681,0.0671502762034099
1.58,-0.449694692255718,0.08033081476703
1.584,-0.445631560081095,0.0934848998655796
1.588,-0.440900373434996,0.106573268501233
1.592,-0.435487518648823,0.119553295765696
1.596,-0.429383274935407,0.132379428432496
1.6,-0.422582271123805,0.145003697327777
1.604,-0.415083858963045,0.157376295383378
1.608,-0.406892393910586,0.169446206658255
1.612,-0.398017416991717,0.181161870375363
1.616,-0.388473734096769,0.192471863313298
1.62,-0.378281392008481,0.203325583671554
1.624,-0.367465553257975,0.213673919794685
1.628,-0.355914850457048,0.223422711957317
1.632,-0.34377778583038,0.232515910855873
1.636,-0.331151823410594,0.24092738759618
1.64,-0.31808777728748,0.248627146540358
1.644,-0.304638138747718,0.255590609080458
1.648,-0.29085633888621,0.261798604773819
1.652,-0.276796045328158,0.267237251711298
1.656,-0.262510510030315,0.271897736223621
1.66,-0.248051982803813,0.275776004567176
1.664,-0.233471202471769,0.278872381349561
1.668,-0.218816974610206,0.281191130952808
1.672,-0.204135841607272,0.282739979187361
1.676,-0.189471847595136,0.283529612767019
1.68,-0.174866397570855,0.283573173958323
1.684,-0.160358207010521,0.282885767000459
1.688,-0.145983335455522,0.281483991558448
1.692,-0.131775295080325,0.279385516728245
1.696,-0.117765223176876,0.276608706947568
1.7,-0.103982105884663,0.273172308725973
1.704,-0.0904530393535736,0.269095204433343
1.708,-0.077203513968747,0.2643962366118
1.712,-0.0642577071764766,0.259094103482393
1.716,-0.0516387709255008,0.25320732363006
1.72,-0.0393691006559893,0.246754265283768
1.724,-0.0274705741592315,0.239753233368332
1.728,-0.0159647503703756,0.232222605555366
1.732,-0.00487302022289187,0.22418100699118
1.736,0.00578329604063328,0.215647512277755
1.74,0.0159829082858659,0.206641862636622
1.744,0.0257045733871217,0.197184686030381
1.748,0.0349271679283041,0.187297708306341
1.752,0.0437047351460273,0.177101746029415
1.756,0.0520479893228422,0.166589515078358
1.76,0.0598654677847119,0.155674004915397
1.764,0.0671293084744619,0.144378553488661
1.768,0.0738125252159475,0.132729567337648
1.772,0.0798894528460891,0.120756438653876
1.776,0.0853361636429411,0.108491393244123
1.78,0.0901308446321609,0.0959692780384166
1.784,0.0942541275013554,0.0832272982299849
1.788,0.097689365113494,0.0703047151393866
1.792,0.100422851065072,0.057242516360065
1.796,0.102443981039754,0.0440830698160539
1.8,0.103745357022995,0.030869772896242
1.804,0.104322837522895,0.0176467069783763
1.808,0.10417553872015,0.00445830647299049
1.812,0.103305793028632,-0.00865095004952567
1.816,0.101719072619646,-0.02163682080419
1.82,0.0994238862258003,-0.0344555498743464
1.824,0.0964316578308844,-0.047064082451244
1.828,0.0927565957637809,-0.0594202462104208
1.832,0.0884155602016665,-0.0714829006072236
1.836,0.0834279362461003,-0.0832120575904877
1.84,0.0778155185478517,-0.0945689786014364
1.844,0.0716024120316864,-0.105516253884751
1.848,0.0648149516561501,-0.116017870913757
1.852,0.0574816424034744,-0.126039279132688
1.856,0.049633118927022,-0.135547458271839
1.86,0.0413021225506797,-0.144510997139808
1.864,0.0325234916970293,-0.15290018908939
1.868,0.0233341603779032,-0.160687149318536
1.872,0.0137731582175758,-0.1678459578652
1.876,0.00383745390985372,-0.174316100853341
1.88,-0.00649535686780298,-0.17997553940777
1.884,-0.0170279661947613,-0.184904011596303
1.888,-0.0277059026562954,-0.189092837551894
1.892,-0.0384739329351827,-0.192537697181204
1.896,-0.0492764397949105,-0.195238773737139
1.9,-0.0600578330641051,-0.1972008612177
1.904,-0.0707629894649366,-0.198433428203257
1.908,-0.0813377155965233,-0.198950631419575
1.912,-0.0917292269496916,-0.198771273220343
1.916,-0.101886634582429,-0.197918698443851
1.92,-0.111761430125727,-0.196420627553779
1.924,-0.12130795904129,-0.194308924607596
1.928,-0.130483871670534,-0.191619300426013
1.932,-0.139250541553329,-0.188390953158266
1.936,-0.147573440768014,-0.184666150331188
1.94,-0.155422462679288,-0.180489758282906
1.944,-0.162772183433337,-0.175908726550699
1.948,-0.169602054791478,-0.170971536334079
1.952,-0.175896522420216,-0.165727623404222
1.956,-0.181645065500156,-0.160226786853856
1.96,-0.186842155424029,-0.154518595772661
1.964,-0.191487133382222,-0.148651806264827
1.968,-0.195584008670608,-0.142673801244832
1.972,-0.199141181649067,-0.136630065068874
1.976,-0.20217109719947,-0.130563704340602
1.98,-0.204689836372077,-0.124515025206071
1.984,-0.20671665554735,-0.118521176073401
1.988,-0.20827348377301,-0.112615863116031
1.992,-0.209384390068587,-0.106829144087862
1.996,-0.210075033208329,-0.101187303970973
2,-0.210372106934653,-0.095712813953906
2.004,-0.210461788148017,-0.0906134662710832
2.008,-0.210259108932994,-0.0856707895207437
2.012,-0.209781516240318,-0.0808878747432358
2.016,-0.209044135934064,-0.0762663058937676
2.02,-0.208059671828834,-0.0718066803028327
2.024,-0.206838393309706,-0.0675091295817186
2.028,-0.205388209560715,-0.063373826935529
2.032,-0.203714826221949,-0.0594014674601845
2.036,-0.201821978299103,-0.0555937089948844
2.04,-0.199711731294104,-0.0519535623561196
2.044,-0.197384840961619,-0.0484857213481668
2.048,-0.194841160850574,-0.0451968246615483
2.052,-0.192080085781963,-0.042095643690981
2.056,-0.189101018805003,-0.0391931923306813
2.06,-0.185903848905777,-0.0365027568108703
2.064,-0.182489426733336,-0.0340398457230596
2.068,-0.178860026033281,-0.031822062312048
2.072,-0.175019779100937,-0.0298689029648689
2.076,-0.170975075535325,-0.0282014875372951
2.08,-0.166734914716781,-0.0268422285825532
2.084,-0.162311203831043,-0.02581444784104
2.088,-0.157718994729215,-0.0251419493122134
2.092,-0.152976654569279,-0.0248485589344677
2.096,-0.148105966807179,-0.0249576413646782
2.1,-0.143132160790319,-0.0254916044816862
2.104,-0.138083869837883,-0.0264714021627956
2.108,-0.132993019202333,-0.0279160455097729
2.112,-0.127894646774858,-0.0298421321532131
2.116,-0.122826660627776,-0.0322634024917855
2.12,-0.117829538613665,-0.0351903308041331
2.124,-0.11294597613293,-0.0386297581171779
2.128,-0.108069246851687,-0.0427610154562623
2.132,-0.103401200143782,-0.0475050322835863
2.136,-0.0990535665199843,-0.0527917837811094
2.14,-0.095078940871208,-0.0585978965696316
2.144,-0.091527754770011,-0.0648946756149767
2.148,-0.0884477138321306,-0.0716483693220459
2.152,-0.0858832734207957,-0.0788204927906885
2.156,-0.0838751579205777,-0.0863682034569578
2.16,-0.0824599279689865,-0.0942447230969069
2.164,-0.0816695992483195,-0.102399800002098
2.168,-0.0815313156595223,-0.110780205053392
2.172,-0.0820670790446296,-0.119330255474586
2.176,-0.0832935369694867,-0.127992360064402
2.18,-0.0852218295215972,-0.136707579861919
2.184,-0.0878574955789164,-0.145416198309964
2.188,-0.0912004385411777,-0.154058295121756
2.192,-0.095244951107633,-0.162574318222976
2.196,-0.0999797983214475,-0.170905648243852
2.2,-0.105388357720628,-0.178995150179609
2.204,-0.111448815098469,-0.186787706924586
2.208,-0.118134414013296,-0.194230729485805
2.212,-0.125413756808471,-0.201274638758578
2.216,-0.133251154501774,-0.207873313844455
2.22,-0.14160702246561,-0.213984501973584
2.224,-0.150438318345222,-0.219570185257948
2.228,-0.159699018141014,-0.224596899631227
2.232,-0.169340625844127,-0.229036001599616
2.236,-0.179312711436164,-0.232863878717257
2.24,-0.189563471478332,-0.236062100094896
2.244,-0.200040305927971,-0.238617503741538
2.248,-0.210690404256237,-0.240522218150208
2.252,-0.221342612892493,-0.241729813482388
2.256,-0.231931172219178,-0.242288595877702
2.26,-0.24252961222612,-0.242267670432129
2.264,-0.253101892352732,-0.241680660671942
2.268,-0.263614778810977,-0.240543645157015
2.272,-0.274038027943384,-0.238874738452118
2.276,-0.284344512794902,-0.236693655730546
2.28,-0.294510290909141,-0.234021268557772
2.284,-0.304514612322315,-0.230879159740442
2.288,-0.314339867898377,-0.227289185308893
2.292,-0.323971479198799,-0.223273051747391
2.296,-0.333397732321546,-0.218851916448595
2.3,-0.342609559218847,-0.214046019037404
2.304,-0.351600271159671,-0.208874350741218
2.308,-0.3603652500131,-0.203354368320727
2.312,-0.368901604002668,-0.197501758228984
2.316,-0.377207795385482,-0.191330255730901
2.32,-0.385283248202512,-0.184851522591099
2.324,-0.393127944760655,-0.178075085726718
2.328,-0.400742019838001,-0.171008337975426
2.332,-0.408125361712944,-0.163656600730222
2.336,-0.415277229089487,-0.156023246901241
2.34,-0.422195892660533,-0.148109881274959
2.344,-0.428878309590101,-0.139916574083923
2.348,-0.435319838505045,-0.131442142367482
2.352,-0.441514001719734,-0.122684472613359
2.356,-0.447452300372306,-0.113640877219412
2.36,-0.453124086995238,-0.104308476503439
2.364,-0.458516498738978,-0.0946845974118862
2.368,-0.463614453103778,-0.0847671796534484
2.372,-0.468400706621168,-0.0745551798312077
2.376,-0.472865670631077,-0.064026381184312
2.38,-0.476992607178766,-0.0531326406506481
2.384,-0.480719769756637,-0.0419464311914435
2.388,-0.484022512568671,-0.0304792702287162
2.392,-0.486876008842941,-0.0187453919694138
2.396,-0.489255611901313,-0.00676182520965517
2.4,-0.491137224765754,0.00545158095368847
2.404,-0.492497670586623,0.017872183871126
2.408,-0.493315056217038,0.0304746257312183
2.412,-0.493569121585504,0.0432309616780763
2.416,-0.493241567923674,0.0561108346174526
2.42,-0.492316358553345,0.0690816927768148
2.424,-0.490779986637236,0.0821090451696996
2.428,-0.488621705174034,0.095156749424996
2.432,-0.485833715455217,0.108187325857589
2.436,-0.482411311222353,0.121162291251966
2.44,-0.478328002334936,0.134048696322519
2.444,-0.473594258832121,0.14679635153097
2.448,-0.468231409334495,0.159360169199743
2.452,-0.462249505303222,0.171701345377471
2.456,-0.45566165432489,0.183782096860112
2.46,-0.448483855559282,0.195565956692387
2.464,-0.440734803330512,0.207018040167264
2.468,-0.432435664067565,0.218105277867963
2.472,-0.423609832119927,0.228796613157709
2.476,-0.414282670187697,0.239063162468338
2.48,-0.40448124014084,0.24887833761479
2.484,-0.394234029929422,0.258217930272383
2.488,-0.383570682034059,0.267060159584435
2.492,-0.372521728588117,0.275385684643626
2.496,-0.36111833782826,0.28317758430364
2.5,-0.349392075999584,0.290421307376459
2.504,-0.337400806327676,0.296996851902951
2.508,-0.325176243955886,0.303010714888883
2.512,-0.312747873233671,0.308459467784773
2.516,-0.300144163703467,0.313341232258211
2.52,-0.287392518079136,0.317655453084891
2.524,-0.274519256295429,0.321402677531238
2.528,-0.261549633219362,0.324584346249302
2.532,-0.248507886969986,0.327202600207248
2.536,-0.235417314260659,0.329260107541057
2.54,-0.222300368752222,0.330759913586711
2.544,-0.209178778071435,0.33170531663746
2.548,-0.19607367493536,0.332099771262297
2.552,-0.183005737744816,0.331946820320579
2.556,-0.169995335987615,0.331250056076776
2.56,-0.157062675904712,0.330013110164259
2.564,-0.144227942080521,0.32823967151824
2.568,-0.131511430873944,0.325933530777115
2.572,-0.118933671963328,0.323098649185921
2.576,-0.106515534693721,0.319739249532361
2.58,-0.094278316348641,0.315859926294001
2.584,-0.0822438099751978,0.311465771871883
2.588,-0.0704343498917357,0.306562515558347
2.592,-0.0588728335175028,0.301156671739019
2.596,-0.0475827187193488,0.29525569379126
2.6,-0.0365879963218343,0.28886813010866
2.604,-0.0259131379557151,0.282003778805134
2.608,-0.0155830198552302,0.274673837760568
2.612,-0.00562282361081842,0.266891046874488
2.616,0.00394208472258055,0.258669819655023
2.62,0.0130862954701311,0.250026361538131
2.624,0.0217845141774299,0.24097877264019
2.628,0.0301794393789266,0.231516471470235
2.632,0.0381233436853797,0.221634425904858
2.636,0.0455260753970719,0.211362857897549
2.64,0.0523555667370569,0.200732275974687
2.644,0.0585815355527366,0.189776682103127
2.648,0.0641758923184092,0.17853345227032
2.652,0.0691131363026276,0.16704317049178
2.656,0.0733707358437986,0.15534941759107
2.66,0.0769294879031733,0.143498516636726
2.664,0.0797738523039694,0.131539237335922
2.668,0.0818922563255288,0.119522462154063
2.672,0.0832773656281958,0.107500817300233
2.676,0.0839263178425243,0.0955282721018915
2.68,0.0838409154644309,0.0836597106290333
2.684,0.0830277751279335,0.0719504797011976
2.688,0.0814984306651297,0.0604559177197064
2.692,0.0792693878277236,0.0492308689758897
2.696,0.0763621289269837,0.0383291883246395
2.7,0.072803066107589,0.0278032412743807
2.704,0.0686234424451862,0.0177034047168477
2.708,0.0638591805086252,0.0080775736504934
2.712,0.0585506785435697,-0.00102932066786559
2.716,0.0527425549584362,-0.00957577562679847
2.72,0.0464833423269489,-0.0175241596841122
2.724,0.0398251326912377,-0.0248411268124865
2.728,0.0328231765365571,-0.0314979975083372
2.732,0.0255354384196936,-0.0374711010718675
2.736,0.0180221128412888,-0.0427420740231477
2.74,0.0103451045809788,-0.0472981098372667
2.744,0.00256747833806451,-0.0511321554707305
2.748,-0.00524711687209357,-0.0542430506491354
2.752,-0.0129928075153369,-0.0565198882081378
2.756,-0.0205631362434052,-0.0579914490325238
2.76,-0.0279281137518411,-0.0588050599457476
2.764,-0.0350341598695604,-0.0589931954873942
2.768,-0.0418317512486306,-0.0585928851012701
2.772,-0.048275838562744,-0.0576452119150078
2.776,-0.0543262008017087,-0.0561947697282687
2.78,-0.0599477320300158,-0.0542890862202266
2.784,-0.0651106569649081,-0.0519780209563367
2.788,-0.0697906728847075,-0.0493131472423585
2.792,-0.0739690165344786,-0.0463471271699085
2.796,-0.0776324559221576,-0.0431330893368063
2.8,-0.0807732081791419,-0.0397240187187147
2.804,-0.0833887858616248,-0.0361721679423434
2.808,-0.0854817753403954,-0.0325284988686378
2.812,-0.0870595520553793,-0.0288421628457629
