"Freq [GHz]","re(S(Antenna1_1_1,Antenna1_1_1)) []","im(S(Antenna1_1_1,Antenna1_1_1)) []"
1,0.371421770429475,0.0294150590265673
1.004,0.365705695519071,0.0100173887503658
1.008,0.359107054254122,-0.00896878189407106
1.012,0.351642442888621,-0.0274929972602424
1.016,0.343331810665731,-0.0455042477251086
1.02,0.334198739140324,-0.0629511999513129
1.024,0.324270707713224,-0.0797824823519622
1.028,0.313579336101109,-0.0959470253788677
1.032,0.302160594368557,-0.111394454816902
1.036,0.290054971305584,-0.126075534760965
1.04,0.27730759228538,-0.139942655455044
1.044,0.263968278345832,-0.15295035972951
1.048,0.250091539071488,-0.165055900419011
1.052,0.235736492877837,-0.176219819877198
1.056,0.220966709562609,-0.186406541605753
1.06,0.205849971402377,-0.195584963084372
1.064,0.19039738987218,-0.203683148384984
1.068,0.174666259238634,-0.210620366932938
1.072,0.158852640305471,-0.216450475297672
1.076,0.143044649673826,-0.221173580703298
1.08,0.127330816533311,-0.224798141766047
1.084,0.111799157814122,-0.227341088017518
1.088,0.0965362313060605,-0.228827825035953
1.092,0.0816261820111967,-0.229292121337
1.096,0.0671497974762737,-0.228775875977618
1.1,0.0531835881134324,-0.227328767517488
1.104,0.0397989083512843,-0.225007787475771
1.108,0.0270611340945544,-0.221876663539891
1.112,0.0150289112142402,-0.218005179944247
1.116,0.00375348867693303,-0.213468404461568
1.12,-0.00672185120712065,-0.208345833365818
1.124,-0.0163622548039854,-0.202720467369708
1.128,-0.0249050631711964,-0.196703829609213
1.132,-0.0325029383815856,-0.190438443938209
1.136,-0.0392432476762988,-0.184010200751241
1.14,-0.0451424172361388,-0.177499798064241
1.144,-0.0502245335191434,-0.170983733005484
1.148,-0.0545206404907386,-0.164533524177334
1.152,-0.0580679531641941,-0.158215041493414
1.156,-0.0609090034805474,-0.152087952845256
1.16,-0.0630907355457177,-0.146205294415748
1.164,-0.0646635679399445,-0.140613169193988
1.168,-0.0656804411604994,-0.135350575690304
1.172,-0.0661958682131177,-0.130449366024977
1.176,-0.0662650059891261,-0.125934330502176
1.18,-0.0659427643333232,-0.121823403014144
1.184,-0.0652829686023356,-0.118127979493071
1.188,-0.0643375902031508,-0.114853339573291
1.192,-0.0631560578234316,-0.111999159686421
1.196,-0.0617846603935377,-0.109560104299415
1.2,-0.0602660504262662,-0.107526480665951
1.204,-0.0586388544842857,-0.105884941536288
1.208,-0.0569373948626638,-0.104619219595882
1.212,-0.0551915245072619,-0.103710877146365
1.216,-0.053426574451005,-0.10314005460284
1.22,-0.0516634110987487,-0.102886201767837
1.224,-0.0499185981576877,-0.102928776601393
1.228,-0.048204656019556,-0.103247897252938
1.232,-0.0465304096212451,-0.103824934347746
1.236,-0.0449014139792867,-0.104643032367273
1.24,-0.0433204452812837,-0.105687550256177
1.244,-0.0417880442930481,-0.106946413972545
1.248,-0.0403030980071767,-0.108410375116924
1.252,-0.0388314788783552,-0.109830506061726
1.256,-0.0372792514487285,-0.111223360266796
1.26,-0.0356514221359401,-0.112856497158664
1.264,-0.0339564808024566,-0.114753441586146
1.268,-0.0322074556962553,-0.116938374038791
1.272,-0.0304220567002011,-0.11943537972083
1.276,-0.0286227044188196,-0.122267686333033
1.28,-0.0268364460560858,-0.125456907032723
1.284,-0.0250947607879611,-0.129022304473239
1.288,-0.0234332601854162,-0.132980091033525
1.292,-0.021891290537224,-0.137342779260914
1.296,-0.0205114462127965,-0.14211859518456
1.3,-0.0193390044148606,-0.147310965617134
1.304,-0.0184212929821641,-0.152918088856641
1.308,-0.0178070041061799,-0.158932596318466
1.312,-0.0175454671805717,-0.165341310745117
1.316,-0.0176858947216519,-0.172125104639099
1.32,-0.0182766152355044,-0.179258860641928
1.324,-0.0193643068690868,-0.186711533646347
1.328,-0.0209932452133799,-0.194446312539768
1.332,-0.0232045780471597,-0.202420877966726
1.336,-0.0260356389209145,-0.210587750564586
1.34,-0.0295193104858354,-0.218894723160172
1.344,-0.0336834472629418,-0.227285368806882
1.348,-0.0385503662868596,-0.235699615763519
1.352,-0.0441364126474836,-0.244074379631071
1.356,-0.0504516055011898,-0.252344242242028
1.36,-0.057499368765561,-0.260442166555195
1.364,-0.0652763490937155,-0.268300236578722
1.368,-0.0737723224185017,-0.275850411370858
1.372,-0.0829701890948011,-0.283025282336492
1.376,-0.0929479259639754,-0.289729544543697
1.38,-0.103856444917228,-0.295779699291261
1.384,-0.1153272192777,-0.301171665218046
1.388,-0.127301599100588,-0.305857578607822
1.392,-0.139716964102784,-0.30979597813299
1.396,-0.152507478382178,-0.312952118217744
1.4,-0.165604865051014,-0.315298192273898
1.404,-0.178939190269151,-0.316813465671767
1.408,-0.192439646498468,-0.317484319398266
1.412,-0.206035325160513,-0.317304206493981
1.416,-0.219655969370306,-0.316273524264742
1.42,-0.233232697973475,-0.31439940630532
1.424,-0.246698692782937,-0.31169543903441
1.428,-0.25998984158721,-0.308181308283579
1.432,-0.273045330240475,-0.303882381982018
1.436,-0.285808177908693,-0.298829235645128
1.44,-0.298225710405727,-0.293057127817103
1.444,-0.310249967189783,-0.286605432856869
1.448,-0.321838038737655,-0.279517038898584
1.452,-0.33295233143319,-0.271837718964904
1.456,-0.343560758296638,-0.263615483327463
1.46,-0.353636854411014,-0.254899921327946
1.464,-0.36315981705224,-0.245741540836394
1.468,-0.372114470878723,-0.236191113457944
1.472,-0.380491159825299,-0.226299033508942
1.476,-0.388285567717253,-0.216114698521985
1.48,-0.395498470681615,-0.205685918847351
1.484,-0.402135424887174,-0.195058363566988
1.488,-0.408206394179673,-0.184275049516755
1.492,-0.413725322583538,-0.17337587988665
1.496,-0.418709657464566,-0.162397238148252
1.5,-0.423179829716171,-0.151371642720322
1.504,-0.427142738574718,-0.140628249537147
1.508,-0.430713304104754,-0.12989084353561
1.512,-0.433916933070062,-0.119165572172551
1.516,-0.436777557910651,-0.108454204143511
1.52,-0.43931705347735,-0.0977544440869911
1.524,-0.441554700135827,-0.0870603177314311
1.528,-0.443506701318731,-0.0763626211799379
1.532,-0.445185762806406,-0.0656494278679003
1.536,-0.446600740497727,-0.0549066452937142
1.54,-0.447756362176189,-0.0441186132292883
1.544,-0.448653028171128,-0.0332687342905178
1.548,-0.449286694572934,-0.0223401272597579
1.552,-0.449648841530946,-0.0113162930743696
1.556,-0.449726528102326,-0.000181783085423832
1.56,-0.449502533729277,0.0110771409837338
1.564,-0.448955585420209,0.0224718659882574
1.568,-0.448060668080703,0.0340108157734084
1.572,-0.44678941454996,0.0456988791986187
1.576,-0.445110570403681,0.0575368877914099
1.58,-0.442990527455718,0.06952115210503
1.584,-0.440393918793994,0.0816430655085796
1.588,-0.437284267060996,0.0938887830412331
1.592,-0.433624676766823,0.106238982095696
1.596,-0.429378560560407,0.118668710472496
1.6,-0.424510388673805,0.131147326279777
1.604,-0.418986450194045,0.143638532732078
1.608,-0.412775614398586,0.156100509445655
1.612,-0.405850080235717,0.168486140546363
1.616,-0.398186101767769,0.180743338380298
1.62,-0.389764677845481,0.192815459922554
1.624,-0.380572194352975,0.204641811874685
1.628,-0.370298840750048,0.216403662198317
1.632,-0.35907766825538,0.227779321847873
1.636,-0.347023615258594,0.23859299000718
1.64,-0.33417120698748,0.248764372398358
1.644,-0.320563935560658,0.258216226554458
1.648,-0.30625388882721,0.266875422145819
1.652,-0.291301251575158,0.274673949528297
1.656,-0.275773686802315,0.281549861147621
1.66,-0.259745605985813,0.287448131429176
1.664,-0.243297339554769,0.292321422141561
1.668,-0.226514219974206,0.296130741608808
1.672,-0.209485591330172,0.298845987920361
1.676,-0.192303760338136,0.300446368024019
1.68,-0.175062904617855,0.300920686546123
1.684,-0.157857954661521,0.300267500196459
1.688,-0.140783466306522,0.298495135696448
1.692,-0.123932500618325,0.295621571422245
1.696,-0.107395527802876,0.291674184713568
1.7,-0.0912593716446629,0.286689369198973
1.704,-0.0756062097885736,0.280712028259343
1.708,-0.060512644871747,0.2737949527228
1.712,-0.0460488597384766,0.265998092500293
1.716,-0.0322778692255008,0.25738773354906
1.72,-0.0192548789849893,0.248035592905768
1.724,-0.00702676056046146,0.238017845698332
1.728,0.00436835022972444,0.227414099035366
1.732,0.0149013261331081,0.21630632841018
1.736,0.0245521892696333,0.204777792763755
1.74,0.0333101184358659,0.192911944580622
1.744,0.0411733236471217,0.180791351462381
1.748,0.0481487905183041,0.168496645356341
1.752,0.0540265308000273,0.156494956554415
1.756,0.0589798216265422,0.144936338230358
1.76,0.0633281921027119,0.133494593258397
1.764,0.0671197633304619,0.122193817038161
1.768,0.0704020994969475,0.111050466489408
1.772,0.0732211869530891,0.100073709625476
1.776,0.0756204812189411,0.0892659013671235
1.78,0.0776400366631609,0.0786231749394166
1.784,0.0793157320033554,0.0681361363959849
1.788,0.080678603261494,0.0577906486953866
1.792,0.0817542937190722,0.047568690287065
1.796,0.0825626286597539,0.0374492724420539
1.8,0.0831173205919951,0.027409398611242
1.804,0.0834258086488948,0.0174250488003763
1.808,0.0834892334878504,0.00747217162399049
1.812,0.0833025472789321,-0.00247233326652567
1.816,0.0828547559596455,-0.01242965940319
1.82,0.0821292890678003,-0.0224181808703464
1.824,0.0811044904778844,-0.032452598758244
1.828,0.0797542214597809,-0.0425431613014208
1.832,0.0780485658066665,-0.0526949717072236
1.836,0.0759546251981003,-0.0629073957204877
1.84,0.0734373914973517,-0.0731735799664364
1.844,0.0704606815236864,-0.0834800900137505
1.848,0.0669881187851501,-0.0938066756707573
1.852,0.0629841458564744,-0.104126168733388
1.856,0.058415050517022,-0.114404516798339
1.86,0.0532499884236797,-0.124600954154808
1.864,0.0474619850560293,-0.13466830944039
1.868,0.0410288996099032,-0.144553446759536
1.872,0.0339343342865758,-0.1541978356692
1.876,0.0259550982368537,-0.163599640686341
1.88,0.016630454034197,-0.17267975833977
1.884,0.00661681307623874,-0.181097679417303
1.888,-0.00403156637029542,-0.188779290602894
1.892,-0.0152514715661827,-0.195655909442204
1.896,-0.0269713751056105,-0.201665376163139
1.9,-0.0391122052126051,-0.2067530643547
1.904,-0.0515882363419366,-0.210872795240257
1.908,-0.0643080878595232,-0.213987641681575
1.912,-0.0771758170866916,-0.216070609213343
1.916,-0.0900920916844295,-0.217105183632851
1.92,-0.102955424978727,-0.217085735795779
1.924,-0.11566345694299,-0.216017776915596
1.928,-0.128114262658534,-0.213918059149013
1.932,-0.140207669659329,-0.210814518908266
1.936,-0.151846565212014,-0.206746062064388
1.94,-0.162938174595288,-0.201762193025206
1.944,-0.173395291599337,-0.195922491358699
1.948,-0.183137443192478,-0.189295942277079
1.952,-0.192091970692216,-0.181960129230222
1.956,-0.200195011333156,-0.174000299072856
1.96,-0.207392364739029,-0.165508312054661
1.964,-0.213640230987222,-0.156581490903827
1.968,-0.218905808138608,-0.147321384691832
1.972,-0.223167739366067,-0.137832464716874
1.976,-0.22641640163247,-0.128220770791602
1.98,-0.228654030393847,-0.118592527260071
1.984,-0.22989467688635,-0.109052748788401
1.988,-0.23016399713701,-0.0997038562050306
1.992,-0.229498874328587,-0.0906443231158617
1.996,-0.227946878488329,-0.0819673733129728
2,-0.225565570245653,-0.073759748953906
2.004,-0.222103640948017,-0.0668939477250832
2.008,-0.218157591938994,-0.0607168840417437
2.012,-0.213820337296318,-0.0552514124752358
2.016,-0.209184473823064,-0.0505085771457676
2.02,-0.204340805985834,-0.0464879156551327
2.024,-0.199376931409706,-0.0431779453597186
2.028,-0.194375909379715,-0.040556822459529
2.032,-0.189415033207949,-0.0385931616141845
2.036,-0.184564726036103,-0.0372470012618844
2.04,-0.179887577168104,-0.0364708975821196
2.044,-0.175437534165619,-0.0362111277531668
2.048,-0.171259263038574,-0.0364089816105483
2.052,-0.167387686447963,-0.037002119201981
2.056,-0.163847706738003,-0.0379259707346813
2.06,-0.160654117390777,-0.0391151546508703
2.064,-0.157811703900636,-0.0405048892430596
2.068,-0.155315531289281,-0.042032373330048
2.072,-0.153151412836937,-0.0436381118848689
2.076,-0.151296551221325,-0.0452671635982951
2.08,-0.149720340634781,-0.0468702882625531
2.084,-0.148385315416043,-0.04840497395204
2.088,-0.147248228322215,-0.0498363254672134
2.092,-0.146261239434379,-0.0511377981804677
2.096,-0.145373194472179,-0.0522917637826782
2.1,-0.144530969887319,-0.0532898972723862
2.104,-0.143680860777883,-0.0541333776425956
2.108,-0.142769986834333,-0.0548328975797729
2.112,-0.141747691049858,-0.0554084811332131
2.116,-0.140566905916776,-0.0558891111987855
2.12,-0.139185462384665,-0.0563121721581331
2.124,-0.13756731727793,-0.0567227161031779
2.128,-0.134849484758687,-0.0569104823522623
2.132,-0.131506074335782,-0.0573573966725863
2.136,-0.127843829313984,-0.0582574650521094
2.14,-0.123915430380208,-0.0596775745876316
2.144,-0.119783672901011,-0.0616777031899767
2.148,-0.115520488923831,-0.0643095596700459
2.152,-0.111205797010796,-0.0676153642366885
2.156,-0.106926199707578,-0.0716267904179577
2.16,-0.102773551160986,-0.0763640866969069
2.164,-0.0988434194403195,-0.0818353929160981
2.168,-0.0952334697095223,-0.088036263444392
2.172,-0.0920417958506296,-0.0949494053345864
2.176,-0.0893652287113867,-0.102544636217402
2.18,-0.0872976496575972,-0.110779063135919
2.184,-0.0859283378169164,-0.119597479498264
2.188,-0.0853403788531777,-0.128932974107556
2.192,-0.085609162012633,-0.138707742506976
2.196,-0.0868009906884475,-0.148834087542852
2.2,-0.088971829846628,-0.159215593196609
2.204,-0.0921662113724694,-0.169748452622586
2.208,-0.0964163158612955,-0.180322929018805
2.212,-0.101741246272471,-0.190824925877578
2.216,-0.108146506176774,-0.201137641122855
2.22,-0.11562369148861,-0.211143278639584
2.224,-0.124150401466722,-0.220724789535948
2.228,-0.133690371269214,-0.229767615101227
2.232,-0.144193824509127,-0.238161403395616
2.236,-0.155598041042164,-0.245801671699257
2.24,-0.167828131594332,-0.252591388091896
2.244,-0.180798007578971,-0.258442446505538
2.248,-0.194411531354237,-0.263277011286208
2.252,-0.208529594249493,-0.266556396373388
2.256,-0.222863717983178,-0.268252314568702
2.26,-0.23727928442412,-0.268840594944129
2.264,-0.251669631008732,-0.268335536273942
2.268,-0.265932206565977,-0.266762928904915
2.272,-0.279969862812384,-0.264159327158118
2.276,-0.293692034396902,-0.260571175705546
2.28,-0.307015791147141,-0.256053805888772
2.284,-0.319866748469315,-0.250670319698442
2.288,-0.332179824119377,-0.244490380555893
2.292,-0.343899832187799,-0.237588931469391
2.296,-0.354981907711546,-0.230044861580595
2.3,-0.365391757963847,-0.221939643014404
2.304,-0.375105739521671,-0.213355959880218
2.308,-0.3841107623821,-0.204376351202727
2.312,-0.392404025642968,-0.195081889076984
2.316,-0.399992591341582,-0.185550912517901
2.32,-0.406892805859512,-0.175857836357099
2.324,-0.413129580362655,-0.166072053141718
2.328,-0.418735543766001,-0.156256944431426
2.332,-0.423750083812944,-0.146469015787222
2.336,-0.428218293155487,-0.136757167829241
2.34,-0.432189838878533,-0.127162113589959
2.344,-0.435717774680202,-0.117715949488923
2.348,-0.438857315899045,-0.108441885525482
2.352,-0.441664597769734,-0.0993541369534587
2.356,-0.444195437467306,-0.090457977816212
2.36,-0.446504120212238,-0.0817499535314395
2.364,-0.448642229269978,-0.0732182479318862
2.368,-0.450657538564778,-0.0648431970204484
2.372,-0.452592985920168,-0.0565979401452077
2.376,-0.454572150746077,-0.048456957481312
2.38,-0.456799532912766,-0.0403432564436481
2.384,-0.459028184574637,-0.0321585692184435
2.388,-0.461258237965671,-0.0238588471493162
2.392,-0.463482184558941,-0.0154000856434138
2.396,-0.465684955315013,-0.00673937949065517
2.4,-0.467844135498354,0.00216404450268847
2.404,-0.469930309346623,0.011347834034126
2.408,-0.471907528315038,0.0208455725572183
2.412,-0.473733894346504,0.0306859101220763
2.416,-0.475362248387674,0.0408917769834526
2.42,-0.476740952431345,0.0514796923258148
2.424,-0.477814752396236,0.0624591783656996
2.428,-0.478525707710034,0.073832288746996
2.432,-0.478814172879917,0.0855932580685892
2.436,-0.478619815427353,0.0977282778179655
2.44,-0.477882683168936,0.110311156549149
2.444,-0.476513686385121,0.12327155173807
2.448,-0.474450394182495,0.136507685803743
2.452,-0.471641919053222,0.149967403568471
2.456,-0.46804277098789,0.163591672775112
2.46,-0.463613699947282,0.177315257373387
2.464,-0.458322448396512,0.191067488460264
2.468,-0.452144403178565,0.204773120785963
2.472,-0.445063137492927,0.218353261468709
2.476,-0.437070835401697,0.231726356840338
2.48,-0.42816859342224,0.24480922236179
2.484,-0.418366595209222,0.257518100312383
2.488,-0.407684157729659,0.269769729561435
2.492,-0.396149648713117,0.281482411824626
2.496,-0.38380027757526,0.29257705894964
2.5,-0.370681763427584,0.302978206337459
2.504,-0.356466770849676,0.312422557784951
2.508,-0.341651661053886,0.320946304850883
2.512,-0.326320292439671,0.328501298577773
2.516,-0.310560707806466,0.335048814708211
2.52,-0.294463978260136,0.340559899451891
2.524,-0.278123024512429,0.345015570279338
2.528,-0.261631433613362,0.348406871656802
2.532,-0.245082288826986,0.350734787684248
2.536,-0.228567029855659,0.352010015575057
2.54,-0.212174359756222,0.352252606162711
2.544,-0.195989213886435,0.35149147937746
2.548,-0.18009180502736,0.349763824396297
2.552,-0.164556757185816,0.347114395674579
2.556,-0.149452339377615,0.343594717353776
2.56,-0.134839808521712,0.339262209822259
2.564,-0.120772869082521,0.33417925288953
2.568,-0.107297255148144,0.328412200757115
2.572,-0.0944504385210279,0.32203036439892
2.576,-0.0822614647827207,0.315104977067361
2.58,-0.070750917066641,0.307708158656001
2.584,-0.0599310056181978,0.299911894184883
2.588,-0.0498057793787356,0.291787041423347
2.592,-0.0403714540335028,0.283402381697019
2.596,-0.0316168496393488,0.27482372718726
2.6,-0.0235239292328343,0.26611309697066
2.604,-0.016068428699715,0.257327972722134
2.608,-0.00922056707033019,0.248520643946568
2.612,-0.00294582539081842,0.239737650855988
2.616,0.00279421841658056,0.231019331850523
2.62,0.00804101187313107,0.222399480779131
2.624,0.0128381210694299,0.21390511768519
2.628,0.0174980884209266,0.206173922416235
2.632,0.0220602375163797,0.198719831327858
2.636,0.0264858327790719,0.191299423219549
2.64,0.0307926418600569,0.183881539923687
2.644,0.0349914098397366,0.176433023985127
2.648,0.0390857105874092,0.16891979344132
2.652,0.0430719418126276,0.16130791890218
2.656,0.0469394617908986,0.15356468521207
2.66,0.0506708639023733,0.145659620511726
2.664,0.0542423828959694,0.137565476294922
2.668,0.0576244253315288,0.129259142977063
2.672,0.0607822147061958,0.120722486608233
2.676,0.0636765404145243,0.111943093730891
2.68,0.0662645984004309,0.102914912490033
2.684,0.0685009099239335,0.0936387801601976
2.688,0.0703383042171297,0.0841228282507064
2.692,0.0717289496134236,0.0743827585338897
2.696,0.0726254174149837,0.0644419848925395
2.7,0.072981762072589,0.0543316377358807
2.704,0.0727546010741862,0.0440904295998477
2.708,0.0719041778986252,0.0337643824404934
2.712,0.0703953913455697,0.0234064189621344
2.716,0.0681987750724362,0.0130758221772015
2.72,0.0652914114759489,0.00283756933488781
2.724,0.0616577648812377,-0.00723845197848645
2.728,0.0572904196345572,-0.0170783360563372
2.732,0.0521907102736936,-0.0266051482388675
2.736,0.0463692314632888,-0.0357399984451477
2.74,0.0398462175943788,-0.0444031848242667
2.744,0.0326517827884645,-0.0525153921287305
2.748,0.0248260145259064,-0.0599989282911354
2.752,0.0160252641356631,-0.0665485451991378
2.756,0.00640261689659477,-0.0719521066025238
2.76,-0.00352075547284109,-0.0763478355927476
2.764,-0.0136377440535604,-0.0797056449543942
2.768,-0.0238377986696306,-0.0820075872632701
2.772,-0.034008355103744,-0.0832482336300078
2.776,-0.0440363018467087,-0.0834348837442687
2.78,-0.0538094668410158,-0.0825876029619266
2.784,-0.0632181039929081,-0.0807390847818367
2.788,-0.0721563591577075,-0.0779343389053585
2.792,-0.0805236952954786,-0.0742302079559085
2.796,-0.0882262568281576,-0.0696947177118063
2.8,-0.0951781537891419,-0.0644062683977147
2.804,-0.101302647214625,-0.0584526767513434
2.808,-0.106533218357395,-0.0519300805056378
2.812,-0.110814505586379,-0.0449417195447629
