"Freq [GHz]","re(S(Antenna1_1_1,Antenna1_1_1)) []","im(S(Antenna1_1_1,Antenna1_1_1)) []"
1,0.373954408344975,0.0201458131505673
1.004,0.366732107086071,0.000282390079365825
1.008,0.358539332891122,-0.0189314636390711
1.012,0.349430011627621,-0.0374285372552424
1.016,0.339464603888732,-0.0551469763701086
1.02,0.328709426785324,-0.0720311105923129
1.024,0.317235851305624,-0.0880321764399622
1.028,0.305119393577809,-0.103108914898868
1.032,0.292438721927457,-0.117228026487902
1.036,0.279274604532584,-0.130364470749965
1.04,0.26570882459038,-0.142501601677844
1.044,0.251823091172832,-0.15363113545551
1.048,0.237697974248488,-0.163752952038011
1.052,0.223411891767837,-0.172874737133198
1.056,0.209040175121609,-0.181011476124753
1.06,0.194654236855377,-0.188184815972271
1.064,0.18035068267518,-0.194418798604484
1.068,0.166211262222634,-0.199760906085938
1.072,0.152237690142471,-0.204261185111672
1.076,0.138474366093826,-0.207958071170298
1.08,0.124960195572711,-0.210891114635048
1.084,0.111728881858122,-0.213100188711518
1.088,0.0988093367380605,-0.214624791953952
1.092,0.0862261884626968,-0.215503463544
1.096,0.0740003625738737,-0.215773325016618
1.1,0.0621497094104324,-0.215469757217488
1.104,0.0506896511512843,-0.214626216119771
1.108,0.0396338213635544,-0.213274185905891
1.112,0.0289946710792402,-0.211443262692247
1.116,0.018784017428933,-0.209161357510568
1.12,0.00901351370587935,-0.206455002949618
1.124,-0.00030497668598537,-0.203349744228708
1.128,-0.00922123016319642,-0.199890066894013
1.132,-0.0176826258575856,-0.196065099824709
1.136,-0.0256495552012988,-0.191891464092341
1.14,-0.0331023150791388,-0.187397731203741
1.144,-0.0400216208421433,-0.182614953504484
1.148,-0.0463891095637386,-0.177576855160334
1.152,-0.0521878820411941,-0.172319915175414
1.156,-0.0574030611725474,-0.166883337860256
1.16,-0.0620223441745177,-0.161308910614748
1.164,-0.0660365268257445,-0.155640753248988
1.168,-0.0694399794464994,-0.149924967168304
1.172,-0.0722310566073177,-0.144209196351977
1.176,-0.0744124254540261,-0.138542115182176
1.18,-0.0759913009553232,-0.132972860571144
1.184,-0.0769795801393356,-0.127550427503071
1.188,-0.0773938713551508,-0.122323048018291
1.192,-0.0772554185934316,-0.117337573691421
1.196,-0.0765899247805377,-0.112638880994415
1.2,-0.0754272815892662,-0.108269317446851
1.204,-0.0738012164522857,-0.104268204361788
1.208,-0.0717488702096638,-0.100671409323282
1.212,-0.0693103207932619,-0.0975109984277648
1.216,-0.066528069745005,-0.0948149749234398
1.22,-0.0634465090157487,-0.092607107332637
1.224,-0.0601113853276877,-0.0909068465936931
1.228,-0.056569278651556,-0.0897293283609384
1.232,-0.0528671098192451,-0.0890854534837464
1.236,-0.0490516903032867,-0.0889820369862734
1.24,-0.0451693246327837,-0.0894220136661774
1.244,-0.0412654730861481,-0.0904046868375448
1.248,-0.0373844791594767,-0.0919260057939242
1.252,-0.0335530677647552,-0.0939988862727258
1.256,-0.0298179264467285,-0.0966174400067965
1.26,-0.0262374214201701,-0.0997505244796637
1.264,-0.0228506930997566,-0.103383440246146
1.268,-0.0196956450508553,-0.107499342858791
1.272,-0.0168089515563011,-0.11207928606983
1.276,-0.0142260470834196,-0.117102231572033
1.28,-0.0119810890658858,-0.122545032812723
1.284,-0.0101068875209611,-0.128382402051839
1.288,-0.00863479741441625,-0.134586871022525
1.292,-0.00759457223722403,-0.141128756172014
1.296,-0.00701417987479649,-0.14797613946016
1.3,-0.00691958435986056,-0.155094875202434
1.304,-0.00733449943416405,-0.162448632358041
1.308,-0.00828012190817987,-0.169998980146766
1.312,-0.00977485441257175,-0.177705522950817
1.316,-0.0118340283756519,-0.185526088229799
1.32,-0.0144696387185044,-0.193416968754228
1.324,-0.0176901019409468,-0.201333217953847
1.328,-0.0215000488613799,-0.209228994691768
1.332,-0.0259001624291597,-0.217057951433726
1.336,-0.0308870696319145,-0.224773657672587
1.34,-0.0364532947695354,-0.232330048695172
1.344,-0.0425872792824418,-0.239681888404882
1.348,-0.0492734709740596,-0.246785234012519
1.352,-0.0564924830331336,-0.253597889970071
1.356,-0.0642213207544898,-0.260079838656028
1.36,-0.072433671457261,-0.266193635866195
1.364,-0.0811002508626155,-0.271904760277722
1.368,-0.0901891972315017,-0.277181907508958
1.372,-0.0996665029408011,-0.281997221250492
1.376,-0.109480934891975,-0.286314527680697
1.38,-0.119556751781228,-0.290100129071261
1.384,-0.1299009585927,-0.293381236999846
1.388,-0.140479566072588,-0.296146560083022
1.392,-0.151259047170784,-0.29838759184979
1.396,-0.162206592533178,-0.300098387878044
1.4,-0.173290318522014,-0.301275319485598
1.404,-0.184479426314151,-0.301916813054967
1.408,-0.195744312283468,-0.302023083889266
1.412,-0.207056631507013,-0.301595873007981
1.416,-0.218389317621306,-0.300638194497742
1.42,-0.229716563454475,-0.29915410006832
1.424,-0.241013767795937,-0.29714846622841
1.428,-0.25225745432341,-0.294626808256579
1.432,-0.263425169068975,-0.291595123770018
1.436,-0.274495362898703,-0.288059767345128
1.44,-0.285447265294627,-0.284027356414103
1.444,-0.296260755310783,-0.279504707459869
1.448,-0.306916234956655,-0.274498800587584
1.452,-0.31739450948719,-0.269016769704304
1.456,-0.327676678197638,-0.263065914993463
1.46,-0.337744038395014,-0.256653733982946
1.464,-0.34757800428024,-0.249787967374394
1.468,-0.357160041576723,-0.242476655876944
1.472,-0.366471617973299,-0.234728204521942
1.476,-0.375494168746253,-0.226551451374035
1.48,-0.384209076427615,-0.217955738044151
1.484,-0.392597663038174,-0.208950980029088
1.488,-0.400641193231673,-0.199547735510755
1.492,-0.408320886699538,-0.18975727185965
1.496,-0.415617938374966,-0.179591629627252
1.5,-0.422513545229171,-0.169063684271322
1.504,-0.429027284950718,-0.158150229268147
1.508,-0.435092526880754,-0.14689325867761
1.512,-0.440688869915062,-0.135310272189551
1.516,-0.445796343968151,-0.123420146989511
1.52,-0.45039551714505,-0.111243166936991
1.524,-0.454467610271227,-0.0988010443534311
1.528,-0.457994619066331,-0.0861169332939379
1.532,-0.460959444058406,-0.0732154328229003
1.536,-0.463346028023727,-0.0601225785447142
1.54,-0.465139500327189,-0.0468658203905883
1.544,-0.466326327042128,-0.0334739845615178
1.548,-0.466894465167934,-0.0199772175377579
1.552,-0.466833518701946,-0.00640691020676956
1.556,-0.466134893726326,0.00720439953657617
1.56,-0.464791949166277,0.0208231469223938
1.564,-0.462800139417209,0.0344148837748574
1.568,-0.460157144718703,0.0479444452246085
1.572,-0.45686298496196,0.0613761387536187
1.576,-0.452920112609681,0.0746739537914099
1.58,-0.448333480587718,0.08780178916103
1.584,-0.443110581371094,0.10072369481958
1.588,-0.437261454065996,0.113404123440233
1.592,-0.430798657052823,0.125808186718696
1.596,-0.423737204649207,0.137901910632496
1.6,-0.416094467370505,0.149652483502777
1.604,-0.407890036481145,0.161028490489078
1.608,-0.399145554785586,0.172000128187655
1.612,-0.389884516838717,0.182539393262363
1.616,-0.380132042945769,0.192620239588298
1.62,-0.369914632442481,0.202218699154554
1.624,-0.359259902665975,0.211312962971685
1.628,-0.348229222005048,0.219811803349317
1.632,-0.33685194276738,0.227757626852873
1.636,-0.325146702994594,0.23516537357248
1.64,-0.31313890603348,0.242026237947158
1.644,-0.300853046287658,0.248332532271458
1.648,-0.28831267601321,0.254077395832119
1.652,-0.275540430808158,0.259254505653297
1.656,-0.262558113259315,0.263857799826621
1.66,-0.249386832148813,0.267881224299176
1.664,-0.236047192601769,0.271318513504561
1.668,-0.222559530626206,0.274163014345808
1.672,-0.208944183707272,0.276407561793361
1.676,-0.195221787640436,0.278044412793019
1.68,-0.181413588524779,0.279065243321123
1.684,-0.167541758009421,0.279461211352459
1.688,-0.153629699407522,0.279223086272448
1.692,-0.139702332255325,0.278341442956245
1.696,-0.125786343290876,0.276806916478568
1.7,-0.111910392647663,0.274610511174973
1.704,-0.0981052652885736,0.271743955768343
1.708,-0.084403959308747,0.2682000945198
1.712,-0.0708417046424766,0.263973302864393
1.716,-0.0574559078935008,0.25905991493876
1.72,-0.0442860213389893,0.253458649753168
1.724,-0.0313733366054615,0.247171022510932
1.728,-0.0187607059482756,0.240201727864366
1.732,-0.00649219646289187,0.23255898257518
1.736,0.00538731529363328,0.224254816171755
1.74,0.0168325987938659,0.215305299759622
1.744,0.0277985640781217,0.205730704939381
1.748,0.0382407829953041,0.195555587007341
1.752,0.0481580400120273,0.184750333298415
1.756,0.0574841386469422,0.173335250792358
1.76,0.0661279475422119,0.161407278416397
1.764,0.0740520481101619,0.149014123015161
1.768,0.0812233642369475,0.136206872710408
1.772,0.0876134832750891,0.123039465315476
1.776,0.0931988972809411,0.109568131384123
1.78,0.0979611642781609,0.0958508250684166
1.784,0.101886991539355,0.0819466553269849
1.788,0.104968244958494,0.0679153290673866
1.792,0.107201890316072,0.053816616463065
1.796,0.108589873687754,0.0397098471109539
1.8,0.109138949294995,0.025653443906542
1.804,0.108860463776895,0.0117044996320763
1.808,0.10777010610285,-0.00208160067030951
1.812,0.105887632252932,-0.0156515103295257
1.816,0.103236573290646,-0.02895420520319
1.82,0.0998439346558003,-0.0419412234323464
1.824,0.0957398934328844,-0.054566864122244
1.828,0.0909574991027809,-0.0667883492954208
1.832,0.0855323818476665,-0.0785659540862236
1.836,0.0795024710707003,-0.0898631104924877
1.84,0.0729077253296517,-0.100646489949436
1.844,0.0657898735487764,-0.110886069657751
1.848,0.0581921662065501,-0.120555186979757
1.852,0.0501591342104744,-0.129630585322388
1.856,0.041736352477022,-0.138092453893339
1.86,0.0329702048206797,-0.145924462505808
1.864,0.0239076466370293,-0.15311379144039
1.868,0.0145959621059032,-0.159651155102536
1.872,0.00508251309057575,-0.1655308171362
1.876,-0.00455924847614628,-0.170737730383341
1.88,-0.014222250134803,-0.17526381430017
1.884,-0.0239380500997613,-0.179164086323003
1.888,-0.0336666029342954,-0.182448723124694
1.892,-0.0433695880791827,-0.185130540347504
1.896,-0.0530106211156105,-0.187224783174139
1.9,-0.0625554422626051,-0.1887488898887
1.904,-0.0719720768389366,-0.189722230840257
1.908,-0.0812309627485232,-0.190165826403575
1.912,-0.0903050405776916,-0.190102048629343
1.916,-0.0991698027154295,-0.189554312286851
1.92,-0.107803298911727,-0.188546761834779
1.924,-0.11618609690919,-0.187103961501596
1.928,-0.124301198097734,-0.185250596030013
1.932,-0.132133909592629,-0.183011189789266
1.936,-0.139671675578113,-0.180409851767388
1.94,-0.146903872196288,-0.177470053519206
1.944,-0.153821571605337,-0.174214446420699
1.948,-0.160417282022478,-0.170664723548079
1.952,-0.166684671601216,-0.166841530310222
1.956,-0.172618284735156,-0.162764426519857
1.96,-0.178213259901029,-0.158451901022661
1.964,-0.183465058347222,-0.153921438346127
1.968,-0.188369212828608,-0.149189635171432
1.972,-0.192921105150067,-0.144272362732674
1.976,-0.19711578056247,-0.139184969721002
1.98,-0.200947806035847,-0.133942518835071
1.984,-0.20441117816535,-0.128560048908401
1.988,-0.20749928498301,-0.123052853571031
1.992,-0.210204924323587,-0.117436766708862
1.996,-0.212520379618329,-0.111728444604973
2,-0.214437552238653,-0.105945634572906
2.004,-0.215993324079417,-0.0999924168660832
2.008,-0.217102598602494,-0.0939940331907437
2.012,-0.217755724385418,-0.0879792932382358
2.016,-0.217944855740064,-0.0819790849487676
2.02,-0.217664321729834,-0.0760262407821327
2.024,-0.216910979267706,-0.0701553435377186
2.028,-0.215684540628715,-0.064402474729529
2.032,-0.213987866384949,-0.0588049100731845
2.036,-0.211827215701103,-0.0534007680008844
2.04,-0.209212447053104,-0.0482286183551196
2.044,-0.206157163720619,-0.0433270593410668
2.048,-0.202678799854574,-0.0387342715636483
2.052,-0.198798644417963,-0.034487558429081
2.056,-0.194541801806003,-0.0306228823776813
2.06,-0.189937089508777,-0.0271744063588703
2.064,-0.185016874588636,-0.0241740496380596
2.068,-0.179816852107281,-0.021651066493048
2.072,-0.174375769839937,-0.0196316556108689
2.076,-0.168735104648325,-0.0181386071052951
2.08,-0.162938696719781,-0.0171909930365532
2.084,-0.157032348555143,-0.01680390620304
2.088,-0.151063395989015,-0.0169882507962134
2.092,-0.145080258791179,-0.0177505873544677
2.096,-0.139131978418179,-0.0190930332556782
2.1,-0.133267750352319,-0.0210132189353862
2.104,-0.127536458175883,-0.0235042989745956
2.108,-0.121986216074333,-0.0265550162967729
2.112,-0.116663925955858,-0.0301498169282131
2.116,-0.111614854733776,-0.0342690121237855
2.12,-0.106882236680665,-0.0388889841131331
2.124,-0.10250690504493,-0.0439824313519779
2.128,-0.0986416418936873,-0.0495281435596623
2.132,-0.0952447263327823,-0.0554506867974863
2.136,-0.0923025611919843,-0.0617060593961094
2.14,-0.089835920292208,-0.0682573339376316
2.144,-0.087862333143011,-0.0750667697909767
2.148,-0.0863961205648306,-0.0820961083610459
2.152,-0.0854484552847957,-0.0893068533006885
2.156,-0.0850274448985777,-0.0966605343309578
2.16,-0.0851382347569865,-0.104118953627907
2.164,-0.0857831284852195,-0.111644413974098
2.168,-0.0869617239820223,-0.119199928061392
2.172,-0.0886710629179296,-0.126749408443586
2.176,-0.0909057918326867,-0.134257837706402
2.18,-0.0936583330225972,-0.141691418461919
2.184,-0.0969190634289164,-0.149017702786264
2.188,-0.100676499708178,-0.156205700758556
2.192,-0.104917487627633,-0.163225967754976
2.196,-0.109627393802448,-0.170050670265852
2.2,-0.114790297685628,-0.176653630058609
2.204,-0.120389181588469,-0.183010346700586
2.208,-0.126406116367296,-0.189097998653105
2.212,-0.132822440322471,-0.194895423405378
2.216,-0.139618928761774,-0.200383077450155
2.22,-0.14677595167461,-0.205542977256584
2.224,-0.154273617010722,-0.210358622794948
2.228,-0.162091897170214,-0.214814905592227
2.232,-0.170210736512127,-0.218898003699616
2.236,-0.178610138015164,-0.222595266385257
2.24,-0.187270227558332,-0.225895091712896
2.244,-0.196171294791171,-0.228786800499538
2.248,-0.205293810081637,-0.231260510366208
2.252,-0.214642341076193,-0.233358348186388
2.256,-0.224216805606978,-0.235060673281702
2.26,-0.23397789362712,-0.236300452456129
2.264,-0.243902698196732,-0.237065762861942
2.268,-0.253967604254977,-0.237345662491915
2.272,-0.264148296152384,-0.237130237068118
2.276,-0.274419768571902,-0.236410654698546
2.28,-0.284756342817141,-0.235179228152772
2.284,-0.295131690442315,-0.233429484206442
2.288,-0.305518866149377,-0.231156239053093
2.292,-0.315890351729799,-0.228355678402201
2.296,-0.326218112615546,-0.225025440464295
2.3,-0.336473668248847,-0.221164699700704
2.304,-0.346628177158671,-0.216774248916218
2.308,-0.3566525371451,-0.211856577063727
2.312,-0.366517500501968,-0.206415940001984
2.316,-0.376193803721582,-0.200458421402901
2.32,-0.385652310556512,-0.193991981071099
2.324,-0.394864166852655,-0.187026488091718
2.328,-0.403800965059501,-0.179573736478426
2.332,-0.412434915879044,-0.171647441328222
2.336,-0.420739024172587,-0.163263213920241
2.34,-0.428687265920133,-0.154438514686959
2.344,-0.436254762836101,-0.145192583515923
2.348,-0.443417951135045,-0.135546347424482
2.352,-0.450154740927734,-0.125522306253459
2.356,-0.456444662851306,-0.115144397592212
2.36,-0.462268998704238,-0.104437842750439
2.364,-0.467610893203978,-0.0934289760708862
2.368,-0.472455444338778,-0.0821450604209484
2.372,-0.476789770271168,-0.0706140920109077
2.376,-0.480594233755077,-0.058868674871552
2.38,-0.483845567146766,-0.0469512406445481
2.384,-0.486566580222637,-0.0348809708643435
2.388,-0.488754018413671,-0.0226854738527162
2.392,-0.490406363981941,-0.0103918738814138
2.396,-0.491523722709013,0.00197333075134483
2.4,-0.492107695423354,0.0143843912416885
2.404,-0.492161237245623,0.026816411491126
2.408,-0.491688507661038,0.0392454295692183
2.412,-0.490694714721904,0.0516484764820763
2.416,-0.489185956736374,0.0640036118304526
2.42,-0.487169064846545,0.0762899364328148
2.424,-0.484651449771036,0.0884875825016996
2.428,-0.481640955865834,0.100577682439996
2.432,-0.478145725418217,0.112542317766589
2.436,-0.474174075805353,0.124364450040966
2.44,-0.469740284453936,0.136019496841149
2.444,-0.464852970055121,0.14749741397507
2.448,-0.459516987895495,0.158789241411743
2.452,-0.453739832183222,0.169880970258371
2.456,-0.44752874687289,0.180758834495012
2.46,-0.440890731631282,0.191409178555887
2.464,-0.433832569434512,0.201818328540164
2.468,-0.426360874900565,0.211972469935363
2.472,-0.418482162149927,0.221857534553709
2.476,-0.410202930651697,0.231459099144338
2.48,-0.401529767257239,0.24076229789379
2.484,-0.392469462429222,0.249751750726383
2.488,-0.383029138470659,0.258411509062435
2.492,-0.373216387470117,0.266725020368626
2.496,-0.36303941654356,0.27467511255664
2.5,-0.352507197947384,0.282243999029459
2.504,-0.341646401598946,0.289452231644951
2.508,-0.330440836010986,0.296245440542883
2.512,-0.318902190726771,0.302602226389773
2.516,-0.307043857847467,0.308500755940211
2.52,-0.294881072922136,0.313918924810891
2.524,-0.282431038707429,0.318834540220338
2.528,-0.269713029628362,0.323225521900802
2.532,-0.256748474893986,0.327070119185248
2.536,-0.243561018427659,0.330347142149557
2.54,-0.230176553920222,0.333036204475111
2.544,-0.216623233488435,0.33511797558656
2.548,-0.20293144861636,0.336574439410597
2.552,-0.189133782255816,0.337389156963379
2.556,-0.175264931165615,0.337547529793376
2.56,-0.161361597849712,0.337037061142259
2.564,-0.147462351712521,0.33584761153124
2.568,-0.133607459361144,0.333971645326115
2.572,-0.119838684366028,0.33140446471992
2.576,-0.106199057151721,0.328144427465361
2.58,-0.092732616139941,0.324193144655001
2.584,-0.0794841217298978,0.319555654809883
2.588,-0.0664987451913156,0.314240570632347
2.592,-0.0538217350577028,0.308260194877019
2.596,-0.0414980641353488,0.30163060200826
2.6,-0.0295720607588343,0.29437168260866
2.604,-0.0180870284267151,0.286507147849134
2.608,-0.00708485841823019,0.278064491845568
2.612,0.00339435960118158,0.269074910219988
2.616,0.0133127236155806,0.259573173873523
2.62,0.0226348963191311,0.249597457639131
2.624,0.0313284674224299,0.23918912428149
2.628,0.0393077700149266,0.228374251237935
2.632,0.0465808140323797,0.217229438306258
2.636,0.0531477467640719,0.205813011849249
2.64,0.0589949477750569,0.194176060141187
2.644,0.0641130638827366,0.182370514793127
2.648,0.0684970625434092,0.17044873715432
2.652,0.0721462390646276,0.15846310190478
2.656,0.0750641775468986,0.14646558371507
2.66,0.0772586663113733,0.134507352868726
2.664,0.0787415694339694,0.122638385594922
2.668,0.0795286568223288,0.110907094587063
2.672,0.0796393960597558,0.0993599847932329
2.676,0.0790967099660243,0.0880413390088915
2.68,0.0779267044249309,0.0769929371580333
2.684,0.0761583715459335,0.0662538124151976
2.688,0.0738232735991297,0.0558600464937064
2.692,0.0709552133847236,0.0458446055568897
2.696,0.0675898968129837,0.0362372173235395
2.7,0.063764593344589,0.0270642890598807
2.704,0.0595177998071862,0.0183488652600477
2.708,0.0548889126656252,0.0101106230802934
2.712,0.0499179134125697,0.00236590281319941
2.716,0.0446450711254362,-0.00487222987879847
2.72,0.0391106655749489,-0.0115938937679122
2.724,0.0333547335432377,-0.0177922780584864
2.728,0.0274168402375571,-0.0234635089533372
2.732,0.0213358769216936,-0.0286065012658675
2.736,0.0151498851122888,-0.0332227994691477
2.74,0.00889590699337885,-0.0373164124492667
2.744,0.00260986102826451,-0.0408936458677305
2.748,-0.00367355879439357,-0.0439629357111354
2.752,-0.00991769764103691,-0.0465666783951378
2.756,-0.0161027988582052,-0.0487169882875238
2.76,-0.0222052474376411,-0.0503932029567476
2.764,-0.0281950227045604,-0.0516078403083942
2.768,-0.0340431153136306,-0.0523750295852701
2.772,-0.039721582945744,-0.0527104573840078
2.776,-0.0452036075327087,-0.0526313157422687
2.78,-0.0504635546250158,-0.0521562510539266
2.784,-0.0554770351719081,-0.0513053125208367
2.788,-0.0602209697057075,-0.0500998988998585
2.792,-0.0646736546374786,-0.0485627024153085
2.796,-0.0688148301581576,-0.0467176488256263
2.8,-0.0726257490631419,-0.0445898328544148
2.804,-0.0760892456866248,-0.0422054483759434
2.808,-0.0791898040713954,-0.0395917129711378
2.812,-0.0819136245083793,-0.0367767866757629
