"Freq [GHz]","re(S(Antenna1_1_1,Antenna1_1_1)) []","im(S(Antenna1_1_1,Antenna1_1_1)) []"
1,0.373055266009975,0.0202446189415673
1.004,0.365875498104071,0.000690332896365825
1.008,0.357807200725122,-0.0182312820940711
1.012,0.348898716760621,-0.0364720280002424
1.016,0.339200870032731,-0.0539874573811086
1.02,0.328766705708324,-0.0707368869333129
1.024,0.317651262481724,-0.0866834079539622
1.028,0.305911371386009,-0.101793901989868
1.032,0.293605474569657,-0.116039068205902
1.036,0.280793456182872,-0.129393466949965
1.04,0.26753647688768,-0.141835581876844
1.044,0.253896803335332,-0.15334790070551
1.048,0.239937624286088,-0.163917012549011
1.052,0.225722845844837,-0.173533717698198
1.056,0.211316859498609,-0.182193143955753
1.06,0.196784278220377,-0.189894862170371
1.064,0.18219950945818,-0.196625544236984
1.068,0.167641166828634,-0.202385727400938
1.072,0.153159432220471,-0.207221228616672
1.076,0.138815742713826,-0.211152473017998
1.08,0.124669487446711,-0.214204588303547
1.084,0.110777539065122,-0.216407238650938
1.088,0.0971937962640605,-0.217794392930852
1.092,0.0839687492341967,-0.218404028027
1.096,0.0711490795762737,-0.218277770396618
1.1,0.0587773056074324,-0.217460481257488
1.104,0.0468914828402843,-0.215999792839771
1.108,0.0355249679325544,-0.213945604952891
1.112,0.0247062525892402,-0.211349552594247
1.116,0.014458871776933,-0.208264456398568
1.12,0.00480138841617934,-0.204743768391618
1.124,-0.00425254566088537,-0.200841025709708
1.128,-0.0126800024361964,-0.196682633219213
1.132,-0.0205085158698856,-0.192276344227209
1.136,-0.0277469878972988,-0.187644480898241
1.14,-0.0343996389271388,-0.182830757688241
1.144,-0.0404733553151434,-0.177876711488484
1.148,-0.0459772869887386,-0.172821597657334
1.152,-0.0509224550781941,-0.167702352902414
1.156,-0.0553213805055474,-0.162553620402256
1.16,-0.0591877432635177,-0.157407830698748
1.164,-0.0625360805629445,-0.152295330494488
1.168,-0.0653815303044994,-0.147244550263104
1.172,-0.0677396244421177,-0.142282200873977
1.176,-0.0696261348671261,-0.137433488985176
1.18,-0.0710569724963232,-0.132722340964144
1.184,-0.0720481384003356,-0.128171625416071
1.188,-0.0726157241091508,-0.123803365059291
1.192,-0.0727759567114316,-0.119638929638421
1.196,-0.0725452830995377,-0.115699202710415
1.2,-0.0719404867532662,-0.112004716519751
1.204,-0.0709788297307857,-0.108575750593288
1.208,-0.0696782121900638,-0.105432391210882
1.212,-0.0680573416430619,-0.102594550389365
1.216,-0.066135904351005,-0.10008194442384
1.22,-0.0639347316977487,-0.097914033334837
1.224,-0.0614759550286877,-0.0961099237033931
1.228,-0.058783143237556,-0.0946882382989384
1.232,-0.0558814183142451,-0.0936669566517464
1.236,-0.0527975450632867,-0.0930632312032734
1.24,-0.0495599921647837,-0.0928931839581774
1.244,-0.0461989627580481,-0.0931716886195448
1.248,-0.0427463935891767,-0.0939121430957242
1.252,-0.0391409020723552,-0.0951069714668258
1.256,-0.0354109537437285,-0.0968029725467964
1.26,-0.0316938952839401,-0.0990406758666637
1.264,-0.0280375276844566,-0.101825543003146
1.268,-0.0244909876472553,-0.105158872854791
1.272,-0.0211043465122011,-0.10903757969583
1.276,-0.0179281794068196,-0.113454013096033
1.28,-0.0150131087680858,-0.118395822855723
1.284,-0.0124093265509611,-0.123845871880839
1.288,-0.0101660996815163,-0.129782199688525
1.292,-0.00833126361072403,-0.136178039024914
1.296,-0.00695070915279649,-0.14300188778656
1.3,-0.00606786819586056,-0.150217638190134
1.304,-0.00572320432816405,-0.157784764695641
1.308,-0.00595371486017987,-0.165658571722466
1.312,-0.00679245123857175,-0.173790501596117
1.316,-0.00826806523465191,-0.182128502376099
1.32,-0.0104043887015044,-0.190617454360928
1.324,-0.0132200549359468,-0.199199653010347
1.328,-0.0167281698153799,-0.207815344859268
1.332,-0.0209360408221597,-0.216403311754926
1.336,-0.0258449717949145,-0.224901497388587
1.34,-0.0314501307398354,-0.233247668712172
1.344,-0.0377404972809418,-0.241380103483882
1.348,-0.0446988952478596,-0.249238293847519
1.352,-0.0523021146604836,-0.256763654699071
1.356,-0.0605211257241898,-0.263900224544028
1.36,-0.069321385738561,-0.270595345770195
1.364,-0.0786632377487155,-0.276800310777722
1.368,-0.0885023976803017,-0.282470960174958
1.372,-0.0987905244397011,-0.287568219482492
1.376,-0.109464079999975,-0.292004657996697
1.38,-0.120408555912228,-0.295654656063261
1.384,-0.1315838102247,-0.298673257637046
1.388,-0.142937773027588,-0.301056635330822
1.392,-0.154420091783784,-0.30280632139199
1.396,-0.165982766067178,-0.303928798361744
1.4,-0.177580710353014,-0.304435006091898
1.404,-0.189172232799151,-0.304339776970767
1.408,-0.200719419898468,-0.303661213058366
1.412,-0.212188419130013,-0.302420020377481
1.416,-0.223549614270306,-0.300638816817742
1.42,-0.234777690717475,-0.29834143080632
1.424,-0.245851590987937,-0.29555220821841
1.428,-0.25675436339421,-0.292295344778579
1.432,-0.267472909723475,-0.288594260556018
1.436,-0.277997640352693,-0.284471031978128
1.44,-0.288322047708727,-0.279945895250103
1.444,-0.298442211094783,-0.275036833034869
1.448,-0.308356247704955,-0.269759253965584
1.452,-0.31806372600179,-0.264125771936304
1.456,-0.327565058521638,-0.258146089318463
1.46,-0.336860891595014,-0.251826985364946
1.464,-0.34595150935624,-0.245172408069394
1.468,-0.354836268828723,-0.238183664920944
1.472,-0.363513081758299,-0.230859705249942
1.476,-0.371977957360253,-0.223197484343985
1.48,-0.380224618171615,-0.215192397385351
1.484,-0.388244198950174,-0.206838769403988
1.488,-0.396025035977673,-0.198130386103755
1.492,-0.403552551421538,-0.18906104950955
1.496,-0.410809234554966,-0.179625141966252
1.5,-0.417774718820171,-0.169818182130322
1.504,-0.424553389063718,-0.159589719168147
1.508,-0.430975276675754,-0.14895491635461
1.512,-0.437007111680062,-0.137920082338551
1.516,-0.442614878330651,-0.126495356322511
1.52,-0.44776437328435,-0.114694821852991
1.524,-0.452421767212827,-0.102536531539431
1.528,-0.456554155371331,-0.0900424452179379
1.532,-0.460130083584706,-0.0772382864349003
1.536,-0.463120037439727,-0.0641533241997142
1.54,-0.465496884084189,-0.0508200887795883
1.544,-0.467236257952128,-0.0372740317515178
1.548,-0.468316883792934,-0.0235531415847579
1.552,-0.468720832587946,-0.00969752669436956
1.556,-0.468433708142326,0.00425102183357617
1.56,-0.467444764357277,0.0182494758267338
1.564,-0.465746955212209,0.0322540124102574
1.568,-0.463336921416703,0.0462204425978084
1.572,-0.46021491931196,0.0601046166464487
1.576,-0.456384699009681,0.0738627982184099
1.58,-0.451853339754718,0.08745200097903
1.584,-0.446631051252095,0.10083028303158
1.588,-0.440730950030996,0.113956996382233
1.592,-0.434168819923823,0.126792990408696
1.596,-0.426962865410407,0.139300770036496
1.6,-0.419133465966805,0.151444610849777
1.604,-0.410702938627045,0.163190634795078
1.608,-0.401695314862586,0.174506851217655
1.612,-0.392136136609617,0.185363168897363
1.616,-0.382052274861329,0.195731385280298
1.62,-0.371471772809881,0.205585159426554
1.624,-0.360423714095975,0.214899975155685
1.628,-0.348909911994048,0.223529172179317
1.632,-0.33701551829038,0.231529763664873
1.636,-0.324786758498594,0.23892952551218
1.64,-0.31225521962948,0.245717748021358
1.644,-0.299452242796658,0.251885189034458
1.648,-0.28640892911021,0.257423982190819
1.652,-0.273156151718158,0.262327565704297
1.656,-0.259724569004315,0.266590629933721
1.66,-0.246144634778813,0.270209081147776
1.664,-0.232446602269769,0.273180018167561
1.668,-0.218660519777206,0.275501718168808
1.672,-0.204816216926272,0.277173627752361
1.676,-0.190943281529136,0.278196355456019
1.68,-0.177071028017855,0.278571662237123
1.684,-0.163228459279521,0.278302446933459
1.688,-0.149444224396522,0.277392724448448
1.692,-0.135746575292325,0.275847595192245
1.696,-0.122163325541876,0.273673205249568
1.7,-0.108721814680063,0.270876697644973
1.704,-0.0954488811357736,0.267466156022343
1.708,-0.082370846553747,0.2634505428828
1.712,-0.0695135136714766,0.258839635267393
1.716,-0.0569021791925008,0.25364396135206
1.72,-0.0445616622189893,0.247874741833768
1.724,-0.0325163478644615,0.241543840177332
1.728,-0.0207902446952756,0.234663725771366
1.732,-0.00940705365089187,0.22724745382318
1.736,0.00160975478863328,0.219308665335755
1.74,0.0122368592618659,0.210861609897622
1.744,0.0224510067331217,0.201921193165581
1.748,0.0322289374933041,0.192503049965241
1.752,0.0416924004960273,0.182642127087415
1.756,0.0508230398468422,0.172300459300358
1.76,0.0594424173577119,0.161458825548397
1.764,0.0675129182614619,0.150138025306161
1.768,0.0749969952309475,0.138362577204408
1.772,0.0818575956760891,0.126160883493476
1.776,0.0880586260179411,0.113565341069123
1.78,0.0935654456331609,0.100612392134417
1.784,0.0983453819147554,0.0873425087099849
1.788,0.102368256832394,0.0738001065693866
1.792,0.105606914562072,0.060033385688065
1.796,0.108037739212754,0.0460940960150539
1.8,0.109641151439995,0.032037229116242
1.804,0.110402072777895,0.0179206380423763
1.808,0.11031034690185,0.00380458955799049
1.812,0.109361107681932,-0.0102487454405257
1.816,0.107555084833646,-0.02417585592919
1.82,0.1048988391498,-0.0379125003683464
1.824,0.101404920709884,-0.051394351976944
1.828,0.0970919450097809,-0.0645576687330208
1.832,0.0919845836916665,-0.0773399765472236
1.836,0.0861134682771003,-0.0896807536424877
1.84,0.0795150071388517,-0.101522104103436
1.844,0.0722311177206864,-0.112809408734751
1.848,0.0643088776851501,-0.123491941855757
1.852,0.0558001002974744,-0.133523443367388
1.856,0.046760840774022,-0.142862636374339
1.86,0.0372508415646797,-0.151473681783808
1.864,0.0273329256030293,-0.15932656261439
1.868,0.0170723473627032,-0.166397392138536
1.872,0.00653611215057575,-0.1726686414682
1.876,-0.00418870582214628,-0.178056372088341
1.88,-0.014949072877803,-0.18242526268577
1.884,-0.0257100911257613,-0.186015532937303
1.888,-0.0364120125792954,-0.188848756708894
1.892,-0.0469989446391827,-0.190951432816204
1.896,-0.0574192769826105,-0.192354410816139
1.9,-0.0676260271956051,-0.1930922809477
1.904,-0.0775771028599366,-0.193202739386257
1.908,-0.0872354793425233,-0.192725939949775
1.912,-0.0965692939116916,-0.191703843094343
1.916,-0.105551858163429,-0.190179572620851
1.92,-0.114161591932727,-0.188196789941779
1.924,-0.12238188295929,-0.185799095032596
1.928,-0.130200877535534,-0.183029462437013
1.932,-0.137611208172329,-0.179929719797266
1.936,-0.144609665018014,-0.176540075466388
1.94,-0.151196818330288,-0.172898700827206
1.944,-0.157376599711337,-0.169041371947699
1.948,-0.163155850191578,-0.165001174242079
1.952,-0.168543843411216,-0.160808272838222
1.956,-0.173551792332156,-0.156489750397857
1.96,-0.178192347903029,-0.152069513180661
1.964,-0.182479098118222,-0.147568265249827
1.968,-0.186426075726608,-0.143003549784832
1.972,-0.190047282747067,-0.138389855601874
1.976,-0.19335623960947,-0.133738786112602
1.98,-0.196365566488847,-0.129059287103071
1.984,-0.19908660393935,-0.124357928871401
1.988,-0.20152907950201,-0.119639237488531
1.992,-0.203700826371587,-0.114906069126462
1.996,-0.205607559570329,-0.110160020681973
2,-0.207252714326653,-0.105401869203906
2.004,-0.208900620420017,-0.100535838784083
2.008,-0.210256651864994,-0.0955913110937437
2.012,-0.211304530040318,-0.0905760559162358
2.016,-0.212026991258064,-0.0855009488207676
2.02,-0.212406283651834,-0.0803802078301327
2.024,-0.212424699312706,-0.0752315588227186
2.028,-0.212065132245815,-0.070076324950529
2.032,-0.211311652072249,-0.0649394364811845
2.036,-0.210150082869103,-0.0598493587658844
2.04,-0.208568576172104,-0.0548379373321196
2.044,-0.206558166945619,-0.0499401605361668
2.048,-0.204113301255574,-0.0451938416775483
2.052,-0.201232324592963,-0.040639223988981
2.056,-0.197917920075003,-0.0363185134036813
2.06,-0.194177486378777,-0.0322753455228703
2.064,-0.190023446001636,-0.0285541946120596
2.068,-0.185473475457281,-0.025199733849948
2.072,-0.180550650200937,-0.0222561572465689
2.076,-0.175283498471325,-0.0197664747562951
2.08,-0.169705959791781,-0.0177717930075532
2.084,-0.163857245607043,-0.01631059475204
2.088,-0.157781601330215,-0.0154180305812134
2.092,-0.151527971005279,-0.0151252366424677
2.096,-0.145149567769179,-0.0154586919936782
2.1,-0.138703355201319,-0.0164396288413862
2.104,-0.132249446632883,-0.0180835082315956
2.108,-0.125850431264833,-0.0203995727987729
2.112,-0.119570637651458,-0.0233904869182131
2.116,-0.113475346631776,-0.0270520731257855
2.12,-0.107629967056665,-0.0313731519031331
2.124,-0.10209918870793,-0.0363354900221779
2.128,-0.0970943899876874,-0.0421254895802623
2.132,-0.0926376440267823,-0.0485187030455863
2.136,-0.0887340722939843,-0.0553875213391094
2.14,-0.085422800164208,-0.0626772311906316
2.144,-0.0827367163580111,-0.0703300387479767
2.148,-0.0807022393858306,-0.0782858522320459
2.152,-0.0793391878707957,-0.0864830797554885
2.156,-0.0786607551285777,-0.0948594280099578
2.16,-0.0786735864139865,-0.103352687646907
2.164,-0.0793779551743195,-0.111901491629098
2.168,-0.0807680328295223,-0.120446033507392
2.172,-0.0828322447276296,-0.128928733622586
2.176,-0.0855537034104867,-0.137294842430402
2.18,-0.0889107088535972,-0.145492971657919
2.184,-0.0928773042499164,-0.153475545633264
2.188,-0.0974238749820777,-0.161199166944556
2.192,-0.102517777872733,-0.168624892482976
2.196,-0.108123987470448,-0.175718417890852
2.2,-0.114205746166628,-0.182450170392609
2.204,-0.120725205223469,-0.188795311910586
2.208,-0.127644044393296,-0.194733656192805
2.212,-0.134924058662471,-0.200249505394578
2.216,-0.142527701730774,-0.205331413069455
2.22,-0.15041857715161,-0.209971881842584
2.224,-0.158561869502722,-0.214167005159948
2.228,-0.166924709538214,-0.217916063307627
2.232,-0.175476468942127,-0.221221084500316
2.236,-0.184188982020164,-0.224086382129257
2.24,-0.193036693308332,-0.226518079305896
2.244,-0.201996731780971,-0.228523631619538
2.248,-0.211048913849237,-0.230111358577208
2.252,-0.220125324699493,-0.231398555731388
2.256,-0.229254718255179,-0.232408448974702
2.26,-0.23849121010712,-0.233036141269129
2.264,-0.247824735201732,-0.233277709118942
2.268,-0.257245131018977,-0.233128325488915
2.272,-0.266741889196584,-0.232582300131118
2.276,-0.276303921628502,-0.231633159322546
2.28,-0.285919346324141,-0.230273761470772
2.284,-0.295575297584315,-0.228496444478442
2.288,-0.305257764271377,-0.226293200201893
2.292,-0.314951459142799,-0.223655871056391
2.296,-0.324639721387546,-0.220576363536595
2.3,-0.334304453659847,-0.217046873384404
2.304,-0.343926094160671,-0.213060117140218
2.308,-0.3534836235071,-0.208609564996727
2.312,-0.362954605481968,-0.203689670086984
2.316,-0.372315260141582,-0.198296089715301
2.32,-0.381540567188512,-0.192425894396099
2.324,-0.390604397101656,-0.186077761057718
2.328,-0.399479667144001,-0.179252147234426
2.332,-0.408138519071944,-0.171951443572222
2.336,-0.416552515203487,-0.164180102506241
2.34,-0.424692849371533,-0.155944741455959
2.344,-0.432530569239101,-0.147254219358923
2.348,-0.440036806469045,-0.138119685869482
2.352,-0.447183011316734,-0.128554602910459
2.356,-0.453941188303206,-0.118574738721212
2.36,-0.460284129768238,-0.108198134857439
2.364,-0.466185644295978,-0.0974450469358862
2.368,-0.471620777142778,-0.0863378601934484
2.372,-0.476566020032168,-0.0749009811812077
2.376,-0.480983550000077,-0.063151692357312
2.38,-0.484816888091766,-0.0511104767646481
2.384,-0.488095527793637,-0.0388409937934435
2.388,-0.490806805067671,-0.0263747760607162
2.392,-0.492940339253941,-0.0137440172184138
2.396,-0.494488059262013,-0.000981364698655173
2.4,-0.495444208487354,0.0118802869786885
2.404,-0.495805328771623,0.024808000196326
2.408,-0.495570223889038,0.0377689934002183
2.412,-0.494739903221504,0.0507308333610763
2.416,-0.493317506499674,0.0636616185044526
2.42,-0.491308210634345,0.0765301513408148
2.424,-0.488719119915236,0.0893060980886996
2.428,-0.485559141037034,0.101960133698996
2.432,-0.481838844628217,0.114464070600589
2.436,-0.477570315191353,0.126790969624965
2.44,-0.472759075745936,0.138899168454149
2.444,-0.467428225858121,0.15076885714707
2.448,-0.461599681507495,0.162387526986743
2.452,-0.455290097825222,0.173735177242471
2.456,-0.44851660736289,0.184793315151112
2.46,-0.441296651582282,0.195544913288387
2.464,-0.433647822471512,0.205974345861264
2.468,-0.425587717106565,0.216067305287963
2.472,-0.417133807842927,0.225810700815709
2.476,-0.408303330627697,0.235192541331338
2.48,-0.399113193643239,0.24420180490379
2.484,-0.389579908179222,0.252828297924383
2.488,-0.379719543240659,0.261062507046135
2.492,-0.369547704958117,0.268895447347426
2.496,-0.35907954136626,0.27631851034594
2.5,-0.348329772624584,0.283323315611459
2.504,-0.337392683601676,0.289900373200951
2.508,-0.326200996899886,0.296062346396883
2.512,-0.314765010856671,0.301800175416773
2.516,-0.303095092789467,0.307103990010211
2.52,-0.291201897604136,0.311963061576891
2.524,-0.279096595790429,0.316365790050338
2.528,-0.266791105843662,0.320299726954802
2.532,-0.254298325946386,0.323751635360248
2.536,-0.241632359647959,0.326707586738057
2.54,-0.228808730288222,0.329153093954711
2.544,-0.215844579020435,0.33107327893846
2.548,-0.20275884151136,0.332453072807297
2.552,-0.189572398719816,0.333277445588579
2.556,-0.176308197563615,0.333531662025776
2.56,-0.162991337782712,0.333201559410259
2.564,-0.149649121901521,0.33227384288924
2.568,-0.136311065777144,0.330736393291115
2.572,-0.123008867968028,0.32857858221742
2.576,-0.109776336818721,0.325791588935201
2.58,-0.096649274911641,0.322368713478601
2.584,-0.0836653212891978,0.318305680381883
2.588,-0.0708637525537356,0.313600927542347
2.592,-0.0582852446745028,0.308255874896019
2.596,-0.0459715980033488,0.30227516787126
2.6,-0.0339654286198343,0.29566689094566
2.604,-0.022309829694715,0.288442747046134
2.608,-0.0110480070692302,0.280618199060568
2.612,-0.000222893688818417,0.272212570253988
2.616,0.0101232521514806,0.263249101019523
2.62,0.0199492594638611,0.253754959974131
2.624,0.0292154626994299,0.24376120812719
2.628,0.0378910964749266,0.233181109842235
2.632,0.0459008798203797,0.222134598962858
2.636,0.0532052881720719,0.210710943807549
2.64,0.0597763740250569,0.198962563502687
2.644,0.0655907656197366,0.186944578021127
2.648,0.0706299507774092,0.17471434798832
2.652,0.0748805098986276,0.16233098441478
2.656,0.0783342949848986,0.14985483424207
2.66,0.0809885522463733,0.137346947862026
2.664,0.0828459865429694,0.124868535031122
2.668,0.0839147666535288,0.112480415771363
2.672,0.0842084711061958,0.100242472911233
2.676,0.0837459750645243,0.0882131129308915
2.68,0.0825512794984309,0.0764487416920333
2.684,0.0806532846369335,0.0650032614531976
2.688,0.0780855103991297,0.0539275953377064
2.692,0.0748857671907236,0.0432692450548897
2.696,0.0710957811219837,0.0330718873195395
2.7,0.066760778303989,0.0233750138678807
2.704,0.0619290334115162,0.0142136194588477
2.708,0.0566513882234252,0.00561794161449339
2.712,0.0509807462385697,-0.00238674480586559
2.716,0.0449715498204362,-0.00978027585979847
2.72,0.0386792465869489,-0.0165476879771122
2.724,0.0321597519012377,-0.0226792478354865
2.728,0.0254689144375571,-0.0281704226643372
2.732,0.0186619917416936,-0.0330217918168675
2.736,0.0117931425842888,-0.0372389013021477
2.74,0.00491494271037885,-0.0408320637562667
2.744,-0.00192206976853549,-0.0438161071652305
2.748,-0.00866981350409356,-0.0462100763678354
2.752,-0.0152001431773369,-0.0480465548531378
2.756,-0.0214764633974052,-0.0493831903925238
2.76,-0.0275512373098411,-0.0502487632997476
2.764,-0.0333968544955604,-0.0506725974573942
2.768,-0.0389890538206306,-0.0506850505552701
2.772,-0.044306868795744,-0.0503171344310078
2.776,-0.0493325282197087,-0.0496001569192687
2.78,-0.0540513160630158,-0.0485653907729266
2.784,-0.0584513952855081,-0.0472437745798367
2.788,-0.0625236009437075,-0.0456656499093585
2.792,-0.0662612084603786,-0.0438605380729085
2.796,-0.0696596833621576,-0.0418569590088063
2.8,-0.0727164190611419,-0.0396822938427147
2.804,-0.0754304694086248,-0.0373626916933434
2.808,-0.0778022827183954,-0.0349230202746378
2.812,-0.0798334438103793,-0.0323868588817629
