"Freq [GHz]","re(S(Antenna1_1_p1,Antenna1_1_p1)) []","im(S(Antenna1_1_p1,Antenna1_1_p1)) []"
3,0.0712065576323872,-0.094076566622687
3.002,0.0703217503029999,-0.0941823193480278
3.004,0.0694874624819265,-0.094280196370213
3.006,0.0686863120255175,-0.0943694206698325
3.008,0.0679301618000517,-0.0944585160170777
3.01,0.0672050743032745,-0.0945491642288913
3.012,0.0665355927459965,-0.0946383987452454
3.014,0.0658918123937069,-0.09473885615584
3.016,0.0652907588181895,-0.094844175428087
3.018,0.0647119952892424,-0.094960938367679
3.02,0.0641865952963935,-0.095091537541505
3.022,0.0636907816406598,-0.095240753418112
3.024,0.0632293884663809,-0.095404882390568
3.026,0.0627931477131175,-0.095590802034792
3.028,0.0624029181075956,-0.095799999226353
3.03,0.0620246642857071,-0.096036030328811
3.032,0.0616809758146373,-0.096301070811385
3.034,0.0613498450630112,-0.09658997670926
3.036,0.0610543198651525,-0.096915153314279
3.038,0.0607755197854368,-0.097273286505175
3.04,0.0605035189667017,-0.097660567417268
3.042,0.060257232716807,-0.098093455451676
3.044,0.06001828589724,-0.098557665664039
3.046,0.0597968172008701,-0.099062532942736
3.048,0.059574729811786,-0.099608573666616
3.05,0.0593505304292692,-0.100185412682254
3.052,0.059131432394858,-0.100806385490705
3.054,0.05891355307385,-0.101472301873839
3.056,0.0586876966848828,-0.102180711480182
3.058,0.0584525037455504,-0.102920029400212
3.06,0.0582084197389762,-0.10371121959134
3.062,0.0579518371905629,-0.104542948642313
3.064,0.0576741115322852,-0.105410681267263
3.066,0.0573853178724716,-0.106333462439194
3.068,0.0570647323630752,-0.107277983563156
3.07,0.0567160023619626,-0.1082683383689
3.072,0.0563509838904154,-0.109299427523082
3.074,0.0559470485497382,-0.110362769091131
3.076,0.0555103994710651,-0.111462632718602
3.078,0.0550379261093133,-0.112596495602142
3.08,0.0545262511352896,-0.113762436360073
3.082,0.0539710333300308,-0.11495388845249
3.084,0.053371194850247,-0.116175273750999
3.086,0.0527245659079667,-0.117424576288127
3.088,0.0520290022724046,-0.118697603527151
3.09,0.0512885411559499,-0.119987084966669
3.092,0.050490535540368,-0.121292398903825
3.094,0.0496376008032107,-0.122617830956958
3.096,0.0487306812444003,-0.123951262960094
3.098,0.0477683812129856,-0.125294196281897
3.1,0.0467454056741464,-0.126642984791316
3.102,0.0456562979063232,-0.12799966409008
3.104,0.0445204752288112,-0.129356639548592
3.106,0.043318297938891,-0.130705327053469
3.108,0.0420558587800803,-0.132043325017213
3.11,0.0407227804999295,-0.133382155843489
3.112,0.0393445077882531,-0.134693641976783
3.114,0.0378880944355584,-0.135997728991964
3.116,0.0363789651417158,-0.137280312453707
3.118,0.0347971154948076,-0.13853131456527
3.12,0.0331653948401886,-0.139765121639144
3.122,0.0314827785198488,-0.140955434276856
3.124,0.0297334014518793,-0.142120242343503
3.126,0.0279143036902858,-0.143250722300957
3.128,0.0260547990849227,-0.144335303058773
3.13,0.0241437422617671,-0.145379488101722
3.132,0.0221777546233201,-0.146373538884102
3.134,0.020160983929284,-0.147316636128731
3.136,0.018098476717521,-0.148209383285617
3.138,0.0159877160251748,-0.149046436151332
3.14,0.0138279804900765,-0.149824805319134
3.142,0.0116351608923442,-0.15054009370881
3.144,0.00941492614930222,-0.151194018796205
3.146,0.00714444907154882,-0.151781215712471
3.148,0.00485548263436578,-0.152309603223098
3.15,0.00254168244228789,-0.152767483496622
3.152,0.00018918752393698,-0.153153869753115
3.154,-0.00217747231182304,-0.15346188158237
3.156,-0.0045527564805792,-0.153711909631885
3.158,-0.00694930362976567,-0.153877958434539
3.16,-0.0093579309688068,-0.153969123486072
3.162,-0.011776179670704,-0.153989326882263
3.164,-0.0141865359391148,-0.15393906230596
3.166,-0.0166015537661991,-0.15380382461377
3.168,-0.0190059826977878,-0.153606896302574
3.17,-0.0214062162047379,-0.153326645785821
3.172,-0.023794546654365,-0.152969109259584
3.174,-0.026164043424902,-0.152539354028355
3.176,-0.0285085596145904,-0.152061245480713
3.178,-0.0308422359005646,-0.151481994264705
3.18,-0.0331444400273719,-0.150842687663031
3.182,-0.0354085026633407,-0.150136095638046
3.184,-0.0376497615456394,-0.149361664926555
3.186,-0.0398538102090488,-0.148520125454373
3.188,-0.0420130867135233,-0.14761696476075
3.19,-0.0441337218074359,-0.146664980112557
3.192,-0.0462068685256117,-0.145654198628312
3.194,-0.0482318037100576,-0.144575515931998
3.196,-0.0502012296014375,-0.143444359600725
3.198,-0.0521320659102961,-0.142280439641217
3.2,-0.0539925743779762,-0.141065201796068
3.202,-0.0558046184973491,-0.139802475644932
3.204,-0.057555772293184,-0.138503536312445
3.206,-0.0592504149423099,-0.137168478547038
3.208,-0.0608726292734999,-0.135801707313586
3.21,-0.0624474174870784,-0.13440422264389
3.212,-0.0639512480942741,-0.132980593944009
3.214,-0.0653945482962763,-0.131539328969442
3.216,-0.0667692852830783,-0.130075846995867
3.218,-0.0680892241319802,-0.128601655652824
3.22,-0.0693324012458896,-0.127113968321005
3.222,-0.0705149868613105,-0.125620812745815
3.224,-0.0716347039861017,-0.124127553016418
3.226,-0.0726947982569182,-0.12262701708785
3.228,-0.0736856567864161,-0.121134602430954
3.23,-0.0746147590602065,-0.119642938469507
3.232,-0.0754899190334913,-0.118168097833175
3.234,-0.0762917313774804,-0.116700423730403
3.236,-0.077063623315483,-0.115252122457159
3.238,-0.0777583449588185,-0.113825377039569
3.24,-0.0784074980423694,-0.112417286317458
3.242,-0.0790061620999061,-0.111036945153793
3.244,-0.0795562206391684,-0.109680472197981
3.246,-0.080057219116613,-0.108349839100128
3.248,-0.0805280802919803,-0.107052873952137
3.25,-0.0809419157044992,-0.105794749847781
3.252,-0.0813205994509234,-0.104570891902633
3.254,-0.0816631755672231,-0.103386998903938
3.256,-0.0819752714060309,-0.102240482140383
3.258,-0.0822518697588637,-0.101142426211805
3.26,-0.082504310967013,-0.100081019998794
3.262,-0.0827321559312309,-0.099071634842253
3.264,-0.0829444246851025,-0.098084885512867
3.266,-0.0831327771721733,-0.097158120350483
3.268,-0.0833170175618425,-0.096267414973469
3.27,-0.0834866999330247,-0.095430688917985
3.272,-0.08364620173633,-0.094648265107156
3.274,-0.0838056759315963,-0.093894841640265
3.276,-0.0839638716827412,-0.093189573171829
3.278,-0.0841254943877944,-0.092527070780619
3.28,-0.0842920709425796,-0.091894962278684
3.282,-0.0844658330934739,-0.091337981030279
3.284,-0.0846501276421423,-0.090783236440745
3.286,-0.0848558502380687,-0.090278976975387
3.288,-0.0850763873988109,-0.089830366268274
3.29,-0.0853126755609762,-0.089392943411023
3.292,-0.0855697226389712,-0.089004869361529
3.294,-0.0858579803024589,-0.088640668102683
3.296,-0.086169887865602,-0.088324139901055
3.298,-0.0865030645890166,-0.088013865465541
3.3,-0.0868819525564852,-0.087748892995977
3.302,-0.087285560957401,-0.0874969192967829
3.304,-0.087716254823971,-0.0872515931994987
3.306,-0.088197261588186,-0.0870487051583946
3.308,-0.088712712348481,-0.0868586640280116
3.31,-0.089260731446183,-0.086665455067678
3.312,-0.089853171131738,-0.0864903530701005
3.314,-0.090459144470602,-0.0863084438688205
3.316,-0.091132686758956,-0.0861390339647823
3.318,-0.091852516769156,-0.0859813396798324
3.32,-0.092581039264918,-0.0858056331582342
3.322,-0.093368478836244,-0.0856286301301902
3.324,-0.094210671384161,-0.0854528462829709
3.326,-0.095065755945144,-0.0852583952752426
3.328,-0.095976481125334,-0.0850438619765907
3.33,-0.096928348874514,-0.0848263165241052
3.332,-0.097917492319803,-0.0845848122338989
3.334,-0.098950902059151,-0.0843244988591291
3.336,-0.100016585124604,-0.0840359212047856
3.338,-0.101100663295247,-0.0837208998282834
3.34,-0.102231746120002,-0.0833727960851442
3.342,-0.103421334010126,-0.0829935416896365
3.344,-0.104587211081499,-0.0825837146064825
3.346,-0.105830932536659,-0.0821325155075703
3.348,-0.107075518856631,-0.0816449267947129
3.35,-0.108334456912474,-0.081127136201455
3.352,-0.109626451586631,-0.0805575531318617
3.354,-0.110944820004032,-0.0799396105704176
3.356,-0.112275439166974,-0.0792861313228962
3.358,-0.113626596420741,-0.0785786218963293
3.36,-0.114997937368048,-0.0778137058879887
3.362,-0.116378890730194,-0.0770048966744171
3.364,-0.117751648513034,-0.0761553331905198
3.366,-0.119138309469697,-0.0752561687286916
3.368,-0.120522700661099,-0.0742942451480128
3.37,-0.121897067795204,-0.0733032083834807
3.372,-0.123275331342098,-0.0722438783953162
3.374,-0.124671785345788,-0.0711146815683304
3.376,-0.126041384148842,-0.0699504760913154
3.378,-0.127400424091872,-0.0687334555865588
3.38,-0.12873625948547,-0.0674653482093595
3.382,-0.130066908271834,-0.0661388839376676
3.384,-0.131378370507887,-0.0647614216417444
3.386,-0.132660804981414,-0.063354584683935
3.388,-0.133920330953689,-0.0618797677884745
3.39,-0.135155141981798,-0.0603571079513831
3.392,-0.136362378133399,-0.0587818119504763
3.394,-0.137533833742402,-0.0571674159653839
3.396,-0.138667471650427,-0.0555024736977036
3.398,-0.139768788168031,-0.0537801363411993
3.4,-0.140838682467788,-0.0520456925821265
3.402,-0.141852710936073,-0.0502413960796012
3.404,-0.142831514244757,-0.0484187341260835
3.406,-0.143764953956559,-0.0465311917379242
3.408,-0.144652381538336,-0.04463903971605
3.41,-0.145496817731074,-0.0427077594746889
3.412,-0.146283185144713,-0.0407492953022155
3.414,-0.147023651459788,-0.0387570338120991
3.416,-0.14771152982385,-0.0367389040829436
3.418,-0.148330766935692,-0.0346826683266081
3.42,-0.148914540089408,-0.0326385355484765
3.422,-0.149428239128225,-0.0305366606887805
3.424,-0.149906788688167,-0.028449627580063
3.426,-0.150312731141508,-0.0263386478487225
3.428,-0.150664184550079,-0.0242137537836846
3.43,-0.150952765398331,-0.0220873663081962
3.432,-0.151186732486248,-0.0199411297536924
3.434,-0.151361536042069,-0.0178018398489036
3.436,-0.151489818844843,-0.0156580716472368
3.438,-0.151534994816747,-0.0135239966803454
3.44,-0.151533076505315,-0.0113780945895102
3.442,-0.151467996075395,-0.0092506535800755
3.444,-0.151351958731002,-0.0071290913277369
3.446,-0.151180912946934,-0.00502024527598661
3.448,-0.150949223000294,-0.0029228179618652
3.45,-0.150665180301751,-0.00084864195994775
3.452,-0.150322517726694,0.00121051624957778
3.454,-0.149933855866179,0.00323877960665357
3.456,-0.149484374417762,0.00525741293301917
3.458,-0.148988777706086,0.00724948178167506
3.46,-0.148441573613375,0.00919808515830837
3.462,-0.14784706686974,0.0111308439864702
3.464,-0.147205985083315,0.0130264406237169
3.466,-0.14652377972724,0.01489097752154
3.468,-0.145797515373509,0.0167159532092047
3.47,-0.14501689219962,0.0184955322604226
3.472,-0.144211539174117,0.0202508333148729
3.474,-0.14337654024293,0.0219575544736166
3.476,-0.142485017247626,0.0236172781943116
3.478,-0.141580951863446,0.0252442159063468
3.48,-0.140641826971248,0.0268202576457556
3.482,-0.139683956154277,0.0283612747900513
3.484,-0.138686889493791,0.0298454984828373
3.486,-0.137666440268562,0.0312823776083406
3.488,-0.136639020233227,0.0326778264957411
3.49,-0.135584800670093,0.0340222693233574
3.492,-0.134520293082332,0.0353195138526897
3.494,-0.133438510409695,0.0365703917222793
3.496,-0.132345696499865,0.037763800691463
3.498,-0.131251069050101,0.0389216854138831
3.5,-0.130146476712695,0.0400257344009319
3.502,-0.129038399647824,0.0410781695749651
3.504,-0.127929280099503,0.0420847179723738
3.506,-0.126829058054821,0.0430577187765141
3.508,-0.125728098566933,0.0439556257304342
3.51,-0.124629939067048,0.0448273686694722
3.512,-0.123547113662218,0.0456462139536368
3.514,-0.122470516576046,0.0464329650499
3.516,-0.121412375460291,0.0471581059342318
3.518,-0.120361025680324,0.0478752577535331
3.52,-0.119336165282516,0.0485224740273474
3.522,-0.118324562038488,0.0491434761804514
3.524,-0.11733473853727,0.0497250848622149
3.526,-0.116378474752351,0.0502597829838455
3.528,-0.115443381545635,0.0507639932394167
3.53,-0.114519305393279,0.0512650304677345
3.532,-0.113638877991471,0.0517045056980371
3.534,-0.112783594952063,0.0521290045994984
3.536,-0.111957743808135,0.0525283305095535
3.538,-0.111164748649494,0.052907612153104
3.54,-0.11040160246802,0.0532618746034222
3.542,-0.109667603063001,0.0535994143870213
3.544,-0.10897818945631,0.0539221767362127
3.546,-0.10831549000755,0.0542291802635896
3.548,-0.107690549479099,0.0545225703842344
3.55,-0.107092635501067,0.0548187557009438
3.552,-0.106536960076199,0.0551037888025516
3.554,-0.106018464734678,0.0553770483486826
3.556,-0.105541136198874,0.0556484833282487
3.558,-0.105084130778016,0.0559310257252887
3.56,-0.104672437082794,0.0562109332900024
3.562,-0.104289850929887,0.0565025634597256
3.564,-0.103950007816437,0.0567949868947101
3.566,-0.103629978164482,0.0571030412946854
3.568,-0.10335048010527,0.0574164711722709
3.57,-0.103095244343569,0.0577542386652099
3.572,-0.102880610411901,0.0581070802123531
3.574,-0.102678460724728,0.0584789956885179
3.576,-0.102503013642573,0.0588635948021303
3.578,-0.102366605916098,0.059278196426669
3.58,-0.102246767823155,0.0597210733659463
3.582,-0.102144371098755,0.0601885022621691
3.584,-0.102062707126027,0.060686634530838
3.586,-0.102003639937117,0.0612137188364247
3.588,-0.101958305035043,0.0617693526278896
3.59,-0.101919812994549,0.0623595622839944
3.592,-0.101902683320871,0.0629787503984159
3.594,-0.101890092382522,0.0636436240346786
3.596,-0.101876689704021,0.0643285865708876
3.598,-0.101865818542576,0.0650534634043024
3.6,-0.101864959737798,0.0658202556556428
3.602,-0.101865502873316,0.066623888963311
3.604,-0.101860506209154,0.0674591093773087
3.606,-0.101834485330602,0.0683399502130682
3.608,-0.101809437186851,0.0692542792250054
3.61,-0.101774812045548,0.0702074234599266
3.612,-0.101728407023881,0.0711984206602414
3.614,-0.10165960484143,0.0722158789069679
3.616,-0.101573211475914,0.0732766294825591
3.618,-0.101468276709756,0.074371199593539
3.62,-0.101336744077583,0.0755024083229458
3.622,-0.101180531480811,0.0766643987925597
3.624,-0.100992792503141,0.0778587715049854
3.626,-0.10077774325412,0.0790793086655147
3.628,-0.100523017449685,0.0803473178338085
3.63,-0.100237606746703,0.0816092773353693
3.632,-0.0999210308945401,0.0829190164128583
3.634,-0.0995594274716142,0.0842463718962071
3.636,-0.0991589053620088,0.0855959201735139
3.638,-0.098708457361026,0.0869718675968041
3.64,-0.0982159934878427,0.0883600044275675
3.642,-0.0976888020691157,0.0897679134491043
3.644,-0.0971072554926463,0.0911722814096958
3.646,-0.0964832597010528,0.0925915328336065
3.648,-0.0958085150954769,0.0940238904928645
3.65,-0.0950692036993152,0.0954735338138599
3.652,-0.0942985073119752,0.096907776214808
3.654,-0.0934733526026551,0.098346637846948
3.656,-0.0925900429041943,0.099791543470621
3.658,-0.0916569566169053,0.101218746869948
3.66,-0.0906846720024804,0.102640767837807
3.662,-0.0896443781879445,0.104056925567942
3.664,-0.0885511125496043,0.105450519679797
3.666,-0.0874194527970947,0.106830927760651
3.668,-0.0862318772774271,0.108194935326292
3.67,-0.0849950238191147,0.109534774810007
3.672,-0.0837071338863519,0.110851150686068
3.674,-0.0823738713731932,0.112137731882169
3.676,-0.0809943495378499,0.113395869187703
3.678,-0.0795651858870144,0.114624736149789
3.68,-0.0780931292402285,0.115813466418218
3.682,-0.0765771882643316,0.116965385757147
3.684,-0.0750257762679687,0.118083839827662
3.686,-0.0734293778261483,0.119157499984165
3.688,-0.071796491844882,0.120186058026555
3.69,-0.0701323526428625,0.121171526685286
3.692,-0.0684344628082549,0.122112453244221
3.694,-0.066704888209515,0.123001350059341
3.696,-0.0649400988333013,0.123838913018246
3.698,-0.0631593617364635,0.124619748515544
3.7,-0.061348697841104,0.12535404825803
3.702,-0.0595192321137052,0.126037756089723
3.704,-0.0576726952443483,0.126666106036724
3.706,-0.0558034996210189,0.127227053781918
3.708,-0.0539366559939834,0.127740539009536
3.71,-0.0520545212082514,0.1281923401795
3.712,-0.0501577870911272,0.128590230221676
3.714,-0.048258198192779,0.128931425179918
3.716,-0.0463563879455147,0.129205411385981
3.718,-0.0444570488181621,0.129424565243269
3.72,-0.0425632514949527,0.129586373010434
3.722,-0.0406726346880388,0.129700868414807
3.724,-0.038799667859209,0.129741700065697
3.726,-0.0369296667619882,0.129733450907529
3.728,-0.0350821067779552,0.129667686112823
3.73,-0.0332476498421279,0.129557325995062
3.732,-0.0314317913695063,0.129388359721342
3.734,-0.0296471089766625,0.129154793604959
3.736,-0.0278746382374823,0.128887241767801
3.738,-0.0261379525159857,0.128559667282591
3.74,-0.0244274726912767,0.128191323875037
3.742,-0.0227521454735766,0.12777512353579
3.744,-0.021110210356405,0.1273153139643
3.746,-0.0195046743288577,0.126804647730493
3.748,-0.0179310491059832,0.12627094384937
3.75,-0.016399700819317,0.125693744555433
3.752,-0.0149094600144924,0.125077465101967
3.754,-0.0134648803789863,0.124427081671228
3.756,-0.0120569613200003,0.123747300570486
3.758,-0.0107031307724503,0.123037748682918
3.76,-0.0093905937670652,0.122302789766421
3.762,-0.0081200926886571,0.121550376480226
3.764,-0.0069013594344565,0.120777539929489
3.766,-0.0057187689526317,0.119986053390677
3.768,-0.0046061818508991,0.119170716588851
3.77,-0.0035293009352739,0.118360843267264
3.772,-0.0025054950689708,0.117520259101822
3.774,-0.0015256818814071,0.116682876989994
3.776,-0.000597540887363801,0.115843454275683
3.778,0.0002954747237303,0.114997065576911
3.78,0.0011299290283746,0.114154161133047
3.782,0.0019107230394344,0.113322485138885
3.784,0.0026469417664397,0.112484178597062
3.786,0.00334376584575378,0.11165640912331
3.788,0.00399419405058185,0.110844968835673
3.79,0.00459990650085449,0.110042422670565
3.792,0.00516396265295933,0.109261802821754
3.794,0.00570351459933767,0.108501203767247
3.796,0.00617945300791871,0.107744922459083
3.798,0.00662826119143312,0.107018784812006
3.8,0.00704633721355323,0.106314955159077
3.802,0.00743804742490921,0.105651540150191
3.804,0.00778025187193597,0.104997115907454
3.806,0.00810976724857551,0.104366743216585
3.808,0.00838729276685254,0.103783614785074
3.81,0.00865881040224977,0.103222898470413
3.812,0.00889862983398295,0.102698316638143
3.814,0.00912633187009017,0.102202204139862
3.816,0.00933288275337176,0.101742249521147
3.818,0.00951936364818423,0.101317417279396
3.82,0.00970039318107112,0.100927233621597
3.822,0.00986151124525717,0.100573725172044
3.824,0.0100270628425409,0.100259955019941
3.826,0.0101790414510111,0.099978797996983
3.828,0.0103224293742591,0.099737724624835
3.83,0.0104594740181134,0.099531236822572
3.832,0.0106206844459344,0.09936162096403
3.834,0.010756868930221,0.099234034175142
3.836,0.0109091000219614,0.099129151791143
3.838,0.0110845559939229,0.099076161583797
3.84,0.0112568917556799,0.099036578398522
3.842,0.0114407641815272,0.099035673051449
3.844,0.0116480511491687,0.099080028296506
3.846,0.011868124155273,0.099143203372342
3.848,0.012106734933873,0.099245302909313
3.85,0.0123664633195855,0.099364356396336
3.852,0.012655552675659,0.09951861758777
3.854,0.0129717622358963,0.099699225549213
3.856,0.0133077883263614,0.099897818475251
3.858,0.0136745808499444,0.100121474815237
3.86,0.014070132356777,0.100359096634943
3.862,0.0144985780754504,0.10061127216426
3.864,0.0149623767790784,0.100887870611821
3.866,0.0154452482092071,0.101163762713613
3.868,0.0159694924895446,0.101468855313543
3.87,0.0165393852695121,0.101779718877022
3.872,0.0171351824676653,0.102089921973482
3.874,0.0177649403649071,0.102402187967894
3.876,0.0184429980075539,0.102719830437267
3.878,0.0191440446502417,0.10303582637213
3.88,0.0198911069186352,0.103360108659395
3.882,0.0206726722520098,0.103659452221096
3.884,0.0214943053656259,0.103964603259439
3.886,0.0223513126929743,0.104257660164021
3.888,0.0232540132678174,0.104537489495479
3.89,0.0241821301760879,0.104798100035916
3.892,0.0251560354276088,0.105044762871054
3.894,0.0261455983776607,0.105270884865631
3.896,0.0271809346683541,0.10547926056688
3.898,0.0282449787798694,0.105657973457923
3.9,0.0293616837815106,0.105820983268221
3.902,0.0304812451925812,0.105952577402045
3.904,0.0316475055731329,0.106051481071914
