"Freq [GHz]","re(S(Antenna1_1_p1,Antenna1_1_p1)) []","im(S(Antenna1_1_p1,Antenna1_1_p1)) []"
3,0.108860786152387,-0.115227228976587
3.002,0.106708676333,-0.117443835329128
3.004,0.104501850221926,-0.119583020648213
3.006,0.102216679345518,-0.121637164351832
3.008,0.0998525552100517,-0.123594947716078
3.01,0.0974368853832745,-0.125454082562891
3.012,0.0949571924759965,-0.127229639787245
3.014,0.0924267799437069,-0.12890227415384
3.016,0.0898353799261895,-0.130473210413087
3.018,0.0872151313232424,-0.131941275296679
3.02,0.0845437829363935,-0.133302096862505
3.022,0.0818601463006598,-0.134553640939112
3.024,0.0791383691663809,-0.135706193249568
3.026,0.0763899230781175,-0.136736180914792
3.028,0.0736349262519956,-0.137675270226353
3.03,0.0708690437387071,-0.138493349688811
3.032,0.0681033806936373,-0.139208559871385
3.034,0.0653264503730112,-0.13981632561926
3.036,0.0625729457891525,-0.140320271804279
3.038,0.0598230732764368,-0.140709959555175
3.04,0.0570941363007017,-0.140991220497268
3.042,0.054398515882807,-0.141192824191676
3.044,0.05171650328324,-0.141258714274039
3.046,0.0490713115538701,-0.141242761922736
3.048,0.046463062697786,-0.141133275446616
3.05,0.0439056025322692,-0.140923665782254
3.052,0.041392579281858,-0.140638342580705
3.054,0.03893164232155,-0.140243278033839
3.056,0.0365266332401328,-0.139786341930182
3.058,0.0341889450636504,-0.139232197330212
3.06,0.0319050295689762,-0.13861266340134
3.062,0.0296807719075629,-0.137917643302313
3.064,0.0275428668392852,-0.137161742557263
3.066,0.0254966090264716,-0.136330603809194
3.068,0.0234856104480752,-0.135457745853156
3.07,0.0215818913039626,-0.1345105189289
3.072,0.0197561547694154,-0.133519328072082
3.074,0.0180269192997382,-0.132470603630131
3.076,0.0163558669350651,-0.131415909035602
3.078,0.0147988259853133,-0.130285937669142
3.08,0.0133082632252896,-0.129186664755073
3.082,0.0119093871400308,-0.12801403817369
3.084,0.010625208800247,-0.126832453676099
3.086,0.0093970462279667,-0.125651905177127
3.088,0.0082650197424046,-0.124453125539151
3.09,0.0072685447959499,-0.123256215211669
3.092,0.006324065560368,-0.122064628395825
3.094,0.0054483403232107,-0.120883323644958
3.096,0.0046614497544003,-0.119709877733094
3.098,0.0039735473429856,-0.118551379338897
3.1,0.0033724997441464,-0.117445435186316
3.102,0.0028831496363232,-0.11633693938408
3.104,0.0024307220188112,-0.115280138897592
3.106,0.002068595128891,-0.114250431366469
3.108,0.0017432810500803,-0.113252208017813
3.11,0.0015417700599295,-0.112334708821959
3.112,0.0013500008882531,-0.111418750286783
3.114,0.0012449727455584,-0.110594083951964
3.116,0.0012132652917158,-0.109794430272707
3.118,0.0012547527048076,-0.10910944693327
3.12,0.0012970855001886,-0.108438277850144
3.122,0.0014014719698488,-0.107848224284856
3.124,0.0015654963518793,-0.107343698636503
3.126,0.0017556359702858,-0.106885832363957
3.128,0.0019773053519227,-0.106527058347773
3.13,0.0022277155237671,-0.106224404931722
3.132,0.00252171389032008,-0.106026151154102
3.134,0.002806028137284,-0.105875131578731
3.136,0.00308932168352099,-0.105804571205617
3.138,0.00340142187917483,-0.105819544271332
3.14,0.0037154305594765,-0.105911380049134
3.142,0.00403342087534423,-0.10609997396881
3.144,0.00433067610530222,-0.106380146206205
3.146,0.00460330384954882,-0.106695544132471
3.148,0.00488807430936578,-0.107147131193098
3.15,0.00513111166228789,-0.107608890466622
3.152,0.00536771564693698,-0.108178461243115
3.154,0.00552936792217696,-0.10882271453237
3.156,0.0056848092684208,-0.109567656231885
3.158,0.00578470556223433,-0.110329079204539
3.16,0.0058421667781932,-0.111178209176072
3.162,0.005837060752996,-0.112137765352263
3.164,0.0057945854597852,-0.11310931178596
3.166,0.0056939484328009,-0.11412872662377
3.168,0.0055226056022122,-0.115230584802574
3.17,0.0052677194492621,-0.116387763235821
3.172,0.004974269401635,-0.117572011139584
3.174,0.004582684349098,-0.118812340278355
3.176,0.0041015914694096,-0.120111605630713
3.178,0.0035851110144354,-0.121403115384705
3.18,0.0029626648166281,-0.122741974713031
3.182,0.0022220156356593,-0.124128074978046
3.184,0.0014323833053606,-0.125525254197555
3.186,0.000575861880951201,-0.126895442491373
3.188,-0.000403623373523301,-0.12832191036575
3.19,-0.0014608404174359,-0.129747264394557
3.192,-0.0026529005156117,-0.131196357092312
3.194,-0.0038643683900576,-0.132587747768998
3.196,-0.0052056407814375,-0.134006841504025
3.198,-0.0066261106602961,-0.135391578081217
3.2,-0.0081372182779762,-0.136777345029068
3.202,-0.0097922741373491,-0.138113494823932
3.204,-0.011457456763184,-0.139433740231445
3.206,-0.0132631876623099,-0.140707882239038
3.208,-0.0151437345334999,-0.141941113500586
3.21,-0.0171328187070784,-0.14314400150289
3.212,-0.0191831164842741,-0.144279247661009
3.214,-0.0213083248562763,-0.145368556126442
3.216,-0.0235170280330783,-0.146404436107167
3.218,-0.0258136470619802,-0.147345327229524
3.22,-0.0281664648258896,-0.148239772060005
3.222,-0.0305923340513105,-0.149055301716815
3.224,-0.0330919120461017,-0.149812951121418
3.226,-0.0356444217269182,-0.15048058483985
3.228,-0.0382584865964161,-0.151040191263954
3.23,-0.0409175388202065,-0.151533312452507
3.232,-0.0436358088034913,-0.151918260702175
3.234,-0.0464074101174804,-0.152220207398403
3.236,-0.049219222335483,-0.152415135376159
3.238,-0.0520472869588185,-0.152530740220569
3.24,-0.0549194205023694,-0.152538024567458
3.242,-0.0578218484109061,-0.152432534363793
3.244,-0.0607311456351684,-0.152221462127981
3.246,-0.063680976103613,-0.151905144880128
3.248,-0.0666198675839803,-0.151490900362137
3.25,-0.0695755372764992,-0.150949526027781
3.252,-0.0725207007287234,-0.150333319332633
3.254,-0.0754613080272231,-0.149582066673938
3.256,-0.0783824725030309,-0.148729607230383
3.258,-0.0813095965328637,-0.147776355581805
3.26,-0.084191035803013,-0.146700485488794
3.262,-0.0870755907282309,-0.145528761412253
3.264,-0.0898923101361025,-0.144243738412867
3.266,-0.0926867596331733,-0.142860946160483
3.268,-0.0954424259588425,-0.141378706253469
3.27,-0.0981334149309247,-0.139775340387985
3.272,-0.10079951796403,-0.138115956707156
3.274,-0.103377387110596,-0.136332888820265
3.276,-0.105896618861741,-0.134461901661829
3.278,-0.108360262807794,-0.132498193800619
3.28,-0.11074903979858,-0.130458443698684
3.282,-0.113060987653474,-0.128331561610279
3.284,-0.115301031211142,-0.126140234910745
3.286,-0.117443306079069,-0.123843675225387
3.288,-0.119497060352811,-0.121506398518274
3.29,-0.121481659454976,-0.119106580311023
3.292,-0.123369269103971,-0.116641698401529
3.294,-0.125158593232459,-0.114111697052683
3.296,-0.126835524965602,-0.111521860471055
3.298,-0.128446038579017,-0.108907072810541
3.3,-0.129913129516485,-0.106235073963977
3.302,-0.131297257557401,-0.103534099622783
3.304,-0.132557673393971,-0.100803585774499
3.306,-0.133739280938186,-0.0980480965393946
3.308,-0.134797475748481,-0.0952735617234116
3.31,-0.135761318776183,-0.092492169856478
3.312,-0.136608518091738,-0.0896849669521005
3.314,-0.137338193000602,-0.0868953353408205
3.316,-0.137975870528956,-0.0840830851087823
3.318,-0.138493305989156,-0.0812913229208324
3.32,-0.138925325924918,-0.0785106550692342
3.322,-0.139217016016244,-0.0757639892051902
3.324,-0.139434984624161,-0.0730183396523709
3.326,-0.139540755525144,-0.0703107236964426
3.328,-0.139543334945334,-0.0676441357285907
3.33,-0.139460246844514,-0.0649987062091052
3.332,-0.139262699389803,-0.0624155444958989
3.334,-0.138997448289151,-0.0598615090631291
3.336,-0.138633207124604,-0.0573690029597856
3.338,-0.138174745505247,-0.0549330585482834
3.34,-0.137644851510002,-0.0525582602831442
3.342,-0.137034613570126,-0.0502420335396365
3.344,-0.136348894461499,-0.0480024648524825
3.346,-0.135589007446659,-0.0458383363645703
3.348,-0.134783281746631,-0.0437259269157129
3.35,-0.133890245012474,-0.041722053991455
3.352,-0.132939134006631,-0.0397985205618617
3.354,-0.131950594424032,-0.0379160960304176
3.356,-0.130910610512974,-0.0361620729128962
3.358,-0.129834372984741,-0.0344724060563293
3.36,-0.128714365591048,-0.0328757646879887
3.362,-0.127561557005194,-0.0313844144344171
3.364,-0.126381667169034,-0.0299652846605198
3.366,-0.125182225752697,-0.0286619857086916
3.368,-0.123977306867099,-0.0274378610280128
3.37,-0.122739739041204,-0.0262827801634807
3.372,-0.121509071977098,-0.0252624782353162
3.374,-0.120270685059788,-0.0242911100683304
3.376,-0.119046765619842,-0.0234557400913154
3.378,-0.117832964899772,-0.0226697352265588
3.38,-0.11661241068718,-0.0219856715893595
3.382,-0.115433732210734,-0.0214096190976676
3.384,-0.114287257939887,-0.0209066695217444
3.386,-0.113156695753414,-0.020507806673935
3.388,-0.112065456686689,-0.0201568323284745
3.39,-0.111022383988798,-0.0199131595013831
3.392,-0.110003376989399,-0.0197167801604763
3.394,-0.109055340155402,-0.0196219579953839
3.396,-0.108145630967427,-0.0195796287977036
3.398,-0.107305443996031,-0.0196195562811993
3.4,-0.106509407947788,-0.0197159890521265
3.402,-0.105768113831073,-0.0198624958796012
3.404,-0.105126651381757,-0.0200658110260835
3.406,-0.104532691958559,-0.0203289233179242
3.408,-0.104024146048336,-0.02063238535605
3.41,-0.103570042391074,-0.0209731045066889
3.412,-0.103230428734713,-0.0213599243922155
3.414,-0.102932046989788,-0.0217842937690991
3.416,-0.10273436866385,-0.0222207337979436
3.418,-0.102615263605692,-0.0226765954746081
3.42,-0.102573173429408,-0.0231627936314765
3.422,-0.102636763038225,-0.0236535004637805
3.424,-0.102770142068167,-0.024153853724063
3.426,-0.103006639401508,-0.0246493832767225
3.428,-0.103308221960079,-0.0251409188356846
3.43,-0.103693623858331,-0.0256233453041962
3.432,-0.104189002626248,-0.0261034926756924
3.434,-0.104747729502069,-0.0265411843848036
3.436,-0.105387093484843,-0.0269811360074868
3.438,-0.106131795606747,-0.0273478683072454
3.44,-0.106932898915315,-0.0277257887445102
3.442,-0.107829302205395,-0.0280386768850755
3.444,-0.108784249541002,-0.0283070054287369
3.446,-0.109826672006934,-0.0285235640119866
3.448,-0.110947679870294,-0.0286841882608652
3.45,-0.112110779081751,-0.0287962754939478
3.452,-0.113359798466694,-0.0288288692154222
3.454,-0.114649016196179,-0.0288127968183464
3.456,-0.116020013307762,-0.0287044354479808
3.458,-0.117431948286086,-0.0285718620453249
3.46,-0.118867613293375,-0.0282987103106916
3.462,-0.12038586472974,-0.0279621916775298
3.464,-0.121925242583315,-0.0275484974762831
3.466,-0.12350658914024,-0.02703975524846
3.468,-0.125126650394509,-0.0264468730507953
3.47,-0.12674876337962,-0.0257643879795774
3.472,-0.128395629189117,-0.0249889112851271
3.474,-0.13006522556393,-0.0241108777563834
3.476,-0.131746571637626,-0.0231572929156884
3.478,-0.133429314921446,-0.0220877390636532
3.48,-0.135105237115048,-0.0209152596242444
3.482,-0.136778688814277,-0.0196277728599487
3.484,-0.138442911741791,-0.0182817950271627
3.486,-0.140076590407562,-0.0168209687516594
3.488,-0.141706178351227,-0.0152542980742589
3.49,-0.143283728062493,-0.0135914380566426
3.492,-0.144839099365232,-0.0118369188273103
3.494,-0.146344631853395,-0.0099760922877207
3.496,-0.147827822552865,-0.008041072568537
3.498,-0.149237552793101,-0.0059917004261169
3.5,-0.150619561868695,-0.00385982684906814
3.502,-0.151914228556824,-0.0016638746950349
3.504,-0.153150403694503,0.000644961332373802
3.506,-0.154309270945821,0.0030171460065141
3.508,-0.155380516928933,0.0054863568204342
3.51,-0.156406351543048,0.0080174414494722
3.512,-0.157342644105218,0.0106058600036368
3.514,-0.158171772717046,0.0132532553899
3.516,-0.158932481821291,0.0160016891742318
3.518,-0.159567615318324,0.0188082469435331
3.52,-0.160133893442516,0.0216468751773474
3.522,-0.160556767408488,0.0245184801994514
3.524,-0.16091071653727,0.0274502775092149
3.526,-0.161169622052351,0.0304152011528455
3.528,-0.161303897585635,0.0334144326434167
3.53,-0.161314463403279,0.0364158304107345
3.532,-0.161234798271471,0.0395012870510371
3.534,-0.160998549562063,0.0425285091264984
3.536,-0.160677365378135,0.0456049046315535
3.538,-0.160253490199494,0.048702195783074
3.54,-0.15968790644802,0.0517449025544222
3.542,-0.159009822693001,0.0548171616220213
3.544,-0.15822006074631,0.0578705117662127
3.546,-0.15732331822755,0.0608907830055896
3.548,-0.156325099479099,0.0639149294002344
3.55,-0.155154254001067,0.0668800127528438
3.552,-0.153920706726199,0.0697905990115516
3.554,-0.152557921154678,0.0726806431486826
3.556,-0.151110551818874,0.0755315957582487
3.558,-0.149539316538016,0.0783273925062887
3.56,-0.147846505332794,0.0810635819490024
3.562,-0.146082223079887,0.0837096487607256
3.564,-0.144200639566437,0.0863141424217101
3.566,-0.142239090814482,0.0888193826656854
3.568,-0.14017748981527,0.0912520800172709
3.57,-0.138043181543569,0.0936253067092099
3.572,-0.135820255781901,0.0958875776793531
3.574,-0.133499222844728,0.0980749271875179
3.576,-0.131128685592573,0.10014021500213
3.578,-0.128692955176098,0.102111881296669
3.58,-0.126181837480155,0.103992177205946
3.582,-0.123618507337755,0.105763874522169
3.584,-0.120997982724027,0.107427477710838
3.586,-0.118351405495117,0.108976831606425
3.588,-0.115629631292043,0.11042064687789
3.59,-0.112896383799549,0.111745470293994
3.592,-0.110146102726871,0.112957092728416
3.594,-0.107364378185522,0.114043340294679
3.596,-0.104553862288621,0.115012537250888
3.598,-0.101739909074576,0.115860036284302
3.6,-0.098916713701798,0.116590816145643
3.602,-0.096098984473316,0.117211613593311
3.604,-0.093296730001454,0.117724342007309
3.606,-0.090486702120802,0.118093617073068
3.608,-0.087721639773851,0.118333305095005
3.61,-0.0849566346245481,0.118485761939927
3.612,-0.0822448111328813,0.118533874030241
3.614,-0.07956114582643,0.118435005126968
3.616,-0.0769263486539138,0.118250523212559
3.618,-0.0743261302487556,0.117941374383539
3.62,-0.0717807854425832,0.117551111002946
3.622,-0.0693050437188115,0.11704220983256
3.624,-0.0669044752261408,0.116474431154985
3.626,-0.0645722002121196,0.115785334895515
3.628,-0.0622990886266849,0.115015189173809
3.63,-0.0601091325857032,0.114150153525369
3.632,-0.0579853559145401,0.113187415742858
3.634,-0.0559660013016142,0.112194446957207
3.636,-0.0540527122320088,0.111108361278514
3.638,-0.052204062091026,0.109961531726804
3.64,-0.0504784360878427,0.108754185482567
3.642,-0.0488366610291157,0.107500348667104
3.644,-0.0472845222226463,0.106197177309696
3.646,-0.0458428137510528,0.104838126418607
3.648,-0.0445323585754769,0.103451365206864
3.65,-0.0433012414193152,0.10203564008786
3.652,-0.0421944701919752,0.100584846765508
3.654,-0.0411772977226551,0.099132926622948
3.656,-0.0402888528441943,0.097687034236621
3.658,-0.0394913491069053,0.096193969345148
3.66,-0.0388370254124804,0.094729662114507
3.662,-0.0382677936079445,0.093252411363842
3.664,-0.0378089572696043,0.091820046363797
3.666,-0.0374728582870947,0.090379403135651
3.668,-0.0372213364474271,0.088986739951292
3.67,-0.0370858534991147,0.087608079007007
3.672,-0.0370352765863519,0.086274309083068
3.674,-0.0371035947431932,0.084984146171169
3.676,-0.0372433318578499,0.083728829331703
3.678,-0.0375067463070144,0.082546857540789
3.68,-0.0378380861202285,0.081427007717218
3.682,-0.0382431421543316,0.080373245879147
3.684,-0.0387560152379687,0.079373673120662
3.686,-0.0393433713561483,0.078466156528165
3.688,-0.039985901424882,0.077618248876555
3.69,-0.0407089428058625,0.076859748145286
3.692,-0.0414969965812549,0.076184272294221
3.694,-0.042315653448515,0.075607271829341
3.696,-0.0432240738053013,0.075107831388246
3.698,-0.0441485415744635,0.074731793765544
3.7,-0.045121795319104,0.07444197225803
3.702,-0.0461393197327052,0.074259627459723
3.704,-0.0471880466993483,0.074181956556724
3.706,-0.0482581498460189,0.074215571971918
3.708,-0.0493253888189834,0.074320859409536
3.71,-0.0504072485465514,0.0745576354995
3.712,-0.0515029922901272,0.074880102381676
3.714,-0.052583505382879,0.075351779369918
3.716,-0.0536564138794147,0.075894669725981
3.718,-0.0547202162981621,0.076559382723269
3.72,-0.0557486647949527,0.077331714100434
3.722,-0.0567658246120388,0.078203517724807
3.724,-0.057734250464209,0.079183077465697
3.726,-0.0586604004159882,0.080275565987529
3.728,-0.0595543294219552,0.081426791152823
3.73,-0.0603620782731279,0.082741619585062
3.732,-0.0611418661135063,0.084115578171342
3.734,-0.0618408770266625,0.085548226124959
3.736,-0.0624751703924823,0.087113870147801
3.738,-0.0630280845039857,0.088741311752591
3.74,-0.0635111488342767,0.090455874355037
3.742,-0.0639026840935766,0.09223347996579
3.744,-0.064202547306405,0.0940969096923
3.746,-0.0644195328088577,0.095994368100493
3.748,-0.0645221573059832,0.09798342670637
3.75,-0.064541706249317,0.099995917847433
3.752,-0.0644331673944924,0.102102145383967
3.754,-0.0642223967589863,0.104215430140228
3.756,-0.0639063170800003,0.106369030545486
3.758,-0.0634872888224503,0.108551999782918
3.76,-0.0629300403570652,0.110764013033421
3.762,-0.0622423409986571,0.112990181939226
3.764,-0.0614586074344565,0.115241144866489
3.766,-0.0605510857126317,0.117478309894577
3.768,-0.0595220443308991,0.119718700067851
3.77,-0.0583636337052739,0.121960413771864
3.772,-0.0571254546489708,0.124156665123422
3.774,-0.0557116486214071,0.126349499663994
3.776,-0.0542042685573638,0.128516144600683
3.778,-0.0525616417462697,0.130641765771911
3.78,-0.0508229800516254,0.132706824722047
3.782,-0.0489644455405656,0.134748306503885
3.784,-0.0469873601235603,0.136724905627062
3.786,-0.0448913996942462,0.13862895959731
3.788,-0.0427014009294181,0.140479612365673
3.79,-0.0404115064591455,0.142241883037565
3.792,-0.0380508079870407,0.143945573371754
3.794,-0.0355286313306623,0.145542571719247
3.796,-0.0329480615820813,0.147052993612083
3.798,-0.0302822548385669,0.148459878802006
3.8,-0.0275491967434468,0.149780697159077
3.802,-0.0247185660370908,0.150986071810191
3.804,-0.021823151888064,0.152075445037454
3.806,-0.0188644490644245,0.153061431236585
3.808,-0.0158405385351475,0.153921639045074
3.81,-0.0127710760117502,0.154666204890413
3.812,-0.00966276676001705,0.155284078398143
3.814,-0.00649293974190983,0.155788761769862
3.816,-0.00327844727862824,0.156165820831147
3.818,-6.57490908157702E-05,0.156353159229396
3.82,0.00316679521107112,0.156449701251597
3.822,0.00642307962325717,0.156408021152044
3.824,0.00968634032844094,0.156245417869941
3.826,0.0129587191994711,0.155925644496983
3.828,0.0161866627963591,0.155502528374835
3.83,0.0194293188041134,0.154899151812572
3.832,0.0226417350629344,0.15420648825403
3.834,0.025821586327221,0.153341536795142
3.836,0.0289750497289614,0.152363448091143
3.838,0.0320670003169229,0.151259923513797
3.84,0.0351442508746799,0.150000551428522
3.842,0.0381315940665272,0.148626741751449
3.844,0.0410504496931687,0.147128426916506
3.846,0.043917229477273,0.145528543772342
3.848,0.046683897618873,0.143807187859313
3.85,0.0493876222105855,0.141947835356336
3.852,0.052003793082659,0.14000377855777
3.854,0.0545266364178963,0.137952659920213
3.856,0.0569490250163614,0.135806742369251
3.858,0.0592617579299444,0.133580793996237
3.86,0.061484674116777,0.131276072484943
3.862,0.0635703051854504,0.12887305727826
3.864,0.0655525482290784,0.126399189874821
3.866,0.0674204962692071,0.123821489695613
3.868,0.0691453817295446,0.121226896660543
3.87,0.0707400815195121,0.118569653605022
3.872,0.0722393259476653,0.115859353094482
3.874,0.0735655820149071,0.113096084489894
3.876,0.0747842814475539,0.110319081951267
3.878,0.0758356907902417,0.10748975208313
3.88,0.0767577056286352,0.104654372606695
3.882,0.0775584186920098,0.101795876618816
3.884,0.0782300921856259,0.098957570980439
3.886,0.0787629464929743,0.096090858929021
3.888,0.0791445958578174,0.093265112743479
3.89,0.0793826503160879,0.090450554359916
3.892,0.0795299155176088,0.087640374064054
3.894,0.0794763782976607,0.084877057663631
3.896,0.0793250109683541,0.08213931583488
3.898,0.0790509204998694,0.0794387507899227
3.9,0.0786493456315106,0.076815523423221
3.902,0.0781126114925812,0.0742530356580452
3.904,0.0774663609231329,0.0717403713229138
3.906,0.0766936498045004,0.0693060105080863
