"Freq [GHz]","re(S(Antenna1_1_p1,Antenna1_1_p1)) []","im(S(Antenna1_1_p1,Antenna1_1_p1)) []"
3,0.0966950463343872,-0.091024461176587
3.002,0.0959275179679999,-0.0926208394171278
3.004,0.0951039478239265,-0.094202376592213
3.006,0.0942463107915175,-0.0957767395962325
3.008,0.0933365369890517,-0.0973406911862777
3.01,0.0923832960822745,-0.0988970868446913
3.012,0.0913885572759965,-0.100429501700945
3.014,0.0903495046227069,-0.10194775963184
3.016,0.0892666149671895,-0.103455865687087
3.018,0.0881451046942424,-0.104944817020679
3.02,0.0869753314243935,-0.106404493143505
3.022,0.0857699502706598,-0.107838386496112
3.024,0.0845237983653809,-0.109249771886568
3.026,0.0832400785301175,-0.110631976194792
3.028,0.0819229798935956,-0.111987138902353
3.03,0.0805636049147071,-0.113312225284811
3.032,0.0791769132036373,-0.114608116686385
3.034,0.0777463523320112,-0.11587228566426
3.036,0.0762942464901525,-0.117102076698279
3.038,0.0748155246254368,-0.118286201115175
3.04,0.0733055412617017,-0.119439505455268
3.042,0.071764886034807,-0.120561454291676
3.044,0.07020266824424,-0.121644797381039
3.046,0.0686145595998701,-0.122678591748736
3.048,0.067010601901786,-0.123681141676616
3.05,0.0653835341102692,-0.124631824933254
3.052,0.063736810316858,-0.125549900955705
3.054,0.06208174795155,-0.126426611008839
3.056,0.0604013374441328,-0.127266124299182
3.058,0.0587232097476504,-0.128053950882212
3.06,0.0570198737717762,-0.12880846394834
3.062,0.0553129855661629,-0.129511613208313
3.064,0.0536037854602852,-0.130175694361263
3.066,0.0518828987138716,-0.130810040382194
3.068,0.0501644210970752,-0.131389885806156
3.07,0.0484448498779626,-0.1319275573949
3.072,0.0467199253244154,-0.132428970075082
3.074,0.0450104082227382,-0.132892687154131
3.076,0.0432921831190651,-0.133314335528602
3.078,0.0415821737913133,-0.133694090241142
3.08,0.0398666531292896,-0.134040320292073
3.082,0.0381732472130308,-0.13434508117449
3.084,0.036478788894247,-0.134612684689999
3.086,0.0348045332979667,-0.134844290073127
3.088,0.0331391375834046,-0.135045297300151
3.09,0.0314920581839499,-0.135211055234669
3.092,0.029857111628368,-0.135342545934825
3.094,0.0282298595512107,-0.135442060506958
3.096,0.0266248627314003,-0.135522334407094
3.098,0.0250353583059856,-0.135558026559897
3.1,0.0234618279771464,-0.135575976903316
3.102,0.0219158615553232,-0.13556426119108
3.104,0.0203766152238112,-0.135535161098592
3.106,0.018871300845891,-0.135474664815469
3.108,0.0173784897730803,-0.135384366318813
3.11,0.0159076786169295,-0.135288508533959
3.112,0.0144586233742531,-0.135160452438783
3.114,0.0130304519225584,-0.135024094107964
3.116,0.0116274192017158,-0.134866597954207
3.118,0.0102409901278076,-0.13470214364237
3.12,0.0088746543041886,-0.134508359374044
3.122,0.0075413053568488,-0.134311916833156
3.124,0.0062253107438793,-0.134109396746503
3.126,0.0049326969922858,-0.133880779431957
3.128,0.0036542755069227,-0.133666443829773
3.13,0.0024100699847671,-0.133424361842722
3.132,0.00116849116032008,-0.133184704902102
3.134,-4.20555257159994E-05,-0.132940363545731
3.136,-0.00122767495747901,-0.132689067857617
3.138,-0.00240907920882517,-0.132442767253332
3.14,-0.0035549374799235,-0.132197154427134
3.142,-0.00469287040365577,-0.13194036291381
3.144,-0.00580864307569778,-0.131694546267205
3.146,-0.00690144110045118,-0.131431397136471
3.148,-0.00799623508063422,-0.131189538749098
3.15,-0.00906928612971211,-0.130948076010622
3.152,-0.010121104022063,-0.130708377414115
3.154,-0.011168742882823,-0.13047010436937
3.156,-0.0121981534825792,-0.130240589033885
3.158,-0.0132276945117657,-0.130025140654539
3.16,-0.0142407587418068,-0.129799189695072
3.162,-0.015242327147004,-0.129588338346263
3.164,-0.0162356828932148,-0.12939130800596
3.166,-0.0172249697481991,-0.12919255217077
3.168,-0.0182127678767878,-0.129007118383574
3.17,-0.0191827441627379,-0.128833410119821
3.172,-0.020156878744165,-0.128662161747584
3.174,-0.021134871063902,-0.128498755479355
3.176,-0.0221143401408904,-0.128341875725713
3.178,-0.0230792659041646,-0.128191652237705
3.18,-0.0240411235823719,-0.128060042622031
3.182,-0.0250273320473407,-0.127920714331046
3.184,-0.0260046261586394,-0.127791628014555
3.186,-0.0269796473370488,-0.127680279814373
3.188,-0.0279638437345233,-0.12757617309175
3.19,-0.0289625277314359,-0.127469802083557
3.192,-0.0299627887596117,-0.127377149790312
3.194,-0.0309668469590576,-0.127286277664998
3.196,-0.0319883973834375,-0.127199101472725
3.198,-0.0330085447482961,-0.127112529431217
3.2,-0.0340449393609762,-0.127035187920068
3.202,-0.0350969518663491,-0.126960473875932
3.204,-0.036154855336184,-0.126883077331445
3.206,-0.0372306124023099,-0.126807667253038
3.208,-0.0383187830004999,-0.126734395964586
3.21,-0.0394150149610784,-0.12666310684689
3.212,-0.0405314908792741,-0.126579987233009
3.214,-0.0416591709392763,-0.126499578203442
3.216,-0.0428061029210783,-0.126417722915167
3.218,-0.0439704622259802,-0.126332178388524
3.22,-0.0451454893828896,-0.126235973844005
3.222,-0.0463405590953105,-0.126130267331815
3.224,-0.0475434100671017,-0.126032697694418
3.226,-0.0487735060659182,-0.12591318522285
3.228,-0.0500181350674161,-0.125780265282554
3.23,-0.0512719275662065,-0.125641394160907
3.232,-0.0525415692184913,-0.125483998515325
3.234,-0.0538345386064804,-0.125327630418903
3.236,-0.055144790042483,-0.125139443263659
3.238,-0.0564748133188185,-0.124937429882569
3.24,-0.0578148687783694,-0.124730596382458
3.242,-0.0591702331449061,-0.124497420679793
3.244,-0.0605385160681684,-0.124245770290981
3.246,-0.061916745330613,-0.123970502312128
3.248,-0.0633152563059803,-0.123679494636137
3.25,-0.0647249926314992,-0.123361296829781
3.252,-0.0661550998089234,-0.123022976769633
3.254,-0.0675827807112231,-0.122663161862938
3.256,-0.0690325341920309,-0.122272373350383
3.258,-0.0704885323888637,-0.121857031269805
3.26,-0.071954396948013,-0.121411624946794
3.262,-0.0734310083192309,-0.120935976341253
3.264,-0.0749138654241025,-0.120436557451867
3.266,-0.0764037989911733,-0.119913879322483
3.268,-0.0778981812088425,-0.119351953144469
3.27,-0.0793905450579247,-0.118752084854985
3.272,-0.08090331165003,-0.118137428880156
3.274,-0.0824018901405963,-0.117477608718265
3.276,-0.0839044526287412,-0.116779496273829
3.278,-0.0854061965087944,-0.116066767368619
3.28,-0.0869007142805796,-0.115307191477684
3.282,-0.0884128013424739,-0.114522646380279
3.284,-0.0898983865441423,-0.113701838855745
3.286,-0.0913920634751687,-0.112845157462387
3.288,-0.0928641476799109,-0.111955408673274
3.29,-0.0943448002056762,-0.111030107023023
3.292,-0.0958031675471712,-0.110069060744529
3.294,-0.0972644708404589,-0.109083932098683
3.296,-0.098690903592602,-0.108055990146055
3.298,-0.100129747469017,-0.106991271000541
3.3,-0.101535024053485,-0.105894565176977
3.302,-0.102929672301401,-0.104765825403783
3.304,-0.104299439395971,-0.103608063967499
3.306,-0.105657432218186,-0.102414278069395
3.308,-0.106985952378481,-0.101194796405012
3.31,-0.108298283483183,-0.099936737014678
3.312,-0.109586600981738,-0.0986503048871005
3.314,-0.110852677606602,-0.0973371827708205
3.316,-0.112092370687956,-0.0960021042957823
3.318,-0.113303347841156,-0.0946202303178324
3.32,-0.114489435013918,-0.0932219240882342
3.322,-0.115639275741244,-0.0918043016391902
3.324,-0.116758086813161,-0.0903596487483709
3.326,-0.117854766205144,-0.0888808490234426
3.328,-0.118916754617334,-0.0873846458715907
3.33,-0.119930193785514,-0.0858812376561052
3.332,-0.120932854236803,-0.0843359473658989
3.334,-0.121890630299151,-0.0827695220311291
3.336,-0.122814425982604,-0.0812052801537856
3.338,-0.123702069759247,-0.0796169719362834
3.34,-0.124544275644002,-0.0780172637691442
3.342,-0.125360733773126,-0.0764009525188365
3.344,-0.126132334039499,-0.0747720799640825
3.346,-0.126878667608659,-0.0731382752627003
3.348,-0.127573690315631,-0.0714904193501129
3.35,-0.128235439951474,-0.069838830281455
3.352,-0.128856404652631,-0.0681874717698617
3.354,-0.129446568055032,-0.0665232693224176
3.356,-0.129985452253974,-0.0648575344968962
3.358,-0.130492776234741,-0.0631942588973293
3.36,-0.130959373747048,-0.0615253804209887
3.362,-0.131385910135194,-0.0598628264004171
3.364,-0.131785044878034,-0.0582054671695198
3.366,-0.132140398018697,-0.0565556632786916
3.368,-0.132463527831099,-0.0549136000630128
3.37,-0.132743268429204,-0.0532823953434807
3.372,-0.133001055103098,-0.0516580686353162
3.374,-0.133199411012788,-0.0500320261833304
3.376,-0.133384347422842,-0.0484312016393154
3.378,-0.133529794798772,-0.0468474045885588
3.38,-0.13364941011918,-0.0452629925883595
3.382,-0.133730627480734,-0.0437098137916676
3.384,-0.133779816813887,-0.0421696705357444
3.386,-0.133820089874414,-0.040652804166935
3.388,-0.133808130111689,-0.0391430703054745
3.39,-0.133783848180798,-0.0376640329853831
3.392,-0.133728513133399,-0.0362119943074763
3.394,-0.133653150942402,-0.0347784254353839
3.396,-0.133550882680427,-0.0333605616957036
3.398,-0.133427397593331,-0.0319683426431993
3.4,-0.133292092895188,-0.0305973915131265
3.402,-0.133134534562933,-0.0292605933466012
3.404,-0.132959464790057,-0.0279497745190835
3.406,-0.132765613350559,-0.0266697578239242
3.408,-0.132566173367336,-0.02540070408005
3.41,-0.132351970586074,-0.0241626668866889
3.412,-0.132130399199713,-0.0229474149542155
3.414,-0.131894061645788,-0.0217640259430991
3.416,-0.13165961934085,-0.0206031755299436
3.418,-0.131411149372692,-0.0194774418026081
3.42,-0.131167703721408,-0.0183712001904765
3.422,-0.130910900102225,-0.0172941794057805
3.424,-0.130665075219167,-0.016233343764063
3.426,-0.130413635202508,-0.0152066462087225
3.428,-0.130164381760079,-0.0141981013186846
3.43,-0.129922079267331,-0.0132134991031962
3.432,-0.129686509160248,-0.0122537225466924
3.434,-0.129446755922069,-0.0113135228228036
3.436,-0.129226219589843,-0.0103928648364868
3.438,-0.129007137212747,-0.0094937579202454
3.44,-0.128802773980315,-0.0086256166355102
3.442,-0.128611172172395,-0.0077428453250755
3.444,-0.128427593329002,-0.0069054707027369
3.446,-0.128259322048934,-0.00607510272198661
3.448,-0.128107671663294,-0.0052502417728652
3.45,-0.127959027311751,-0.00444484954294775
3.452,-0.127841075091694,-0.00364635415742222
3.454,-0.127741824519179,-0.00285979960144643
3.456,-0.127635143832762,-0.00207679862488083
3.458,-0.127565240519086,-0.00130322761572494
3.46,-0.127512324715375,-0.000530889513691626
3.462,-0.12747230747374,0.00022920049447019
3.464,-0.127456513943315,0.00099836015071692
3.466,-0.12745150656624,0.00176653866654004
3.468,-0.127466227313509,0.00254005734820474
3.47,-0.12750071049862,0.0033135645334226
3.472,-0.127550927464117,0.00408489623787292
3.474,-0.12762280409193,0.00486934084561661
3.476,-0.127704873872626,0.0056687648343116
3.478,-0.127823134725446,0.0064754040393468
3.48,-0.127928407396248,0.0072955203387556
3.482,-0.128048509317277,0.0081228633040513
3.484,-0.128201483005791,0.0089692846468373
3.486,-0.128369413441562,0.0098295642163406
3.488,-0.128531332087227,0.0107135014207411
3.49,-0.128704213012493,0.0116048174813574
3.492,-0.128905061143232,0.0125350522316897
3.494,-0.129097396365395,0.0134744619462793
3.496,-0.129305934840865,0.014442513041463
3.498,-0.129515976377101,0.0154221151788831
3.5,-0.129724858721695,0.0164322855029319
3.502,-0.129956238329824,0.0174723965879651
3.504,-0.130160756281503,0.0185374280793738
3.506,-0.130374686570821,0.0196286943365141
3.508,-0.130595493139933,0.0207471881804342
3.51,-0.130797057947448,0.0218931066594722
3.512,-0.130998088483018,0.0230639856936368
3.514,-0.131193994447446,0.0242700493699
3.516,-0.131385355143291,0.0255062656742318
3.518,-0.131539401034324,0.0267697566735331
3.52,-0.131701602774516,0.0280535935173474
3.522,-0.131846823372488,0.0293700844604514
3.524,-0.13196923022927,0.0307121584222149
3.526,-0.132075892243351,0.0320801625588455
3.528,-0.132155186720635,0.0334934583294167
3.53,-0.132218230545279,0.0349100125577345
3.532,-0.132245979377471,0.0363681561990371
3.534,-0.132255849171063,0.0378393757214984
3.536,-0.132235166327135,0.0393376635615535
3.538,-0.132174886029494,0.040864200587104
3.54,-0.13208949499102,0.0424150037304222
3.542,-0.131979056282001,0.0439790899680213
3.544,-0.13181830283931,0.0455541243792127
3.546,-0.13162418944255,0.0471642963325896
3.548,-0.131393971186099,0.0487740006862344
3.55,-0.131131712256067,0.0504016161748438
3.552,-0.130828304605199,0.0520491777875516
3.554,-0.130477535914678,0.0537052629566826
3.556,-0.130079258668874,0.0553698840662487
3.558,-0.129654322518016,0.0570328057782887
3.56,-0.129165044562794,0.0587047133950024
3.562,-0.128640564299887,0.0603815049557256
3.564,-0.128067535086437,0.0620535376134101
3.566,-0.127458056734482,0.0637262940182854
3.568,-0.12679517871527,0.0654021267343709
3.57,-0.126082301753569,0.0670624905382099
3.572,-0.125325512581901,0.0687155709213531
3.574,-0.124525065674728,0.0703568749985179
3.576,-0.123671387282573,0.0719920645641303
3.578,-0.122779154776098,0.073604513370669
3.58,-0.121845010320155,0.0752117815889463
3.582,-0.120861405087755,0.0767820684191691
3.584,-0.119833485928027,0.078342429518838
3.586,-0.118765950909117,0.0798725240314247
3.588,-0.117640481666043,0.0813794488178896
3.59,-0.116493923968549,0.0828572038599944
3.592,-0.115301846902871,0.0843128797594159
3.594,-0.114060600098522,0.0857127670146786
3.596,-0.112788503096021,0.0871010557328876
3.598,-0.111492493639576,0.0884582423343024
3.6,-0.110147734146798,0.0897601391626428
3.602,-0.108781341010316,0.091032397957311
3.604,-0.107382905916454,0.0922626532673087
3.606,-0.105944729633802,0.0934355655830682
3.608,-0.104494304587851,0.0945791679350054
3.61,-0.103011038785548,0.0956689455199266
3.612,-0.101496632951881,0.0967237039202414
3.614,-0.09998257026443,0.0977254947269679
3.616,-0.0984415787979138,0.0986843194925591
3.618,-0.0968828293965556,0.099593060733539
3.62,-0.0953129529870832,0.100444384582946
3.622,-0.0937385381315115,0.10126550195256
3.624,-0.0921419416581408,0.102021456534985
3.626,-0.0905441827771196,0.102729132295515
3.628,-0.0889486749116849,0.103384986873809
3.63,-0.0873571144277032,0.103984758995369
3.632,-0.0857603945785401,0.104540350772858
3.634,-0.0841638341856142,0.105067611257207
3.636,-0.0825787181310088,0.105521672518514
3.638,-0.081001115882026,0.105930844436804
3.64,-0.0794371361288427,0.106294094242567
3.642,-0.0778816371171157,0.106624544810104
3.644,-0.0763455737796463,0.106895416927696
3.646,-0.0748371366630528,0.107113614205606
3.648,-0.0733407550674769,0.107308634824864
3.65,-0.0718648243583152,0.10744122110486
3.652,-0.0704152913449752,0.107544408958808
3.654,-0.0689752558886551,0.107614939511948
3.656,-0.0675821340241943,0.107662614120621
3.658,-0.0662190259469053,0.107644814589148
3.66,-0.0648820750724804,0.107604997076507
3.662,-0.0635825494579445,0.107533460197842
3.664,-0.0623070815096043,0.107436602104797
3.666,-0.0610722010670947,0.107319782964651
3.668,-0.0598785351574271,0.107167721511292
3.67,-0.0587152988491147,0.106992696812007
3.672,-0.0575834110963519,0.106806397050168
3.674,-0.0565050392031932,0.106591483545169
3.676,-0.0554556102378499,0.106377896741003
3.678,-0.0544549547570144,0.106143777722789
3.68,-0.0534889670402285,0.105904583094218
3.682,-0.0525574208143316,0.105648171247147
3.684,-0.0516599195879687,0.105404440398662
3.686,-0.0508104327661483,0.105141871676165
3.688,-0.050004884444882,0.104883399798555
3.69,-0.0492226802958625,0.104627682678286
3.692,-0.0484922722712549,0.104378250061221
3.694,-0.047795914588515,0.104132307951341
3.696,-0.0471194960753013,0.103900872786246
3.698,-0.0465050249944635,0.103693950206544
3.7,-0.045909117071104,0.10348306333803
3.702,-0.0453545720457052,0.103293941404723
3.704,-0.0448214577273483,0.103137074944724
3.706,-0.0443124805120189,0.102972724381918
3.708,-0.0438390837379834,0.102844545159536
3.71,-0.0433874233852514,0.1027331838995
3.712,-0.0429635772321272,0.102658701911676
3.714,-0.042565998879879,0.102604306849918
3.716,-0.0421837776854147,0.102575472245981
3.718,-0.0418055884711621,0.102585468523269
3.72,-0.0414735293259527,0.102619588770434
3.722,-0.0411193478590388,0.102684305084807
3.724,-0.040794689354209,0.102780980705697
3.726,-0.0404677255571882,0.102911084657529
3.728,-0.0401615807734552,0.103084954672823
3.73,-0.0398457041228279,0.103287947165062
3.732,-0.0395289606005063,0.103517431941342
3.734,-0.0392189963816625,0.103780972934959
3.736,-0.0388986193794823,0.104084343147801
3.738,-0.0385717553219857,0.104413050182591
3.74,-0.0382398427162767,0.104787630055037
3.742,-0.0378933193865766,0.10518358938579
3.744,-0.037525865758405,0.1056191964423
3.746,-0.0371557919778577,0.106060635470493
3.748,-0.0367405361059832,0.10656679556637
3.75,-0.036334484954317,0.107078939057433
3.752,-0.0358999184274924,0.107632454633967
3.754,-0.0354215759829863,0.108208792341228
3.756,-0.0349305674180003,0.108800103851486
3.758,-0.0344074470924503,0.109427275125918
3.76,-0.0338378060570652,0.110066441126421
3.762,-0.0332502563986571,0.110729933189226
3.764,-0.0326234419244565,0.111405295356489
3.766,-0.0319637278226317,0.112101779097677
3.768,-0.0312482773808991,0.112805275473851
3.77,-0.0305338809952739,0.113526336421864
3.772,-0.0297445080689708,0.114253172978422
3.774,-0.0289172648814071,0.114975374601994
3.776,-0.0280653496573638,0.115708167518683
3.778,-0.0271622679862697,0.116453133936911
3.78,-0.0262072660916254,0.117173595648047
3.782,-0.0252316405305656,0.117897670297875
3.784,-0.0241796578135603,0.118621925991162
3.786,-0.0230990349142462,0.11932787289231
3.788,-0.0219824195194182,0.120020821346673
3.79,-0.0208124165091455,0.120705134952565
3.792,-0.0196015472070407,0.121365963743754
3.794,-0.0183607729606623,0.122001808277247
3.796,-0.0170698693220813,0.122617042750083
3.798,-0.0157336027785669,0.123212220242006
3.8,-0.0143600360634468,0.123778044397077
3.802,-0.0129620664870908,0.124307128391191
3.804,-0.011503507408064,0.124807248550454
3.806,-0.0100440209044245,0.125272854756585
3.808,-0.00851782216914746,0.125683278128074
3.81,-0.00697187355475023,0.126067576410413
3.812,-0.00539856804901705,0.126410477628143
3.814,-0.00378704196990983,0.126709907979862
3.816,-0.00216183638062824,0.126946438541147
3.818,-0.000515033308815771,0.127161916819396
3.82,0.00115078850307112,0.127323947901597
3.822,0.00284783928225717,0.127420023442044
3.824,0.00454811728294094,0.127475961579941
3.826,0.0062637747974711,0.127472041616983
3.828,0.0080050897563591,0.127410366884835
3.83,0.0097369141701134,0.127309946732572
3.832,0.0114754421759344,0.12715272538403
3.834,0.013220576471921,0.126915830135142
3.836,0.0149625967811614,0.126635050501143
3.838,0.0166997660402229,0.126304509393797
3.84,0.0184255009366799,0.125912380138522
3.842,0.0201515514995272,0.125467573001449
3.844,0.0218603165981687,0.124976784616506
3.846,0.023546537293273,0.124419803492342
3.848,0.025221628817873,0.123806915159313
3.85,0.0268761317785855,0.123147453286336
3.852,0.028516843663659,0.12244756070777
3.854,0.0301133195278963,0.121667858950213
3.856,0.0316856457903614,0.120845431469251
3.858,0.0332295724139444,0.119987724206237
3.86,0.034736385413777,0.119072973304943
3.862,0.0362011968634504,0.11812451004826
3.864,0.0376339033790784,0.117125632654821
3.866,0.0390196557292071,0.116085953174613
3.868,0.0403681590195446,0.115006366509543
3.87,0.0416837086095121,0.113896175330022
3.872,0.0429406926476653,0.112752760105482
3.874,0.0441431188549071,0.111561912384894
3.876,0.0452959791875539,0.110358782495267
3.878,0.0464005114902417,0.10911818714313
3.88,0.0474557991986352,0.107866364891995
3.882,0.0484611065120098,0.106594314193816
3.884,0.0494001898856259,0.105290271059439
3.886,0.0502892748329743,0.103983919147021
3.888,0.0511387796178174,0.102661267320579
3.89,0.0519010768460879,0.101332027682916
3.892,0.0526416323976088,0.099994745189054
3.894,0.0533123256176607,0.098649547582631
3.896,0.0539244650583541,0.09730405482088
3.898,0.0544756896398694,0.0959757063829227
3.9,0.0549802604415106,0.094646046500221
3.902,0.0554327775325812,0.0933142910100452
3.904,0.0558287515731329,0.0920062630299138
