"Freq [GHz]","re(S(Antenna1_1_p1,Antenna1_1_p1)) []","im(S(Antenna1_1_p1,Antenna1_1_p1)) []"
3,0.115402442722387,-0.114346328776587
3.002,0.113304040333,-0.116985239099128
3.004,0.111115325401926,-0.119539498968213
3.006,0.108815634055518,-0.122009688221833
3.008,0.106422696640052,-0.124389340166078
3.01,0.103944930873274,-0.126671762122891
3.012,0.101385736585997,-0.128853779077245
3.014,0.0987351037637069,-0.13093125982384
3.016,0.0960187822981895,-0.132902843193087
3.018,0.0932201082192424,-0.134760030706679
3.02,0.0903760642563935,-0.136510938542505
3.022,0.0874641053006598,-0.138121271059112
3.024,0.0845039153163809,-0.139621135899568
3.026,0.0815072788681175,-0.140994571294792
3.028,0.0784759137005956,-0.142244908036353
3.03,0.0754163683167071,-0.143374724868811
3.032,0.0723278444694373,-0.144368513761385
3.034,0.0692166446370112,-0.14525463466926
3.036,0.0661104800091525,-0.145977031574279
3.038,0.0629884487284368,-0.146591491205175
3.04,0.0598764498727017,-0.147066020567268
3.042,0.056778846779807,-0.147423444691676
3.044,0.05369704641324,-0.147652023604039
3.046,0.0506510814238701,-0.147754868122736
3.048,0.047622254097786,-0.147730596516616
3.05,0.0446411473322692,-0.147589159792254
3.052,0.041690316941858,-0.147331286480705
3.054,0.03880213207155,-0.146944868593839
3.056,0.0359607902901328,-0.146471067520182
3.058,0.0332071226836504,-0.145862634420212
3.06,0.0304999656289762,-0.14516371631134
3.062,0.0278635445175629,-0.144367202922313
3.064,0.0253198056692852,-0.143468961187263
3.066,0.0228553103764716,-0.142498402099194
3.068,0.0204713873080752,-0.141422785813156
3.07,0.0181924222539626,-0.1402797309689
3.072,0.0159965892494154,-0.139061923743082
3.074,0.0139047751297382,-0.137773623331131
3.076,0.0119185995950651,-0.136433250518602
3.078,0.0100356081953133,-0.135026761027142
3.08,0.0082609572552896,-0.133579971204073
3.082,0.0065955723600308,-0.13209529856649
3.084,0.005038077230247,-0.130568455188999
3.086,0.00359748744796669,-0.129020554102327
3.088,0.00227468306240459,-0.127446693592151
3.09,0.0010542730259499,-0.125860306514669
3.092,-3.89586696320013E-05,-0.124260387023825
3.094,-0.0010259981667893,-0.122671423524958
3.096,-0.0018997097155997,-0.121082017742094
3.098,-0.0026735489370144,-0.119497479678897
3.1,-0.0033243610558536,-0.117944912956316
3.102,-0.0038559372436768,-0.11642693672408
3.104,-0.0042898729711888,-0.114923089857592
3.106,-0.004624896141109,-0.113468644766469
3.108,-0.0048699726999197,-0.112039337057813
3.11,-0.0049871587800705,-0.110695381011959
3.112,-0.0050363934317469,-0.109384637986783
3.114,-0.0049937115644416,-0.108154746471964
3.116,-0.0048577857582842,-0.106973978832707
3.118,-0.0046566430251924,-0.10587384757327
3.12,-0.0043681983398114,-0.104847719650144
3.122,-0.0040189629201512,-0.103908099064856
3.124,-0.0035919651081207,-0.103054050716503
3.126,-0.0031135974997142,-0.102283175103957
3.128,-0.0025853490850773,-0.101609986517773
3.13,-0.0020076239982329,-0.101034553281722
3.132,-0.00138851525667992,-0.100555333934102
3.134,-0.000746163207716,-0.100176122008731
3.136,-6.63073164790095E-05,-0.099902360805617
3.138,0.00063262751817483,-0.099736905091332
3.14,0.0013275606440765,-0.099657524489134
3.142,0.00204823295464423,-0.09971319326881
3.144,0.00276783984030222,-0.099861455876205
3.146,0.00347737997354882,-0.100108269022471
3.148,0.00417325692136578,-0.100474914393098
3.15,0.00485415306528789,-0.100920697626622
3.152,0.00549643696693698,-0.101501907273115
3.154,0.00610491296217696,-0.10216931774237
3.156,0.0066823212284208,-0.102939619981885
3.158,0.00720286596223433,-0.103811273274539
3.16,0.0076747630581932,-0.104769153666072
3.162,0.008084902742996,-0.105821103862263
3.164,0.0084342935897852,-0.10695718555596
3.166,0.0087086821828009,-0.10818335179377
3.168,0.0089083422222122,-0.109491849982574
3.17,0.0090284326292621,-0.110861710405821
3.172,0.009060016341635,-0.112315131699584
3.174,0.009004819289098,-0.113827432028355
3.176,0.0088491201794096,-0.115400173410713
3.178,0.0086012331044354,-0.117030788844705
3.18,0.0082443068166281,-0.118698841423031
3.182,0.0077651633156593,-0.120410128668046
3.184,0.0072046399753606,-0.122161652656555
3.186,0.0065204387909512,-0.123947563154373
3.188,0.0057225863264767,-0.12574988969475
3.19,0.0048099517625641,-0.127576194911557
3.192,0.00378639197438831,-0.129399609781312
3.194,0.0026353032099424,-0.131235450224998
3.196,0.0013706221085625,-0.133057514376325
3.198,-1.98773302960975E-05,-0.134866528122217
3.2,-0.0015160541079762,-0.136659093770068
3.202,-0.0031373491073491,-0.138441651273932
3.204,-0.004870678933184,-0.140169818814445
3.206,-0.0067326758223099,-0.141880822217038
3.208,-0.00870213488349991,-0.143512014910586
3.21,-0.0107813625270784,-0.14512448131289
3.212,-0.0129738764042741,-0.146659340151009
3.214,-0.0152711944462763,-0.148133027646442
3.216,-0.0176688104730783,-0.149533821097167
3.218,-0.0201749751619802,-0.150859199099524
3.22,-0.0227625908758896,-0.152095617990005
3.222,-0.0254364431113105,-0.153245718256815
3.224,-0.0282147273361017,-0.154304271381418
3.226,-0.0310636375569182,-0.15526150592985
3.228,-0.0339963506564161,-0.156110245773954
3.23,-0.0369991217702065,-0.156855751322507
3.232,-0.0400572819734913,-0.157483066982175
3.234,-0.0431718817374804,-0.157996749848403
3.236,-0.046368110185483,-0.158387784506159
3.238,-0.0495781180388185,-0.158665298930569
3.24,-0.0528539027023694,-0.158807051637458
3.242,-0.0561413868799061,-0.158831239123793
3.244,-0.0594775940821684,-0.158708770817981
3.246,-0.062824925049613,-0.158459559900128
3.248,-0.0661932207499803,-0.158089882802137
3.25,-0.0695594851894992,-0.157574553967781
3.252,-0.0729208742517234,-0.156922958412633
3.254,-0.0762793557222231,-0.156141325413938
3.256,-0.0796214378430309,-0.155225493870383
3.258,-0.0829387263878637,-0.154169736851805
3.26,-0.086226099329013,-0.152983384068794
3.262,-0.0894639614352309,-0.151661643372253
3.264,-0.0926924973461025,-0.150221041742867
3.266,-0.0958585482231733,-0.148652820550483
3.268,-0.0989599389588425,-0.146954254073469
3.27,-0.101999784270925,-0.145134755907985
3.272,-0.10496295827403,-0.143197728947156
3.274,-0.107864118040596,-0.141149366270265
3.276,-0.110680606991741,-0.138984356451829
3.278,-0.113411124837794,-0.136728271390619
3.28,-0.11607018788858,-0.134354898988684
3.282,-0.118595207103474,-0.131895399360279
3.284,-0.121062929831142,-0.129341404860745
3.286,-0.123397200259069,-0.126694425655387
3.288,-0.125612724702811,-0.123981117388274
3.29,-0.127737831894976,-0.121179528101023
3.292,-0.129737742763971,-0.118318346241529
3.294,-0.131617158412459,-0.115393719342683
3.296,-0.133357943465602,-0.112414030551055
3.298,-0.135001004869017,-0.109373971965541
3.3,-0.136494204786485,-0.106309370853977
3.302,-0.137867317867401,-0.103198848793783
3.304,-0.139116937313971,-0.100056525425499
3.306,-0.140214707098186,-0.0969141618243946
3.308,-0.141203831188481,-0.0937407115926116
3.31,-0.142053010606183,-0.090558269775678
3.312,-0.142772099011738,-0.0873877689431005
3.314,-0.143357021510602,-0.0841797760468205
3.316,-0.143805020088956,-0.0810265311807823
3.318,-0.144124815759156,-0.0778874712508324
3.32,-0.144333455664918,-0.0747490807642342
3.322,-0.144389757486244,-0.0716546997251902
3.324,-0.144333353294161,-0.0686214987223709
3.326,-0.144167091735144,-0.0656053089964426
3.328,-0.143876484505334,-0.0626614449885907
3.33,-0.143465734154514,-0.0597641347691052
3.332,-0.142957541889803,-0.0569288820358989
3.334,-0.142344261059151,-0.0541727103631291
3.336,-0.141620665884604,-0.0514823200597856
3.338,-0.140798863555247,-0.0488668161782834
3.34,-0.139886225170002,-0.0463377095931442
3.342,-0.138903444820126,-0.0439183100396365
3.344,-0.137814282381499,-0.0415557239424825
3.346,-0.136671796416659,-0.0393165526945703
3.348,-0.135456040716631,-0.0371536354557129
3.35,-0.134151031372474,-0.035095663291455
3.352,-0.132805851796631,-0.0331605959218617
3.354,-0.131415961624032,-0.0313181273704176
3.356,-0.129962350127974,-0.0295895196428962
3.358,-0.128480617997741,-0.0279769788063293
3.36,-0.126980146464048,-0.0264749820079887
3.362,-0.125447197873194,-0.0250972130044171
3.364,-0.123889014355834,-0.0238053857405198
3.366,-0.122299340301697,-0.0226562388086916
3.368,-0.120750213253099,-0.0216025380080128
3.37,-0.119142937800204,-0.0206832406934807
3.372,-0.117581699819098,-0.0198700957953162
3.374,-0.116035969116788,-0.0191654906383304
3.376,-0.114491575760842,-0.0185731759113154
3.378,-0.112983400639772,-0.0180775715165588
3.38,-0.11150860184718,-0.0177063008493595
3.382,-0.110073870500734,-0.0174443182276676
3.384,-0.108684903039887,-0.0172681715517444
3.386,-0.107327710243414,-0.017203066603935
3.388,-0.106044002216689,-0.0172183000584745
3.39,-0.104821806268798,-0.0173296891413831
3.392,-0.103665985339399,-0.0175255371504763
3.394,-0.102578376155402,-0.0178130418153839
3.396,-0.101573856207427,-0.0181640928677036
3.398,-0.100648697626031,-0.0185892966411993
3.4,-0.099792404807788,-0.0190995268921265
3.402,-0.099047556471073,-0.0196499422596012
3.404,-0.098376875401757,-0.0202527377060835
3.406,-0.097807736688559,-0.0209301791179242
3.408,-0.097335516658336,-0.02163439907605
3.41,-0.096951340681074,-0.0223727705666889
3.412,-0.096693333534713,-0.0231669200712155
3.414,-0.096517038459788,-0.0239756130420991
3.416,-0.09645457599385,-0.0248120709169436
3.418,-0.096478705315692,-0.0256227829466081
3.42,-0.096648533999408,-0.0264780520143765
3.422,-0.096905832108225,-0.0273253333397805
3.424,-0.097266159308167,-0.028181236188063
3.426,-0.097733138191508,-0.0289991928867225
3.428,-0.098286514560079,-0.0298067040276846
3.43,-0.098978961408331,-0.0305861198311962
3.432,-0.099759857166248,-0.0313421377516924
3.434,-0.100647678782069,-0.0320505722208036
3.436,-0.101607386314843,-0.0327389151274868
3.438,-0.102699751506747,-0.0333294270672454
3.44,-0.103866713255315,-0.0339101682445102
3.442,-0.105129572035395,-0.0344017604350755
3.444,-0.106477221081002,-0.0348269233687369
3.446,-0.107903947056934,-0.0351871619219866
3.448,-0.109419655810294,-0.0354686302408652
3.45,-0.110992274491751,-0.0356610755239478
3.452,-0.112648708786694,-0.0357741297154222
3.454,-0.114352956316179,-0.0357821950783464
3.456,-0.116137483837762,-0.0357026923079808
3.458,-0.117960383916086,-0.0355453067353249
3.46,-0.119824973643375,-0.0352443611706916
3.462,-0.12175153606974,-0.0348668163275298
3.464,-0.123703240383315,-0.0343672012562831
3.466,-0.12570063349024,-0.03375049110846
3.468,-0.127698131004509,-0.0330395563907953
3.47,-0.12972034084362,-0.0321930299095774
3.472,-0.131767213507117,-0.0312419808851271
3.474,-0.13379954084293,-0.0301682580863834
3.476,-0.135830365038026,-0.0289875584056884
3.478,-0.137869221867446,-0.0276677731436532
3.48,-0.139881055506248,-0.0262325753842444
3.482,-0.141861875192277,-0.0246754116599487
3.484,-0.143831259260791,-0.0230162263571627
3.486,-0.145756657511562,-0.0212395343816594
3.488,-0.147643963095227,-0.0193298257342589
3.49,-0.149477642046493,-0.0173154546366426
3.492,-0.151246733715232,-0.0151919282373103
3.494,-0.152965586123395,-0.0129514029277207
3.496,-0.154611146542865,-0.010625339968537
3.498,-0.156191446833101,-0.0081802757461169
3.5,-0.157690818738695,-0.00564939485906814
3.502,-0.159101866126824,-0.0030112889150349
3.504,-0.160416735234503,-0.000272796747626199
3.506,-0.161635108595821,0.0025377493665141
3.508,-0.162755583918933,0.0054240490604342
3.51,-0.163775860863048,0.0083992412894722
3.512,-0.164680692195218,0.0114314805736368
3.514,-0.165465988827046,0.0145242690799
3.516,-0.166162034611291,0.0176940013942318
3.518,-0.166704212448324,0.0209264428535331
3.52,-0.167131596562516,0.0241994604573474
3.522,-0.167438983068488,0.0274983644694514
3.524,-0.16762084343727,0.0308429311492149
3.526,-0.167660542412351,0.0341866063178455
3.528,-0.167576756305635,0.0375688593904167
3.53,-0.167336230663279,0.0409763947187345
3.532,-0.166988154761471,0.0443789220812371
3.534,-0.166482108312063,0.0477921268674984
3.536,-0.165859252418135,0.0511847816275535
3.538,-0.165091744339494,0.054568189137104
3.54,-0.16418610687802,0.0579329598864222
3.542,-0.163149242803001,0.0612736554310213
3.544,-0.16200097221631,0.0645646534312127
3.546,-0.16067630528755,0.0678311502745896
3.548,-0.159258401939099,0.0710355560922344
3.55,-0.157691568471067,0.0741942986728438
3.552,-0.156012695646199,0.0772759762915516
3.554,-0.154209066684678,0.0803028438486826
3.556,-0.152303128508874,0.0832345823182487
3.558,-0.150265440478016,0.0861174123862887
3.56,-0.148122861822794,0.0888999968790024
3.562,-0.145881992229887,0.0915738761007256
3.564,-0.143551380906437,0.0941662840917101
3.566,-0.141109144564482,0.0966598262956854
3.568,-0.13859705243527,0.0990348007472709
3.57,-0.135988171473569,0.10130012123921
3.572,-0.133304118571901,0.103455775959353
3.574,-0.130542764744728,0.105494019087518
3.576,-0.127720559242573,0.10739499751213
3.578,-0.124817367836098,0.109189099006669
3.58,-0.121910370310155,0.110839758165946
3.582,-0.118916319686755,0.112363750792169
3.584,-0.115930058795027,0.113750764030838
3.586,-0.112881473394117,0.115010238556425
3.588,-0.109810153092043,0.11612138255789
3.59,-0.106743760935249,0.117110553433994
3.592,-0.103643942320871,0.117960325638416
3.594,-0.100555299433522,0.118668121664679
3.596,-0.097459997715021,0.119235090970888
3.598,-0.094398368731576,0.119672165864302
3.6,-0.091362688506798,0.119983672725643
3.602,-0.088317790604316,0.120138633463311
3.604,-0.085333474659454,0.120187463417309
3.606,-0.082376556320802,0.120086515643068
3.608,-0.079476546073851,0.119862266105005
3.61,-0.0766248340645481,0.119521358789927
3.612,-0.0738303064828813,0.119060813730241
3.614,-0.07111214253643,0.118475209216968
3.616,-0.0684656830739138,0.117786983522559
3.618,-0.0658984578587556,0.116987039073539
3.62,-0.0634059109725832,0.116089081512946
3.622,-0.0610153812088115,0.11508931697256
3.624,-0.0587135803461408,0.114000372914985
3.626,-0.0565114764121196,0.112825371335515
3.628,-0.0544178241566849,0.111575682033809
3.63,-0.0524229821657032,0.110239590735369
3.632,-0.0505293774945401,0.108818634112858
3.634,-0.0487656717016142,0.107376065157207
3.636,-0.0471233980220088,0.105858727588514
3.638,-0.045579416491026,0.104325201107804
3.64,-0.0442016522878427,0.102714449860567
3.642,-0.0429072602991157,0.101054856752104
3.644,-0.0417323884826463,0.0993848344516958
3.646,-0.0406888318410528,0.0977057576922065
3.648,-0.0397882405054769,0.0960067623008645
3.65,-0.0389881669093152,0.0943230093228599
3.652,-0.0383405849719752,0.092614084995808
3.654,-0.0378122356326551,0.090896531766948
3.656,-0.0374068434741943,0.089243647117621
3.658,-0.0371153238769053,0.087581965537148
3.66,-0.0369705155524804,0.085959540200507
3.662,-0.0369043036979445,0.084373767235842
3.664,-0.0369702960096043,0.082846498923797
3.666,-0.0371727683370947,0.081355018075651
3.668,-0.0374690898674271,0.079927785611292
3.67,-0.0378612548491147,0.078563172297007
3.672,-0.0383415108163519,0.077279160093068
3.674,-0.0389547837831932,0.076050296161169
3.676,-0.0396390183878499,0.074915180711703
3.678,-0.0404170880170144,0.073865937410789
3.68,-0.0412726777802285,0.072900811147218
3.682,-0.0421839317443316,0.072042820539147
3.684,-0.0431983333179687,0.071277887020662
3.686,-0.0442646039761483,0.070619299148165
3.688,-0.045378371844882,0.070068272046555
3.69,-0.0465306727558625,0.069619360645286
3.692,-0.0477635587312549,0.069301000834221
3.694,-0.049000344734515,0.069087533729341
3.696,-0.0502858659053013,0.069001267898246
3.698,-0.0515847200294635,0.069011871475544
3.7,-0.052911608359104,0.06916713866803
3.702,-0.0542464121439352,0.069441598609723
3.704,-0.0555774578343483,0.069838641216724
3.706,-0.0568920495060189,0.070364108151918
3.708,-0.0582075177749834,0.070990347379536
3.71,-0.0594963135372514,0.0717521473395
3.712,-0.0607556158581272,0.072625920541676
3.714,-0.061981859707879,0.073638116639918
3.716,-0.0631590073204147,0.074740738855981
3.718,-0.0642949199021621,0.075975153803269
3.72,-0.0653592844049527,0.077311595320434
3.722,-0.0663796949920388,0.078751234944807
3.724,-0.067311928314209,0.080301242605697
3.726,-0.0681840092059882,0.081952616317529
3.728,-0.0689778670219552,0.083675528402823
3.73,-0.0696702898731279,0.085530778325062
3.732,-0.0702779269435063,0.087461864331342
3.734,-0.0707768175966625,0.089434008874959
3.736,-0.0711836032024823,0.091548006077801
3.738,-0.0714970698539857,0.093693453452591
3.74,-0.0716684116842767,0.095914241295037
3.742,-0.0717374688635766,0.09816767677579
3.744,-0.071696581236405,0.1004908867823
3.746,-0.0715146764188577,0.102819830820493
3.748,-0.0712160895559832,0.10525344319637
3.75,-0.070818832129317,0.107664948327433
3.752,-0.0702558387644924,0.110128925695967
3.754,-0.0695589851389863,0.112593110095228
3.756,-0.0687479400800003,0.115070895652486
3.758,-0.0678107666324503,0.117530916707518
3.76,-0.0667205220070652,0.120001156221421
3.762,-0.0655026492786571,0.122469955341226
3.764,-0.0641557473344565,0.124895076157489
3.766,-0.0626772318826317,0.127301107590677
3.768,-0.0610716872808991,0.129675888408851
3.77,-0.0593664884352739,0.131987626936864
3.772,-0.0574729582789708,0.134242482051422
3.774,-0.0554690992214071,0.136467338732994
3.776,-0.0533757926473638,0.138610027540683
3.778,-0.0511445646662697,0.140683112041911
3.78,-0.0488038779016254,0.142685926122047
3.782,-0.0463949453405656,0.144606743173885
3.784,-0.0437965182135603,0.146410959337062
3.786,-0.0411386359942462,0.14813259601731
3.788,-0.0383877551394181,0.149754118175673
3.79,-0.0355483551191455,0.151265491127565
3.792,-0.0326426344870407,0.152663972801754
3.794,-0.0296542789606623,0.153982051379247
3.796,-0.0265456019620813,0.155107980852083
3.798,-0.0234148263985669,0.156148887472006
3.8,-0.0202266258234468,0.157056377399077
3.802,-0.0169811647370908,0.157863602990191
3.804,-0.013660628428064,0.158470314837454
3.806,-0.0103507618044245,0.158996923986585
3.808,-0.00695843749114746,0.159311240595074
3.81,-0.00356885056675023,0.159538524580413
3.812,-0.00018076265801705,0.159624428798143
3.814,0.00324344560609017,0.159556306799862
3.816,0.00667332965637176,0.159344059171147
3.818,0.0100689773001842,0.158966698959396
3.82,0.0134572475010711,0.158464782231597
3.822,0.0168240329782572,0.157825031592044
3.824,0.0201470204109409,0.157072789479941
3.826,0.0234718629714711,0.156149657036983
3.828,0.0267212404793591,0.155048257994835
3.83,0.0299218144561134,0.153840311302572
3.832,0.0330721209729344,0.15256958245403
3.834,0.036143892167221,0.151061658325142
3.836,0.0391404705289614,0.149466128271143
3.838,0.0420714143869229,0.147770279473797
3.84,0.0449258432346799,0.145903848778522
3.842,0.0476739237965272,0.143975367631449
3.844,0.0503240081431687,0.141922527696506
3.846,0.052863234917273,0.139797769482342
3.848,0.055301131398873,0.137540558739313
3.85,0.0576369750905855,0.135188449496336
3.852,0.059853014332659,0.13276396225777
3.854,0.0619342170578963,0.130256957280213
3.856,0.0639015106363614,0.127687070509251
3.858,0.0657573660099444,0.125064571886237
3.86,0.067452777536777,0.122369139514943
3.862,0.0690168055754504,0.11961173424826
3.864,0.0704622441990784,0.116842585569821
3.866,0.0717488241092071,0.113985828863613
3.868,0.0729036837395446,0.111138374768543
3.87,0.0739239127095121,0.108281138181022
3.872,0.0747919195576653,0.105391092740682
3.874,0.0755099248349071,0.102477066231894
3.876,0.0761077678175539,0.099602131646267
3.878,0.0765364608202417,0.09669275306913
3.88,0.0768423363586352,0.093840022575995
3.882,0.0770124271720098,0.090996065459816
3.884,0.0770467051456259,0.088187281501439
3.886,0.0769396973429743,0.085405820124021
3.888,0.0767248541778174,0.082685351054479
3.89,0.0763557058260879,0.080004693469916
3.892,0.0758677066276088,0.077398028324054
3.894,0.0752199706776607,0.074851555253631
3.896,0.0744985634183541,0.07237388234488
3.898,0.0736501090898694,0.0699714359699227
3.9,0.0727185494015106,0.067672781103221
3.902,0.0716459696425812,0.0654519272180452
3.904,0.0705147948631329,0.0633071546729138
3.906,0.0692405824945004,0.0613126941880863
