"Freq [GHz]","re(S(Antenna1_1_p1,Antenna1_1_p1)) []","im(S(Antenna1_1_p1,Antenna1_1_p1)) []"
3,0.137001674162387,-0.073388341626587
3.002,0.137275914823,-0.0772580380191278
3.004,0.137367752051927,-0.081188738208213
3.006,0.137295087635518,-0.0851662209018325
3.008,0.137031381530052,-0.0891767923710777
3.01,0.136464664803275,-0.0930919510228913
3.012,0.135959378235996,-0.0972728909542454
3.014,0.135047967073707,-0.10121260972474
3.016,0.134041875418189,-0.105280672243087
3.018,0.132945662519242,-0.109456362201679
3.02,0.131561884546394,-0.113472870502505
3.022,0.12998475708066,-0.117455585119112
3.024,0.128222271366381,-0.121398194129568
3.026,0.126282723933118,-0.125303648994792
3.028,0.124156912667596,-0.129137267616353
3.03,0.121866931165707,-0.132903568558811
3.032,0.119387534084637,-0.136556418101385
3.034,0.116734778845011,-0.13998646669926
3.036,0.113935741163152,-0.143631908184279
3.038,0.110965348443437,-0.146976793635175
3.04,0.107838053950702,-0.150229774537268
3.042,0.104567036012807,-0.153342048871676
3.044,0.10115047855324,-0.156314839634039
3.046,0.0976044885938701,-0.159160811482736
3.048,0.093925676447786,-0.161849150916616
3.05,0.0901389903022692,-0.164375953252254
3.052,0.086231915501858,-0.166735638800705
3.054,0.08222782582155,-0.168930005563839
3.056,0.0781380508501328,-0.170970769970182
3.058,0.0739565159536504,-0.172792583470212
3.06,0.0698230156689762,-0.17430619513134
3.062,0.0654034795075629,-0.175910810532313
3.064,0.0610386786572852,-0.177184990947263
3.066,0.0566380121284716,-0.178266906049194
3.068,0.0521964567044752,-0.179146886183156
3.07,0.0477366277619626,-0.1798265340889
3.072,0.0432713874724154,-0.180320395963082
3.074,0.0388036064687382,-0.180614110621131
3.076,0.0343510811550651,-0.180706913418602
3.078,0.0300668237553133,-0.180538742392142
3.08,0.0256816398052896,-0.180245966420073
3.082,0.0211638955000308,-0.17980627563249
3.084,0.016844225710247,-0.179127844300999
3.086,0.0127939829479667,-0.178224328358127
3.088,0.0084459666024046,-0.177206322316151
3.09,0.0043683170459499,-0.175977743085669
3.092,0.000391081260367999,-0.174570442053825
3.094,-0.0033300417267893,-0.173006344661958
3.096,-0.0072593136155997,-0.171271651373094
3.098,-0.0109191754970144,-0.169381584708897
3.1,-0.0144484113358536,-0.167343561046316
3.102,-0.0178168535236768,-0.16518011979408
3.104,-0.0210672139411888,-0.162882577897592
3.106,-0.024167537511109,-0.160449221466469
3.108,-0.0271177925199197,-0.157915985417813
3.11,-0.0298769075200705,-0.155267173131959
3.112,-0.0324842161417469,-0.152523230376783
3.114,-0.0349158481044416,-0.149706733651964
3.116,-0.0371807001182842,-0.146796983652707
3.118,-0.0392493458851924,-0.14381644655427
3.12,-0.0411547738798114,-0.140812657753144
3.122,-0.0428557862001512,-0.137739983831856
3.124,-0.0443836407281207,-0.134650099245103
3.126,-0.0457278916897142,-0.131528309686957
3.128,-0.0468739759550773,-0.128398410497773
3.13,-0.0478321640582329,-0.125272644741722
3.132,-0.0486048084466799,-0.122155112014102
3.134,-0.049192077930716,-0.119057676678731
3.136,-0.049535145282479,-0.116157809385617
3.138,-0.0498063800948252,-0.112959805631332
3.14,-0.0498524673399235,-0.109999047049134
3.142,-0.0497172418676558,-0.10708662985881
3.144,-0.0494125262636978,-0.104257811926205
3.146,-0.0489436390274512,-0.101507769842471
3.148,-0.0483092438896342,-0.098852056253098
3.15,-0.0475375151897121,-0.096293031476622
3.152,-0.046603846423063,-0.093856547283115
3.154,-0.045532313227823,-0.09151459907237
3.156,-0.0443407821815792,-0.089336964861885
3.158,-0.0430172825977657,-0.087278161974539
3.16,-0.0415641950318068,-0.085337637696072
3.162,-0.040037304847004,-0.083585570242263
3.164,-0.0384030256902148,-0.08196991414596
3.166,-0.0366614914171991,-0.08051071481377
3.168,-0.0348661060077878,-0.079216810612574
3.17,-0.0329780303207379,-0.078091662955821
3.172,-0.031168818068365,-0.077277313439584
3.174,-0.029204980698902,-0.076507268038355
3.176,-0.0270781760635904,-0.075772222600713
3.178,-0.0250264492365646,-0.075353436094705
3.18,-0.0229876805353719,-0.075107684973031
3.182,-0.0209365020183407,-0.075064851828046
3.184,-0.0188841997716394,-0.075178587546555
3.186,-0.0168745476190488,-0.075466762354373
3.188,-0.0148790493935233,-0.07596570329075
3.19,-0.0130859820574359,-0.076698473872557
3.192,-0.0110207558956117,-0.077462284598312
3.194,-0.0091825205200576,-0.078472924801998
3.196,-0.0075927217614375,-0.079690817896725
3.198,-0.0057306157802961,-0.080993777088217
3.2,-0.0043304501779762,-0.082500502978068
3.202,-0.0026739335873491,-0.084124320866932
3.204,-0.001488335343184,-0.085926812637445
3.206,-4.44226723098975E-05,-0.087855179627038
3.208,0.00106604928650009,-0.089929397250586
3.21,0.0020597336229216,-0.09211900544289
3.212,0.0028907678257259,-0.094414495671009
3.214,0.0034013713637237,-0.096786713166442
3.216,0.0041072818869217,-0.099344181267167
3.218,0.0044591087880198,-0.101928273549524
3.22,0.0046510142741104,-0.104623300770005
3.222,0.0046673507486895,-0.107376277416815
3.224,0.0044848974738983,-0.110185669351418
3.226,0.0041589123130818,-0.11304691151985
3.228,0.0035955010035839,-0.115925423873954
3.23,0.0028887390997935,-0.118857135569507
3.232,0.0018166630665087,-0.121643121270175
3.234,0.000831555872519596,-0.124706367528503
3.236,-0.000465922855482991,-0.127643513457159
3.238,-0.00197322512881849,-0.130576963621569
3.24,-0.0036634229023694,-0.133448408457458
3.242,-0.0055573368699061,-0.136284545923793
3.244,-0.00763244368916841,-0.139071479797981
3.246,-0.00988621318661299,-0.141805032160128
3.248,-0.0124014608219803,-0.144265771352137
3.25,-0.0150241902624992,-0.146831774487781
3.252,-0.0177711645169234,-0.149474061312633
3.254,-0.0207541489592231,-0.151851293653938
3.256,-0.0238947171020309,-0.154090800330383
3.258,-0.0271902962498637,-0.156219959231805
3.26,-0.030642242782013,-0.158020027398794
3.262,-0.0342344788252309,-0.160061671642253
3.264,-0.0379686248561025,-0.161742794272867
3.266,-0.0418334676431733,-0.163279825480483
3.268,-0.0458067932988425,-0.164645057713469
3.27,-0.0498972583009247,-0.165827134837985
3.272,-0.05410559251403,-0.166854045997156
3.274,-0.0584023883605963,-0.167692214960265
3.276,-0.0627489107117412,-0.168298878441829
3.278,-0.0671922604777944,-0.168736101330619
3.28,-0.0717048027785796,-0.168964137618684
3.282,-0.0762468021034739,-0.168989783370279
3.284,-0.0808308493311423,-0.168812331070745
3.286,-0.0854526205170687,-0.168413050225387
3.288,-0.0899189345768109,-0.167648788288274
3.29,-0.0947122938806762,-0.166988900721023
3.292,-0.0993211317799712,-0.165948173771529
3.294,-0.103950295073459,-0.164703690142683
3.296,-0.108529587895602,-0.163262981981055
3.298,-0.113063293239017,-0.161587224045541
3.3,-0.117548005716485,-0.159707793755977
3.302,-0.121959336417401,-0.157630866051783
3.304,-0.126300203163971,-0.155336605460499
3.306,-0.130554326198186,-0.152845433456395
3.308,-0.134712491928481,-0.150177085549012
3.31,-0.138759132906183,-0.147306654751678
3.312,-0.142705333381738,-0.1442440427101
3.314,-0.146479433420602,-0.141025089430821
3.316,-0.149943066968956,-0.137614489179782
3.318,-0.153672744289156,-0.134065744430832
3.32,-0.156824130644918,-0.130367471054234
3.322,-0.160231452366244,-0.12649313050519
3.324,-0.163266345164161,-0.122497265152371
3.326,-0.166134430845144,-0.118366971696443
3.328,-0.168773456905334,-0.114123871918591
3.33,-0.171259116784514,-0.109775186729105
3.332,-0.173537532509803,-0.105332573985899
3.334,-0.175635216639151,-0.100778003773129
3.336,-0.177497707864604,-0.0961931107097856
3.338,-0.179166742145247,-0.0915037214082834
3.34,-0.180634568870002,-0.0867529988331442
3.342,-0.181868863530126,-0.0819918910356365
3.344,-0.182884722921499,-0.0771873818654825
3.346,-0.183712016136659,-0.0723479776592703
3.348,-0.184293608266631,-0.0675211775147129
3.35,-0.184660683292474,-0.062703530202455
3.352,-0.184821823556631,-0.0578839035918617
3.354,-0.184651977434032,-0.0532705260904176
3.356,-0.184486833762974,-0.0483445093828962
3.358,-0.184005216215741,-0.0436435484563293
3.36,-0.183311338759048,-0.0390082889279887
3.362,-0.182424574814194,-0.0344293115444171
3.364,-0.181288173207034,-0.0301542495405198
3.366,-0.180049997347697,-0.0255319066786916
3.368,-0.178586298230099,-0.0212727171480128
3.37,-0.176896415921204,-0.0172896937834807
3.372,-0.175078953630098,-0.0130168967053162
3.374,-0.173097809636788,-0.0093153917383304
3.376,-0.170944111660842,-0.0053218049613154
3.378,-0.168659903129772,-0.0019048971365588
3.38,-0.16616487202718,0.0017884666306405
3.382,-0.163643943750734,0.0049124851523324
3.384,-0.160882106319887,0.0082697683482556
3.386,-0.158046409943414,0.011239255516065
3.388,-0.155130322946689,0.0140297067815255
3.39,-0.152210716498798,0.0164337146986169
3.392,-0.149105208829399,0.0188634454595237
3.394,-0.145808960035402,0.0212891707446161
3.396,-0.142583636597427,0.0232755934622964
3.398,-0.139283606380031,0.0251272400288007
3.4,-0.135965040200788,0.0267421281878735
3.402,-0.132747721158273,0.0280173922403988
3.404,-0.129229610951757,0.0293828288239165
3.406,-0.125848000804559,0.0303989291920758
3.408,-0.122482677108336,0.03120492250395
3.41,-0.119143781171074,0.0318138587633111
3.412,-0.115806184054713,0.0322091902377845
3.414,-0.112525266029788,0.0324154210079009
3.416,-0.10928979218385,0.0324268193660564
3.418,-0.106332834295692,0.0321875923253919
3.42,-0.103254873939408,0.0318240267685235
3.422,-0.100037614648225,0.0313514729362195
3.424,-0.097107108598167,0.030619935525937
3.426,-0.094322785281508,0.0297437675102775
3.428,-0.091593736860079,0.0286860461053154
3.43,-0.089254445438331,0.0274650569388038
3.432,-0.086586683506248,0.0261216526183076
3.434,-0.084250833102069,0.0246175585991964
3.436,-0.082099935664843,0.0229715069425132
3.438,-0.080091700106747,0.0212193916927546
3.44,-0.078228100695315,0.0193505264354898
3.442,-0.076565499455395,0.0173791183949245
3.444,-0.075035553511002,0.0153099484912631
3.446,-0.073722290306934,0.0131770989480134
3.448,-0.072571565900294,0.0109403975691348
3.45,-0.071600674571751,0.00867425658605225
3.452,-0.071003886956694,0.00644037406457778
3.454,-0.070412918206179,0.00407769283865357
3.456,-0.069829375627762,0.00153072066901917
3.458,-0.069618462746086,-0.00093726570912494
3.46,-0.069626793603375,-0.00332320782169163
3.462,-0.06980523496974,-0.00575221079952981
3.464,-0.070167099973315,-0.00816906073628308
3.466,-0.07075155320024,-0.01057065388846
3.468,-0.071522820384509,-0.0129043049807953
3.47,-0.07246384422762,-0.0152033761495774
3.472,-0.073611078198117,-0.0174498478351271
3.474,-0.07493224343093,-0.0196156321863834
3.476,-0.076429580436626,-0.0216982063256884
3.478,-0.078100527160446,-0.0236945530636532
3.48,-0.079929017071248,-0.0255728829442444
3.482,-0.081939593410277,-0.0273377646799487
3.484,-0.084099804609791,-0.0290387764271627
3.486,-0.086397687891562,-0.0305384998616594
3.488,-0.088835659125227,-0.0319255102642589
3.49,-0.091419047886493,-0.0331641314066426
3.492,-0.094109215265232,-0.0342503425773103
3.494,-0.096928040973395,-0.0351696938977207
3.496,-0.099857654772865,-0.035922553288537
3.498,-0.102874033463101,-0.0365233676461169
3.5,-0.105876657198695,-0.0366786797390681
3.502,-0.109136889216824,-0.0371175442150349
3.504,-0.112392988724503,-0.0371253331876262
3.506,-0.115672748915821,-0.0369497906634859
3.508,-0.119015467128933,-0.0365802196695658
3.51,-0.122393639682048,-0.0359979980905278
3.512,-0.125795561973218,-0.0352370087663632
3.514,-0.129170798235046,-0.0342374390101
3.516,-0.132602849902291,-0.0330658482257682
3.518,-0.135973784143324,-0.0316768611664669
3.52,-0.139359085456516,-0.0300774066926526
3.522,-0.142667125458488,-0.0282793561405486
3.524,-0.14595543102727,-0.0262715228007851
3.526,-0.148944834522351,-0.0239538750571545
3.528,-0.152321378825635,-0.0216788895355833
3.53,-0.155161892483279,-0.0190072349232655
3.532,-0.158365294041471,-0.0163073267379629
3.534,-0.161222580512063,-0.0133485111775016
3.536,-0.163978440568135,-0.0102036183594465
3.538,-0.166625387469494,-0.006882743670896
3.54,-0.16885815264802,-0.0033920838585778
3.542,-0.171466193453001,0.000236396821021299
3.544,-0.17367412335631,0.0040152767212127
3.546,-0.17571713497755,0.0079495833045896
3.548,-0.177609210819099,0.0120369535122344
3.55,-0.179276759361067,0.0162246052728438
3.552,-0.180808470266199,0.0205426664015516
3.554,-0.182159827494678,0.0249805009586826
3.556,-0.183263563098874,0.0294831888182487
3.558,-0.184201516938016,0.0340965188962887
3.56,-0.184921065472794,0.0387615145090024
3.562,-0.185225271619887,0.0434031482207256
3.564,-0.185739384396437,0.0483197691817101
3.566,-0.185818845714482,0.0531668549856854
3.568,-0.18569766761527,0.0580515848442709
3.57,-0.185323557363569,0.0629487962062099
3.572,-0.184752405441901,0.0678380434396531
3.574,-0.183934238324728,0.0727341554655179
3.576,-0.182901116282573,0.0776111390981303
3.578,-0.181659399036098,0.082489307656669
3.58,-0.180166079530155,0.0872655499859463
3.582,-0.178350103507755,0.0918106006521691
3.584,-0.176565745574027,0.096716438770838
3.586,-0.174442466990117,0.101332866426425
3.588,-0.172107232987043,0.10587565437789
3.59,-0.169505314089549,0.110044024613994
3.592,-0.166782787569871,0.114361421008416
3.594,-0.163896108871522,0.118831661454679
3.596,-0.160777021333021,0.122915556390888
3.598,-0.157473843371576,0.126844302464302
3.6,-0.154010100846798,0.130631642935643
3.602,-0.150361853574316,0.134267189783311
3.604,-0.146587386799454,0.137469799307309
3.606,-0.142618529210802,0.141027885113068
3.608,-0.138535625573851,0.144115578625005
3.61,-0.134324755834548,0.147033910929927
3.612,-0.129990571132881,0.149754924800241
3.614,-0.12553788968643,0.152296146066968
3.616,-0.121005257513914,0.154587768632559
3.618,-0.116381915498756,0.156686324393539
3.62,-0.111687237912583,0.158562294872946
3.622,-0.106921685558811,0.16020706944256
3.624,-0.102088658065141,0.161660134984985
3.626,-0.0974258647941196,0.162665803955515
3.628,-0.0923685980973849,0.163843844823809
3.63,-0.0874778863627032,0.164602938035369
3.632,-0.0825476100285401,0.165117834132858
3.634,-0.0776618488216142,0.165410894847207
3.636,-0.0728027552520088,0.165472141528514
3.638,-0.067966358551026,0.165320510956804
3.64,-0.0631995466378427,0.164938108182567
3.642,-0.0584335060491157,0.164318512547104
3.644,-0.0537528436126463,0.163500084502696
3.646,-0.0491262395810528,0.162454291112607
3.648,-0.0449327899154769,0.161136310510864
3.65,-0.0402863809093152,0.15977474254186
3.652,-0.0362518442719752,0.158060187069808
3.654,-0.0318352217026551,0.156247804967948
3.656,-0.0278184530441943,0.154232956417621
3.658,-0.0239190864669053,0.152016177807148
3.66,-0.0201943351524804,0.149652884140507
3.662,-0.0166337302979445,0.147127652715842
3.664,-0.0132365428796043,0.144449050033797
3.666,-0.0100141500970947,0.141627224665651
3.668,-0.0069466901374271,0.138660165751292
3.67,-0.0041291844891147,0.135601774237007
3.672,-0.00146644286635191,0.132425848413068
3.674,0.000971969636806805,0.129142595851169
3.676,0.0032287158021501,0.125763114721703
3.678,0.0052345636729856,0.122352776970789
3.68,0.0070641965497715,0.118832057317218
3.682,0.0086647687056684,0.115277394711147
3.684,0.0100486759620313,0.111670925558662
3.686,0.0112021238438517,0.108063458711165
3.688,0.012144344725118,0.104448417360555
3.69,0.0128768312541375,0.100758855755286
3.692,0.0131790715887451,0.097370795744221
3.694,0.013620506581485,0.093548344519341
3.696,0.0136853296046987,0.089943204198246
3.698,0.0135102116955365,0.086433111675544
3.7,0.013135911140896,0.08298437633803
3.702,0.0125501295722948,0.079589038509723
3.704,0.0117637129406517,0.076276343386724
3.706,0.0107550278409811,0.073082792421918
3.708,0.00959271497701659,0.069941249229536
3.71,0.0082200191557486,0.0669297528295
3.712,0.00667260449187281,0.064052145921676
3.714,0.004949218002121,0.061333626949918
3.716,0.0030753820995853,0.059008481255981
3.718,0.0010207547178379,0.056284631093269
3.72,-0.0011721002549527,0.054007757510434
3.722,-0.0034967749020388,0.051904070354807
3.724,-0.005927411084209,0.049985572275697
3.726,-0.0085216716059882,0.048245388257529
3.728,-0.0112020581119552,0.046685817932823
3.73,-0.0138362203031279,0.045621712255062
3.732,-0.0168192877335063,0.044193301371342
3.734,-0.0197210136266625,0.043243804704959
3.736,-0.0227330606324823,0.042511184657801
3.738,-0.0257715448829857,0.041991608102591
3.74,-0.0288202002422767,0.041685801005037
3.742,-0.0319140732094766,0.04158825193579
3.744,-0.035034288904405,0.0417328314623
3.746,-0.0381229534098577,0.042082202150493
3.748,-0.0409785401559832,0.04282002301637
3.75,-0.044291963939317,0.043443982787433
3.752,-0.0473091360844924,0.044448246133967
3.754,-0.0502870341489863,0.045667578350228
3.756,-0.0531918359700003,0.047100916155486
3.758,-0.0560399586124503,0.048732477734918
3.76,-0.0587575171570652,0.050582732640421
3.762,-0.0613702124786571,0.052616307091226
3.764,-0.0639077737844565,0.054859348004489
3.766,-0.0663129036526317,0.057270817255677
3.768,-0.0685895330508991,0.059871784678851
3.77,-0.0707197055952739,0.062652592006864
3.772,-0.0727132731289708,0.065583425401422
3.774,-0.0745243612914071,0.068671258752994
3.776,-0.0761629052173638,0.071893454860683
3.778,-0.0776167752762697,0.075262502191911
3.78,-0.0786011832816254,0.078686973352047
3.782,-0.0799732906405656,0.082374693933885
3.784,-0.0808533392135603,0.086082820337062
3.786,-0.0815289762242462,0.08988607959731
3.788,-0.0820144903594181,0.093791090085673
3.79,-0.0819798090691455,0.097592942547565
3.792,-0.0819921702670407,0.101563993621754
3.794,-0.0820707678806623,0.105831079049247
3.796,-0.0816468278120813,0.109923091383083
3.798,-0.0809547095585669,0.114009067572006
3.8,-0.0798485648634468,0.117911507224477
3.802,-0.0787370124170908,0.122013419712191
3.804,-0.077603897868064,0.126362372130454
3.806,-0.0760158413044245,0.130417238406585
3.808,-0.0742012698651475,0.134436044505074
3.81,-0.0721603511517502,0.138402204000413
3.812,-0.0697456643300171,0.141970986268143
3.814,-0.0673953777019098,0.146062151789862
3.816,-0.0646913772876282,0.149797642561147
3.818,-0.0617713865878158,0.153367223969396
3.82,-0.0585736223759289,0.156529070641597
3.822,-0.0553421697807428,0.160195864332044
3.824,-0.0517809288390591,0.163121853039941
3.826,-0.0481311655685289,0.166469814576983
3.828,-0.0442574234706409,0.169398680904835
3.83,-0.0402222834938866,0.172097838652572
3.832,-0.0360139712270656,0.17465628665403
3.834,-0.031676236462779,0.177003600935142
3.836,-0.0271922812810386,0.179158237171143
3.838,-0.0225777644130771,0.181116599873797
3.84,-0.0178240770753201,0.182877533148522
3.842,-0.0130136683234728,0.184361922581449
3.844,-0.0082341008568313,0.185333267246506
3.846,-0.003068607252727,0.186727180972342
3.848,0.001823746718873,0.187255879989313
3.85,0.0071160728905855,0.188109909946336
3.852,0.012291796558659,0.18844809187777
3.854,0.0174974813968963,0.188555676080213
3.856,0.0227213399023614,0.188407558939251
3.858,0.0279436444879444,0.188027648516237
3.86,0.033173087369777,0.187376387844943
3.862,0.0381143422654504,0.18629690240826
3.864,0.0435160032690784,0.185348124374821
3.866,0.0486271971392071,0.183966207435613
3.868,0.0536761971395446,0.182352797840543
3.87,0.0583365150895121,0.180361028575022
3.872,0.0635549104376653,0.178409583406482
3.874,0.0683060281649071,0.176082033560894
3.876,0.0729737979375539,0.173548488479267
3.878,0.0775043740402417,0.17077885970413
3.88,0.0819304005886352,0.167815979735995
3.882,0.0858392137020098,0.164607263859816
3.884,0.0902613115156259,0.161277121371439
3.886,0.0942383045429743,0.157704990244021
3.888,0.0979575909578174,0.153995930634479
3.89,0.101523996306088,0.150103998599916
3.892,0.104905536187609,0.146025016704054
3.894,0.108040182847661,0.141838243043631
3.896,0.110682577448354,0.13759112201488
3.898,0.113740918359869,0.133029889409923
3.9,0.115935224691511,0.128586066763221
3.902,0.118518559032581,0.123796614508045
3.904,0.120594904593133,0.119025815322914
3.906,0.1220696429845,0.114374815708086
3.908,0.123929962089716,0.109305533492025
