"Freq [GHz]","re(S(Antenna1_1_p1,Antenna1_1_p1)) []","im(S(Antenna1_1_p1,Antenna1_1_p1)) []"
3,0.135671707712387,-0.081993016886587
3.002,0.135429569813,-0.0857792688541278
3.004,0.135009904051926,-0.089598993430213
3.006,0.134432774285518,-0.0934314525928325
3.008,0.133672072250052,-0.0972716721177777
3.01,0.132583681773275,-0.100927104630891
3.012,0.131642399725997,-0.104928304881245
3.014,0.130263752823707,-0.10857518817184
3.016,0.128814522598189,-0.112357916163087
3.018,0.127302057679242,-0.116254437186679
3.02,0.125517674776394,-0.119923967662505
3.022,0.12355448444066,-0.123548104039112
3.024,0.121423033186381,-0.127098366519568
3.026,0.119141222413118,-0.130592616044792
3.028,0.116701730477596,-0.133999701586353
3.03,0.114121562315707,-0.137316930388811
3.032,0.111381021814637,-0.140501596781385
3.034,0.108507668675011,-0.14342719519926
3.036,0.105489922683152,-0.146605081914279
3.038,0.102341488673437,-0.149441176575175
3.04,0.0990694804407017,-0.152179430877268
3.042,0.095680905322807,-0.154766584111676
3.044,0.09218425695324,-0.157203358704039
3.046,0.0885873345238701,-0.159512851732736
3.048,0.084892408347786,-0.161660823566616
3.05,0.0811166242022692,-0.163654003702254
3.052,0.077254224191858,-0.165469014320705
3.054,0.07332846770155,-0.167125756283839
3.056,0.0693538321201328,-0.168644893820182
3.058,0.0653131234696504,-0.169932280950212
3.06,0.0613917334789762,-0.17090131560134
3.062,0.0571365636605629,-0.172028831712313
3.064,0.0530068174424852,-0.172808731177263
3.066,0.0488709828514716,-0.173414487599194
3.068,0.0447210284970752,-0.173833423623156
3.07,0.0405800698619626,-0.1740637074889
3.072,0.0364601462194154,-0.174133544313082
3.074,0.0323662899197382,-0.174022392701131
3.076,0.0283076242550651,-0.173733256228602
3.078,0.0244742118853133,-0.173206440372142
3.08,0.0205457660552896,-0.172574998720073
3.082,0.0164364143700308,-0.17183416618249
3.084,0.012596185510247,-0.170877597820999
3.086,0.0090921946179667,-0.169724021748127
3.088,0.0051986832224046,-0.168481466236151
3.09,0.0016427716959499,-0.167063134565669
3.092,-0.001799851099632,-0.165495981583825
3.094,-0.0049476125467893,-0.163816549261958
3.096,-0.0083559134355997,-0.161973742833094
3.098,-0.0114686203670144,-0.160026912258897
3.1,-0.0144345156858536,-0.157954242506316
3.102,-0.0172414758936768,-0.15579567816408
3.104,-0.0199349110111888,-0.153532702177592
3.106,-0.022478654481109,-0.151175148096469
3.108,-0.0248847704799197,-0.148746134527813
3.11,-0.0270906953600705,-0.146228152011959
3.112,-0.0291591615817469,-0.143656778494783
3.114,-0.0310680852444416,-0.141039949530964
3.116,-0.0328162390182842,-0.138362032753707
3.118,-0.0343812694551924,-0.13564322763227
3.12,-0.0358047897998114,-0.132937580163144
3.122,-0.0370371892501512,-0.130183571885856
3.124,-0.0381168336281207,-0.127445224499503
3.126,-0.0390359341397142,-0.124699496313957
3.128,-0.0397774053450773,-0.121968345487773
3.13,-0.0403580177882329,-0.119266821561722
3.132,-0.0407740910766799,-0.116598012314102
3.134,-0.041033208210716,-0.113968341878731
3.136,-0.041076353762479,-0.111590490185617
3.138,-0.0410762004848252,-0.108864288651332
3.14,-0.0408822013899235,-0.106423048039134
3.142,-0.0405356936676558,-0.10404509610881
3.144,-0.0400551955136978,-0.101760826516205
3.146,-0.0394398535074512,-0.099565163132471
3.148,-0.0386954857996342,-0.097476791283098
3.15,-0.0378509468997121,-0.095487105266622
3.152,-0.036868443213063,-0.093631953313115
3.154,-0.035788338297823,-0.09187080265237
3.156,-0.0346219396615792,-0.090267729841885
3.158,-0.0333547906177657,-0.088787843844539
3.16,-0.0319978304218068,-0.087422377956072
3.162,-0.030597518687004,-0.086239650942263
3.164,-0.0291241797902148,-0.08518095127596
3.166,-0.0275800737771991,-0.08427192561377
3.168,-0.0260126923787878,-0.083518600532574
3.17,-0.0243809267007379,-0.082917267045821
3.172,-0.022897428718365,-0.082629612529584
3.174,-0.021269258404902,-0.082361292538355
3.176,-0.0194410764845904,-0.082072423120713
3.178,-0.0177650018875646,-0.082101282224705
3.18,-0.0161363432023719,-0.082280194623031
3.182,-0.0145179593043407,-0.082644104788046
3.184,-0.0129236914546394,-0.083134915786555
3.186,-0.0113794234190488,-0.083771567954373
3.188,-0.0098842587935233,-0.08459329702075
3.19,-0.0086435968174359,-0.085619792402557
3.192,-0.0070758801256117,-0.086649186048312
3.194,-0.0057753106400576,-0.087883800921998
3.196,-0.0047857532014375,-0.089297175636725
3.198,-0.0034581994902961,-0.090763420938217
3.2,-0.0026876214879762,-0.092391328428068
3.202,-0.0015704973473491,-0.094125976306932
3.204,-0.001045666433184,-0.095968164947445
3.206,-0.0001337226923099,-0.097940700867038
3.208,0.000377911616500096,-0.100002071950586
3.21,0.000772778872921598,-0.10214387829289
3.212,0.0010121228257259,-0.104359404631009
3.214,0.000900142793723704,-0.106588013466442
3.216,0.0010542129369217,-0.109020657957167
3.218,0.000834873418019799,-0.111418895219524
3.22,0.000463794864110405,-0.113888928200005
3.222,-7.20320513104972E-05,-0.116384809246815
3.224,-0.000780103506101699,-0.118911911372418
3.226,-0.0016233588069182,-0.12144767972785
3.228,-0.0026804037664161,-0.123984512251954
3.23,-0.0038657629402065,-0.126540973649507
3.232,-0.0054017349634913,-0.128882797664175
3.234,-0.0068012686074804,-0.131543815317403
3.236,-0.00849860631548299,-0.134031236941159
3.238,-0.0103819832888185,-0.136479442890569
3.24,-0.0124138398623694,-0.138855123077458
3.242,-0.0146251958199061,-0.141159798253793
3.244,-0.0169835699891684,-0.143415630747981
3.246,-0.019486758156613,-0.145587849010128
3.248,-0.0222106082819803,-0.147442870332137
3.25,-0.0250192816824992,-0.149423728917781
3.252,-0.0279168306469234,-0.151509377042633
3.254,-0.0310149278892231,-0.153283766203938
3.256,-0.0342290195520309,-0.154912402810383
3.258,-0.0375681135498637,-0.156426605391805
3.26,-0.041009945592013,-0.157574452348794
3.262,-0.0445782322952309,-0.159034068462253
3.264,-0.0482493018261025,-0.160106843542867
3.266,-0.0520078540731733,-0.161034177870483
3.268,-0.0558425686388425,-0.161801178613469
3.27,-0.0597535659209247,-0.162387904587985
3.272,-0.06374884923403,-0.162830189077156
3.274,-0.0678002345805963,-0.163094769580265
3.276,-0.0718735389317412,-0.163147594441829
3.278,-0.0759973053577944,-0.163047860040619
3.28,-0.0801704118515796,-0.162764859118684
3.282,-0.0843345067144739,-0.162291477360279
3.284,-0.0885166698801423,-0.161646756040745
3.286,-0.0927064832396687,-0.160797382005387
3.288,-0.0966399834358109,-0.159551210038274
3.29,-0.101023739564976,-0.158553867091023
3.292,-0.105127034248971,-0.157147073131529
3.294,-0.109230668412459,-0.155568124862683
3.296,-0.113257937595602,-0.153815422971055
3.298,-0.117232199019017,-0.151875265055541
3.3,-0.121134253056485,-0.149750197995977
3.302,-0.124952179607401,-0.147470720421783
3.304,-0.128693631593971,-0.145014831070499
3.306,-0.132327066088186,-0.142385848966395
3.308,-0.135860915148481,-0.139620004899012
3.31,-0.139279562346183,-0.136697468381678
3.312,-0.142594185851738,-0.1336131657301
3.314,-0.145749827070602,-0.130413324680821
3.316,-0.148545254458956,-0.127074109399782
3.318,-0.151681838079156,-0.123600795730832
3.32,-0.154163300214918,-0.120054451074234
3.322,-0.157024112136244,-0.11631944185519
3.324,-0.159452889624161,-0.112527559452371
3.326,-0.161744431015144,-0.108635141226443
3.328,-0.163814673035334,-0.104663442608591
3.33,-0.165742595094514,-0.100621798609105
3.332,-0.167487062579803,-0.0965130014258989
3.334,-0.169068796739151,-0.0923318302031291
3.336,-0.170431133574604,-0.0881367282857856
3.338,-0.171639656235247,-0.0838820358362834
3.34,-0.172664098830002,-0.0795763214701442
3.342,-0.173478068620126,-0.0753031680237365
3.344,-0.174122094421499,-0.0710007801104825
3.346,-0.174584992486659,-0.0666943061425703
3.348,-0.174840853426631,-0.0624098190337129
3.35,-0.174925315962474,-0.058156428311455
3.352,-0.174830187516631,-0.0539237025018617
3.354,-0.174434691864032,-0.0499430789604176
3.356,-0.174093282762974,-0.0455779099428962
3.358,-0.173459521715741,-0.0414959742863293
3.36,-0.172656799499048,-0.0374898555679887
3.362,-0.171688327854194,-0.0335464270044171
3.364,-0.170522922657034,-0.0299583132905198
3.366,-0.169276678507697,-0.0259248384586916
3.368,-0.167855546290099,-0.0223103167580128
3.37,-0.166254985611204,-0.0189921428534807
3.372,-0.164538401200098,-0.0153075481353162
3.374,-0.162725420586788,-0.0122666061283304
3.376,-0.160738357880842,-0.0088371957713154
3.378,-0.158708214079772,-0.0060822214365588
3.38,-0.15644166756718,-0.0029080552493595
3.382,-0.154238559680734,-0.000393952757667598
3.384,-0.151775106929887,0.0024535633082556
3.386,-0.149295807593414,0.004895674226065
3.388,-0.146771249536689,0.0071822729015255
3.39,-0.144313488588798,0.0090514819386169
3.392,-0.141641610359399,0.0110493036995237
3.394,-0.138782207056402,0.0130731668546161
3.396,-0.136054688320427,0.0146598138222964
3.398,-0.133269276976431,0.0161414120788007
3.4,-0.130492277040788,0.0174122035778735
3.402,-0.127879473723073,0.0183579825103988
3.404,-0.124892268542757,0.0194709429339165
3.406,-0.122102424928559,0.0202409798320758
3.408,-0.119342093818336,0.02084894332395
3.41,-0.116621117911074,0.0212940517733111
3.412,-0.113910905774713,0.0215584405177845
3.414,-0.111260247419788,0.0216715703979009
3.416,-0.10865942647385,0.0216208726060564
3.418,-0.106379968895692,0.0213766239653919
3.42,-0.103944826969408,0.0210335734485235
3.422,-0.101314990418225,0.0206086846962195
3.424,-0.099014018468167,0.019967389455937
3.426,-0.096849800171508,0.0192307916902775
3.428,-0.094730184390079,0.0183413985853154
3.43,-0.093044270338331,0.0173429558788038
3.432,-0.090918479366248,0.0162198451083076
3.434,-0.089159735602069,0.0149913128791964
3.436,-0.087562092114843,0.0136454615225132
3.438,-0.086091791146747,0.0122394194227546
3.44,-0.084744795445315,0.0107332776754898
3.442,-0.083579713685395,0.0091660994249245
3.444,-0.082514257461002,0.0075219624212631
3.446,-0.081642703976934,0.00584303785801339
3.448,-0.080907476470294,0.0040803015191348
3.45,-0.080323310261751,0.00232743159805225
3.452,-0.080108281746694,0.00065419483957778
3.454,-0.079834102726179,-0.00115964704834643
3.456,-0.079519460267762,-0.00318491854988083
3.458,-0.079561444556086,-0.00507216662332494
3.46,-0.079791998253375,-0.00686993751769163
3.462,-0.08015405598974,-0.00870173207752981
3.464,-0.080668393843315,-0.0105095277662831
3.466,-0.08137088450024,-0.01228758005846
3.468,-0.082216551614509,-0.0140002037807953
3.47,-0.08320367095762,-0.0156659936995774
3.472,-0.084354328878117,-0.0172850928751271
3.474,-0.08564059778093,-0.0188246545863834
3.476,-0.087071471756626,-0.0202813593856884
3.478,-0.088634939860446,-0.0216556350536532
3.48,-0.090322293841248,-0.0229245163142444
3.482,-0.092147287590277,-0.0240825881299487
3.484,-0.094101109279791,-0.0251976096571627
3.486,-0.096151282991562,-0.0261229127116594
3.488,-0.098310855995227,-0.0269473735342589
3.49,-0.100582330426493,-0.0276446657766426
3.492,-0.102927978805232,-0.0282108863073103
3.494,-0.105378143393395,-0.0286289859877207
3.496,-0.107907790502865,-0.028908328608537
3.498,-0.110494761253101,-0.0290525895961169
3.5,-0.113002956428695,-0.0287461230290681
3.502,-0.115826957026824,-0.0288230454350349
3.504,-0.118589127294503,-0.0284587636076262
3.506,-0.121344142985821,-0.0279442135434859
3.508,-0.124147475310933,-0.0272586666895658
3.51,-0.126975447609048,-0.0264042520905278
3.512,-0.129805936352218,-0.0253995924163632
3.514,-0.132594979010046,-0.0241934423901
3.516,-0.135441344605291,-0.0228448786157682
3.518,-0.138212389044324,-0.0213156790664669
3.52,-0.140992042822516,-0.0196062562926526
3.522,-0.143687919168488,-0.0177397661605486
3.524,-0.14635718783727,-0.0156975107707851
3.526,-0.148651195362351,-0.0133737735671545
3.528,-0.151495011915635,-0.0111470849055833
3.53,-0.153677209173279,-0.0085541055932655
3.532,-0.156330702991471,-0.00596192652796289
3.534,-0.158590121732063,-0.00313786851750161
3.536,-0.160763106888135,-0.000176737799446498
3.538,-0.162835737769494,0.002930816879104
3.54,-0.16445765130802,0.0061610548514222
3.542,-0.166573010743001,0.0095329459810213
3.544,-0.16826531706631,0.0130041317912127
3.546,-0.16979343584755,0.0166060552345896
3.548,-0.171195086049099,0.0203275483322344
3.55,-0.172400741381067,0.0241226889628438
3.552,-0.173492052516199,0.0280275199115516
3.554,-0.174429506554678,0.0320220882086826
3.556,-0.175145948158874,0.0360521310482487
3.558,-0.175724464738016,0.0401851145962887
3.56,-0.176107518092794,0.0443485059390024
3.562,-0.176087774099887,0.0484263005707256
3.564,-0.176364692476437,0.0528456479817101
3.566,-0.176205815234482,0.0571399940436854
3.568,-0.17588592007527,0.0614618379522709
3.57,-0.175332741623569,0.0657846401331099
3.572,-0.174625900551901,0.0700841214893531
3.574,-0.173704439184728,0.0743945624445179
3.576,-0.172598175352573,0.0786799023141303
3.578,-0.171314684406098,0.082958637076669
3.58,-0.169829288720155,0.0871394540559463
3.582,-0.168035067567755,0.0910315268621691
3.584,-0.166332734654027,0.095405833040838
3.586,-0.164305578590117,0.0994356841464247
3.588,-0.162109781867043,0.10340252454789
3.59,-0.159681796659549,0.106945934333994
3.592,-0.157164177809871,0.110706600478416
3.594,-0.154498333901522,0.114689724524679
3.596,-0.151641331803021,0.118242046550888
3.598,-0.148631535901576,0.121657743514302
3.6,-0.145493499126798,0.124958893945643
3.602,-0.142184367914316,0.128113279043311
3.604,-0.138813941639454,0.130815051537309
3.606,-0.135212788300802,0.133992387853068
3.608,-0.131553536213851,0.136670558645005
3.61,-0.127787325274548,0.139211546719927
3.612,-0.123917659692881,0.141573545810241
3.614,-0.11994778500643,0.143790015166968
3.616,-0.115917030223914,0.145783693082559
3.618,-0.111811357868756,0.147614937933539
3.62,-0.107649429752583,0.149252696162946
3.622,-0.103426595389811,0.15069457835256
3.624,-0.0991443798761408,0.151965709934985
3.626,-0.0950943952571196,0.152807605515515
3.628,-0.0905536789062849,0.153897304383808
3.63,-0.0862342966087032,0.154580045245369
3.632,-0.0818815430585401,0.155039837842858
3.634,-0.0775750782016142,0.155333785457207
3.636,-0.0732861026920088,0.155410019118514
3.638,-0.069018549781026,0.155321855376804
3.64,-0.0648340454078427,0.155028189222568
3.642,-0.0606222182691157,0.154515456087104
3.644,-0.0564985483026463,0.153846236282696
3.646,-0.0524124801010528,0.152982767432606
3.648,-0.0488073195254769,0.151884928110864
3.65,-0.0446101281093152,0.15076809935186
3.652,-0.0411381146519752,0.149332419929808
3.654,-0.0371594882326551,0.147800378737948
3.656,-0.0336058016441943,0.146108137637621
3.658,-0.0301561229669053,0.144238160267148
3.66,-0.0268570183624804,0.142246688000507
3.662,-0.0237004619279445,0.140127004085842
3.664,-0.0206855472296043,0.137867628483797
3.666,-0.0178174046070947,0.135483550035651
3.668,-0.0150836760274271,0.132975658941292
3.67,-0.0125630352891147,0.130394299317007
3.672,-0.0101683254463519,0.127711202053068
3.674,-0.00798591248319319,0.124932009331169
3.676,-0.0059446591378499,0.122075113871703
3.678,-0.0041255494570144,0.119190635010789
3.68,-0.00245177459022851,0.116209912902218
3.682,-0.000976959554331594,0.113204240423147
3.684,0.000313720912031301,0.110146588425662
3.686,0.0014035866838517,0.107092538565165
3.688,0.002315037225118,0.104040216849555
3.69,0.0030577095241375,0.100904998597286
3.692,0.0033749461187451,0.098138448624221
3.694,0.003891977771485,0.094809078639341
3.696,0.0040518980946987,0.091763970038246
3.698,0.00400083347553649,0.088780794205544
3.7,0.003781324290896,0.08586875620803
3.702,0.0033796333422948,0.082990980899723
3.704,0.0028097640406517,0.080191870776724
3.706,0.0020570224809811,0.077498768041918
3.708,0.0011546303170166,0.074836933829536
3.71,7.66083957485994E-05,0.0722897835095
3.712,-0.0011468904481272,0.069861211811676
3.714,-0.002528068657879,0.067571012439918
3.716,-0.0039937926804147,0.065709197465981
3.718,-0.0056928748821621,0.063314622513269
3.72,-0.0074670786349527,0.061401980780434
3.722,-0.0093571533420388,0.059638725904807
3.724,-0.011337417294209,0.058033210865697
3.726,-0.0134662387759882,0.056578035527529
3.728,-0.0156613216019552,0.055275405212823
3.73,-0.0177362423031279,0.054518867135062
3.732,-0.0202760528935063,0.053218842201342
3.734,-0.0226538831566625,0.052442485474959
3.736,-0.0251459666024823,0.051858952677801
3.738,-0.0276509934219857,0.051453140392591
3.74,-0.0301626435892767,0.051229718715037
3.742,-0.0327099466308766,0.05118852483579
3.744,-0.035290033873405,0.0513570532023
3.746,-0.0378265634218577,0.051690631350493
3.748,-0.0400869398059832,0.05240425005637
3.75,-0.042924309709317,0.052952935067433
3.752,-0.0454072306244924,0.053853077423967
3.754,-0.0478575741089863,0.054945764230228
3.756,-0.0502450674200003,0.056221921615486
3.758,-0.0525834171924503,0.057663427494918
3.76,-0.0548053273670652,0.059300381160421
3.762,-0.0569337497986571,0.061088665251226
3.764,-0.0590021013344565,0.063065232474489
3.766,-0.0609579742826317,0.065177977115677
3.768,-0.0628004360408991,0.067464792918851
3.77,-0.0645115568552739,0.069889263636864
3.772,-0.0661171080489708,0.072465624571422
3.774,-0.0675541088014071,0.075164081912994
3.776,-0.0688411112673638,0.077981680550683
3.778,-0.0699728410362697,0.080918837691911
3.78,-0.0706020397216254,0.083858596972047
3.782,-0.0717436156205656,0.087120991253885
3.784,-0.0723817059335603,0.090362108897062
3.786,-0.0728348809842462,0.09368323189731
3.788,-0.0731275878194182,0.097087769465673
3.79,-0.0728891308691455,0.100328650207565
3.792,-0.0727378337770407,0.103760997761754
3.794,-0.0727673279406623,0.107569106249247
3.796,-0.0722738684320813,0.111145470417083
3.798,-0.0715299281485669,0.114702098042006
3.8,-0.0703823543434468,0.118008691870077
3.802,-0.0692871707970908,0.121563177755191
3.804,-0.068210281618064,0.125457905726454
3.806,-0.0666991235244245,0.128972040926585
3.808,-0.0649823089951475,0.132480910065074
3.81,-0.0630720564417502,0.135934703890413
3.812,-0.0608153218800171,0.138930829508143
3.814,-0.0586573515919098,0.142595398879862
3.816,-0.0561574811176282,0.145845837581147
3.818,-0.0534828216878158,0.148945632419396
3.82,-0.0505609040459289,0.151550202511597
3.822,-0.0476159253807428,0.154878384462044
3.824,-0.0443998761590591,0.157305893359941
3.826,-0.0410685450385289,0.160313358066983
3.828,-0.0375463791106409,0.162866514374835
3.83,-0.0338903960838866,0.165201217212572
3.832,-0.0300940342370656,0.16741011660403
3.834,-0.026168256552779,0.169449692085142
3.836,-0.0221221649510386,0.171315080371143
3.838,-0.0179592465930771,0.172998374853797
3.84,-0.0136688826653201,0.174515803638522
3.842,-0.0093437893034728,0.175789273511449
3.844,-0.0051243370568313,0.176495903066506
3.846,-0.000389139482726997,0.177811088962342
3.848,0.003942286618873,0.178163449819313
3.85,0.0087794159005855,0.178954573006336
3.852,0.013439757622659,0.17922221217777
3.854,0.0181233396668963,0.179284088080213
3.856,0.0228196525984614,0.179119645219251
3.858,0.0275325439809444,0.178763223356237
3.86,0.032229537436777,0.178151928574943
3.862,0.0365873483354504,0.17712337348826
3.864,0.0415450202490784,0.176292086134821
3.866,0.0461547666592071,0.175046553525613
3.868,0.0507073626895446,0.173590473100543
3.87,0.0548144330495121,0.171787817725022
3.872,0.0596298776676653,0.170045765416482
3.874,0.0639168917049071,0.167958223710894
3.876,0.0681367336975539,0.165688530919267
3.878,0.0722392666602417,0.16320640557413
3.88,0.0762453954586352,0.160557402665995
3.882,0.0796910623120098,0.157709271089816
3.884,0.0838051035356259,0.154714316901439
3.886,0.0874276424129743,0.151516379444021
3.888,0.0908297305078174,0.148197333734479
3.89,0.0940883834360879,0.144715435759916
3.892,0.0971672479876088,0.141068285344054
3.894,0.100049125167661,0.137337350923631
3.896,0.102394797658354,0.13359176098488
3.898,0.105300575449869,0.129456217429923
3.9,0.107263252011511,0.125544423733221
3.902,0.109739357832581,0.121190273028045
3.904,0.111696386143133,0.116912424372914
3.906,0.1130289212245,0.112831271588086
