"Freq [GHz]","re(S(Antenna1_1_p1,Antenna1_1_p1)) []","im(S(Antenna1_1_p1,Antenna1_1_p1)) []"
3,0.104887187732387,-0.107220219656587
3.002,0.103200483763,-0.109258505669128
3.004,0.101450622331926,-0.111219558468213
3.006,0.0996293178855175,-0.113135422221833
3.008,0.0977474115700517,-0.114974520536078
3.01,0.0958078040832745,-0.116755171062891
3.012,0.0938205360459965,-0.118460254277245
3.014,0.0917724300837069,-0.12008725967384
3.016,0.0896712121531895,-0.121664400563087
3.018,0.0875304884842424,-0.123146507026679
3.02,0.0853643518223935,-0.124560897502505
3.022,0.0831362629986598,-0.125878587049112
3.024,0.0808854700043809,-0.127123536729568
3.026,0.0786024231041175,-0.128287866874792
3.028,0.0763126196255956,-0.129373224316353
3.03,0.0739959869989071,-0.130364410468811
3.032,0.0716625653138373,-0.131273486951385
3.034,0.0693153846240112,-0.13210925596926
3.036,0.0669637941671525,-0.132843753494279
3.038,0.0646109067224368,-0.133490118125175
3.04,0.0622566862937017,-0.134069236347268
3.042,0.059912356748807,-0.134554953231676
3.044,0.05757889950424,-0.134956855294039
3.046,0.0552725665838701,-0.135286944382736
3.048,0.052967172537786,-0.135528339366616
3.05,0.0506910759622692,-0.135695473292254
3.052,0.048436913221858,-0.135783269340705
3.054,0.04622336090155,-0.135795030763839
3.056,0.0440495153301328,-0.135755320880182
3.058,0.0418907519936504,-0.135609828060212
3.06,0.0397967917089762,-0.13541487825134
3.062,0.0377300588275629,-0.135152986422313
3.064,0.0357217208792852,-0.134831250817263
3.066,0.0337627844764716,-0.134466004069194
3.068,0.0318462922180752,-0.134025116393156
3.07,0.0299914049839626,-0.1335393909489
3.072,0.0281906119694154,-0.133005145413082
3.074,0.0264519937097382,-0.132434747417131
3.076,0.0247752627050651,-0.131819765410602
3.078,0.0231653630553133,-0.131174708308142
3.08,0.0216054559552896,-0.130485621528073
3.082,0.0201286473500308,-0.12977557949349
3.084,0.018705200880247,-0.129040101030999
3.086,0.0173526118079667,-0.128284700858727
3.088,0.0160681582424046,-0.127514511594151
3.09,0.0148501580959499,-0.126730241319669
3.092,0.013698816120368,-0.125931996785825
3.094,0.0126112090632107,-0.125138857404958
3.096,0.0115943700344003,-0.124350276313094
3.098,0.0106240615629856,-0.123555032454897
3.1,0.0097389660041464,-0.122768188140316
3.102,0.0089234568663232,-0.12201720492208
3.104,0.0081548955188112,-0.121255525957592
3.106,0.007452497358891,-0.120515279636469
3.108,0.0067900006700803,-0.119812918957813
3.11,0.0062107308399295,-0.119118474331959
3.112,0.0056752333482531,-0.118466226356783
3.114,0.0051869502155584,-0.117851628721964
3.116,0.0047462313117158,-0.117261760952707
3.118,0.0043549109748076,-0.11670557859327
3.12,0.0040037358301886,-0.116212489850144
3.122,0.0036966759498488,-0.115748309114856
3.124,0.0034206755918793,-0.115337448196503
3.126,0.0031741560862858,-0.114973112663957
3.128,0.0029580623059227,-0.114663434747773
3.13,0.0027769368147671,-0.114400121751722
3.132,0.00261022563832008,-0.114197832934102
3.134,0.002460562822284,-0.114042920528731
3.136,0.00232701861952099,-0.113948083605617
3.138,0.00221097528517483,-0.113903056741332
3.14,0.0020873837465765,-0.113922462989134
3.142,0.00197475230664423,-0.11399461281881
3.144,0.00185595983930222,-0.114133575696205
3.146,0.00174154227454882,-0.114317305492471
3.148,0.00161170195236578,-0.114565103263098
3.15,0.00146132310328789,-0.114860159616622
3.152,0.00130438793893698,-0.115229949273115
3.154,0.00112305876617696,-0.11564590079237
3.156,0.000918492732420799,-0.116115126931885
3.158,0.00067939504223433,-0.116641392894539
3.16,0.0004110294281932,-0.117211813826072
3.162,0.000108328462996,-0.117832643742263
3.164,-0.0002401551302148,-0.11850259948596
3.166,-0.0006147090871991,-0.11920790612377
3.168,-0.0010549304377878,-0.119962228432574
3.17,-0.0015250477407379,-0.120757178075821
3.172,-0.002066285368365,-0.121575908229584
3.174,-0.002650766510902,-0.122433998558355
3.176,-0.0032948390305904,-0.123328174130713
3.178,-0.0039801769655646,-0.124246324564705
3.18,-0.0047534483233719,-0.125180026063031
3.182,-0.0055906724343407,-0.126137743001046
3.184,-0.0064748911246394,-0.127099023168555
3.186,-0.0074278325890488,-0.128083621274373
3.188,-0.0084517114435233,-0.12907237301175
3.19,-0.0095365037574359,-0.130076278442557
3.192,-0.0106952628656117,-0.131065656550312
3.194,-0.0119213100500576,-0.132066393235998
3.196,-0.0132146950214375,-0.133045625795725
3.198,-0.0145813860002961,-0.134018019805417
3.2,-0.0160268179979762,-0.134960559871068
3.202,-0.0175321708773491,-0.135901679104932
3.204,-0.019104675393184,-0.136805495430445
3.206,-0.0207485600923099,-0.137695862873038
3.208,-0.0224556540334999,-0.138538507941586
3.21,-0.0242331926570784,-0.13935801132189
3.212,-0.0260731967442741,-0.140124368817009
3.214,-0.0279740747262763,-0.140856043426442
3.216,-0.0299364391330783,-0.141526558037167
3.218,-0.0319686020319802,-0.142145306869524
3.22,-0.0340412944158896,-0.142725761950005
3.222,-0.0361665462113105,-0.143238375466815
3.224,-0.0383487695561017,-0.143700161071418
3.226,-0.0405723774669182,-0.14407301748985
3.228,-0.0428508072664161,-0.144397793303954
3.23,-0.0451663264702065,-0.144648854532507
3.232,-0.0475152902734913,-0.144820410472175
3.234,-0.0498923004074804,-0.144922649688403
3.236,-0.052318471095483,-0.144949670806159
3.238,-0.0547650862468185,-0.144902309420569
3.24,-0.0572319314013694,-0.144768778337458
3.242,-0.0597157094629061,-0.144546658373793
3.244,-0.0622263524951684,-0.144253670667981
3.246,-0.064732435690613,-0.143872773840128
3.248,-0.0672581835999803,-0.143399012062137
3.25,-0.0697885618724992,-0.142845273457781
3.252,-0.0722994721234234,-0.142198523732633
3.254,-0.0748233150466231,-0.141476884933938
3.256,-0.0773253216720309,-0.140664309320383
3.258,-0.0798124212168637,-0.139761631731805
3.26,-0.082281721146013,-0.138776608698794
3.262,-0.0847121492502309,-0.137714456712253
3.264,-0.0871488665921025,-0.136555202432867
3.266,-0.0895386572001733,-0.135320401550483
3.268,-0.0918944976608425,-0.134005503653469
3.27,-0.0942046859509247,-0.132609315517985
3.272,-0.09646770797403,-0.131148058917156
3.274,-0.0986965614205963,-0.129602638790265
3.276,-0.100858366371741,-0.127972095841829
3.278,-0.102983048837794,-0.126292862870619
3.28,-0.10505576219858,-0.124518248948684
3.282,-0.107050995003474,-0.122720424190279
3.284,-0.108994178681142,-0.120817864680745
3.286,-0.110869624719069,-0.118876547795387
3.288,-0.112664564742811,-0.116893018718274
3.29,-0.114401462864976,-0.114827371331023
3.292,-0.116056243093971,-0.112730968001529
3.294,-0.117641495982459,-0.110591307849683
3.296,-0.119143384525602,-0.108427992252055
3.298,-0.120567347669017,-0.106197311626541
3.3,-0.121914482596485,-0.103957064563977
3.302,-0.123174341277401,-0.101678955475783
3.304,-0.124348162023971,-0.0993633650794987
3.306,-0.125436697918186,-0.0970665517893946
3.308,-0.126460457988481,-0.0947283594406116
3.31,-0.127377290526183,-0.092376557423378
3.312,-0.128226204111738,-0.0900260071271005
3.314,-0.128967733440602,-0.0876432902218205
3.316,-0.129642545198956,-0.0852950009377823
3.318,-0.130236790119156,-0.0829551751998324
3.32,-0.130728037784918,-0.0806001117172342
3.322,-0.131147132346244,-0.0782658418471902
3.324,-0.131498539554161,-0.0759672175543709
3.326,-0.131748665095144,-0.0736719141564426
3.328,-0.131931383795334,-0.0714087603185907
3.33,-0.132036197844514,-0.0691808004791052
3.332,-0.132072945749803,-0.0669769601558989
3.334,-0.132040882739151,-0.0648152854631291
3.336,-0.131956893184604,-0.0626976052297856
3.338,-0.131758078335247,-0.0606131921382834
3.34,-0.131523136220002,-0.0585725657431442
3.342,-0.131252635120126,-0.0566010253696365
3.344,-0.130874006251499,-0.0546621744524825
3.346,-0.130484867266659,-0.0527909680945703
3.348,-0.130024902626631,-0.0509559341557129
3.35,-0.129504841039474,-0.049197716971455
3.352,-0.128963867971631,-0.0474988673718617
3.354,-0.128379177531032,-0.0458545525704176
3.356,-0.127757180748974,-0.0442775089828962
3.358,-0.127099535859741,-0.0427691678463293
3.36,-0.126431395516048,-0.0413226872479887
3.362,-0.125731843717194,-0.0399392046244171
3.364,-0.125014584707834,-0.0386274229905198
3.366,-0.124256527866997,-0.0373926417086916
3.368,-0.123525564051099,-0.0362181632780128
3.37,-0.122739007537204,-0.0351202459534807
3.372,-0.121972774382098,-0.0340900910553162
3.374,-0.121221521585788,-0.0331128869783304
3.376,-0.120456024274842,-0.0322163584813154
3.378,-0.119705938142772,-0.0313855287565588
3.38,-0.11896530431718,-0.0306089903893595
3.382,-0.118248127790734,-0.0299008602076676
3.384,-0.117542341519887,-0.0292560487517444
3.386,-0.116852929833414,-0.028686990643935
3.388,-0.116205039086689,-0.0281621674384745
3.39,-0.115580598498798,-0.0276925500113831
3.392,-0.114991591749399,-0.0272760351504763
3.394,-0.114443153665402,-0.0269145107553839
3.396,-0.113927659727427,-0.0265961855277036
3.398,-0.113456637186031,-0.0263169845811993
3.4,-0.113028517287788,-0.0261004662321265
3.402,-0.112642128441073,-0.0258933895096012
3.404,-0.112313795951757,-0.0257287627460835
3.406,-0.112028738788559,-0.0256211042819242
3.408,-0.111804162018336,-0.02553347789405
3.41,-0.111644229231074,-0.0254484661966889
3.412,-0.111520604264713,-0.0254231881132155
3.414,-0.111462447189788,-0.0254008375810991
3.416,-0.11145881306385,-0.0254079100169436
3.418,-0.111509861375692,-0.0253739825436081
3.42,-0.111644178879408,-0.0253976549970765
3.422,-0.111826302058225,-0.0253960292779805
3.424,-0.112064227048167,-0.025422148906063
3.426,-0.112369507041508,-0.0254115709917225
3.428,-0.112711645280079,-0.0254043614056846
3.43,-0.113144815808331,-0.0253990915741962
3.432,-0.113625654296248,-0.0253525656236924
3.434,-0.114160136792069,-0.0252916934198036
3.436,-0.114744311114843,-0.0252315464414868
3.438,-0.115398477156747,-0.0251108932372454
3.44,-0.116097134365315,-0.0249754010245102
3.442,-0.116850869915395,-0.0247928193450755
3.444,-0.117647552671002,-0.0245802892587369
3.446,-0.118497766076934,-0.0243184147019866
3.448,-0.119392493570294,-0.0240208517908652
3.45,-0.120324009351751,-0.0236520567639477
3.452,-0.121302346536694,-0.0232639851554222
3.454,-0.122311596966179,-0.0228051095083464
3.456,-0.123351303357762,-0.0222880748779808
3.458,-0.124409965226086,-0.0217218906353249
3.46,-0.125526299743375,-0.0210829997106916
3.462,-0.12663679737974,-0.0203916824475298
3.464,-0.127780746577315,-0.0196328986062831
3.466,-0.12895477217824,-0.01879589615846
3.468,-0.130107489436509,-0.0179115903007953
3.47,-0.13129986529862,-0.0169465622795774
3.472,-0.132485940665117,-0.0159138925951271
3.474,-0.13366785979893,-0.0148074590563834
3.476,-0.134845562484626,-0.0136343455156884
3.478,-0.136020261414736,-0.0123840242636532
3.48,-0.137174319731248,-0.0110601188642444
3.482,-0.138309979719277,-0.0096644842599487
3.484,-0.139455049818791,-0.0082128403571627
3.486,-0.140553279387562,-0.0066847412516594
3.488,-0.141625793238227,-0.0050831968942589
3.49,-0.142669898051493,-0.0034150472066426
3.492,-0.143665927519232,-0.0016723430773103
3.494,-0.144641191923395,0.000128244222279302
3.496,-0.145562056792865,0.001989552771463
3.498,-0.146437398993101,0.0039210183138831
3.5,-0.147252529818695,0.00589416189093186
3.502,-0.148030174076824,0.0079532115449651
3.504,-0.148745719294503,0.0100580980623738
3.506,-0.149391463275821,0.0122129719965141
3.508,-0.149980489448933,0.0144132329104342
3.51,-0.150498577343048,0.0166660902094722
3.512,-0.150950382915218,0.0189571075636368
3.514,-0.151302809957046,0.0212878697999
3.516,-0.151636729421291,0.0236593476342318
3.518,-0.151862325748324,0.0260639954735331
3.52,-0.152017929132516,0.0284989601273474
3.522,-0.152084329978488,0.0309552563844514
3.524,-0.15207726154727,0.0334460250882149
3.526,-0.151976652372351,0.0359191267408455
3.528,-0.151797757925635,0.0384320552684167
3.53,-0.151532619473279,0.0409469214857345
3.532,-0.151182435491471,0.0434660929460371
3.534,-0.150743318132063,0.0459947162575984
3.536,-0.150220921788135,0.0485084831651535
3.538,-0.149612338389494,0.051015999438104
3.54,-0.14890594565802,0.0535035942884222
3.542,-0.148130504743001,0.0560002331540213
3.544,-0.14728077153631,0.0584463246032127
3.546,-0.14631167672755,0.0608961055725896
3.548,-0.145274360839099,0.0633006542092344
3.55,-0.144157339141067,0.0656725673428438
3.552,-0.142957454166199,0.0680070384815516
3.554,-0.141684187274678,0.0703088762186826
3.556,-0.140328840078874,0.0725295377282487
3.558,-0.138910863438016,0.0747515313162887
3.56,-0.137408192552794,0.0768900433090024
3.562,-0.135849639229887,0.0789887297107256
3.564,-0.134217627236437,0.0810090550817101
3.566,-0.132523010114482,0.0829931357856854
3.568,-0.13078878731527,0.0848866860972709
3.57,-0.128956679733569,0.0867297686792099
3.572,-0.127099813111901,0.0884811013093531
3.574,-0.125183072314728,0.0901867938075179
3.576,-0.123224876652573,0.0917996133121303
3.578,-0.121202356996098,0.093343802106669
3.58,-0.119182789448155,0.0947995874159463
3.582,-0.117093643504755,0.0961769135221691
3.584,-0.115012494102027,0.097470123640838
3.586,-0.112883047013117,0.0986815470164247
3.588,-0.110735399112043,0.0998105460378896
3.59,-0.108578628467249,0.100840442853994
3.592,-0.106404715296071,0.101796759958416
3.594,-0.104205286960522,0.102680141694679
3.596,-0.102015105335021,0.103463421440888
3.598,-0.099829303398576,0.104156528444302
3.6,-0.097676424357798,0.104783031925643
3.602,-0.095471609953316,0.105300552633311
3.604,-0.093309443740454,0.105742868647309
3.606,-0.091165565206802,0.106108119763068
3.608,-0.089043914793851,0.106386515765005
3.61,-0.0869476230445481,0.106588508979927
3.612,-0.0848723571828813,0.106710529660241
3.614,-0.08284591317643,0.106760649926968
3.616,-0.0808510751539138,0.106735006672559
3.618,-0.0788967114687556,0.106638930723539
3.62,-0.0769858215725832,0.106476361022946
3.622,-0.0751260962988115,0.10624722773256
3.624,-0.0733119977861408,0.105956518594985
3.626,-0.0715558395221196,0.105603690735515
3.628,-0.0698540838466849,0.105199105803809
3.63,-0.0682162787857032,0.104740207375369
3.632,-0.0666271708245401,0.104209520572858
3.634,-0.0651171653416142,0.103678213906207
3.636,-0.0636626388520088,0.103082009481514
3.638,-0.062279824091026,0.102481508657804
3.64,-0.0610043412278427,0.101819581031567
3.642,-0.0597190517491157,0.101091319229104
3.644,-0.0585488626126463,0.100371628158696
3.646,-0.0574441434410528,0.0996330025476065
3.648,-0.0564240109354769,0.0988773416265045
3.65,-0.0554619739293152,0.0981508977278599
3.652,-0.0545721108219752,0.097362795214808
3.654,-0.0537745550026551,0.096552215141948
3.656,-0.0530420204641943,0.095776272116621
3.658,-0.0523777972869053,0.094993212035148
3.66,-0.0517852955124804,0.094231509240507
3.662,-0.0512647161579445,0.093491721912842
3.664,-0.0508089383196043,0.092747914903797
3.666,-0.0504281183170947,0.092031594725651
3.668,-0.0501086024074271,0.091340024881292
3.67,-0.0498556763891147,0.090685423757007
3.672,-0.0496357992363519,0.090075112333068
3.674,-0.0495283430431932,0.089461627041169
3.676,-0.0494499160078499,0.088919702831703
3.678,-0.0494287870770144,0.088422804950789
3.68,-0.0494596212402285,0.087945268927218
3.682,-0.0495386437943316,0.087529946299147
3.684,-0.0496585068779687,0.087171292810662
3.686,-0.0498216395361483,0.086863266538165
3.688,-0.050012308544882,0.086631634506555
3.69,-0.0502242185258625,0.086424465295286
3.692,-0.0505211362322549,0.086293557374221
3.694,-0.050816782457515,0.086227754599341
3.696,-0.0511200123803013,0.086238617928246
3.698,-0.0514593356904635,0.086278898565544
3.7,-0.051817701669104,0.08640592094803
3.702,-0.0521762241977052,0.086599811039723
3.704,-0.0525348928347483,0.086865746866724
3.706,-0.0528786433599189,0.087206160461918
3.708,-0.0532629333619834,0.087594491649536
3.71,-0.0536288453282514,0.0880571851495
3.712,-0.0539704383921272,0.088594535111676
3.714,-0.054307249548879,0.089195783179918
3.716,-0.0546115647784147,0.089862773255981
3.718,-0.0549043418741621,0.090594163793269
3.72,-0.0551632781649527,0.091389655630434
3.722,-0.0553873720320388,0.092252758254807
3.724,-0.055562925484209,0.093170694385697
3.726,-0.0557380648859882,0.094144833667529
3.728,-0.0558488564419552,0.095172041602823
3.73,-0.0559102037631279,0.096256286805062
3.732,-0.0559247924535063,0.097395672521342
3.734,-0.0558670269166625,0.098573265714959
3.736,-0.0557943235624823,0.099822055967801
3.738,-0.0556450867539857,0.101099722792591
3.74,-0.0554146385142767,0.102408112905037
3.742,-0.0551291020935766,0.10374539117579
3.744,-0.054804371386405,0.1051370577023
3.746,-0.0543558748888577,0.106526484710493
3.748,-0.0538791397259832,0.10796482185937
3.75,-0.053347420849317,0.109429793923433
3.752,-0.0527150126544924,0.110891608773967
3.754,-0.0519968165789863,0.112368078480228
3.756,-0.0512106826900003,0.113857063128486
3.758,-0.0503462713824503,0.115342680984918
3.76,-0.0494115710470652,0.116834667775421
3.762,-0.0483850800186571,0.118311409668026
3.764,-0.0472906972544565,0.119790840243489
3.766,-0.0461160470226317,0.121251363967677
3.768,-0.0448720565708991,0.122701971166851
3.77,-0.0435717573652739,0.124116950461864
3.772,-0.0421378806889708,0.125508989397422
3.774,-0.0406568228614071,0.126868287544994
3.776,-0.0391046907273638,0.128187137300683
3.778,-0.0374813028362697,0.129478006511911
3.78,-0.0357832674516254,0.130717773312047
3.782,-0.0340455075305656,0.131922308763885
3.784,-0.0321953347635603,0.133054161137062
3.786,-0.0303040241042462,0.13414078008731
3.788,-0.0283565341494181,0.135170588665673
3.79,-0.0263418081691455,0.136136065147565
3.792,-0.0242817681570407,0.137011221401754
3.794,-0.0221772109606623,0.137891260709247
3.796,-0.0200006955520813,0.138624821612083
3.798,-0.0177945712085669,0.139312835402006
3.8,-0.0155403494634468,0.139925093469077
3.802,-0.0132717249770908,0.140478571740191
3.804,-0.010931405998064,0.140911815277454
3.806,-0.00860560485742449,0.141288323216585
3.808,-0.00621419152414746,0.141553638355074
3.81,-0.00382171897175023,0.141760353020413
3.812,-0.00141516309401705,0.141866975258143
3.814,0.00100043888909017,0.141885335789862
3.816,0.00342977817937176,0.141824530291147
3.818,0.00585950360458423,0.141668270399396
3.82,0.00828636028507112,0.141418179521597
3.822,0.0107010223052572,0.141085957982044
3.824,0.0131004283699409,0.140691129469941
3.826,0.0155031761954711,0.140176828336983
3.828,0.0178821080843591,0.139555210834835
3.83,0.0202201252181134,0.138868429402572
3.832,0.0225493149889344,0.13812044758403
3.834,0.024834751307221,0.137239540415142
3.836,0.0270715857489614,0.136294434061143
3.838,0.0292861617069229,0.135281807883797
3.84,0.0314437152346799,0.134175771808522
3.842,0.0335450814165272,0.133012116821449
3.844,0.0356130782431687,0.131769501096506
3.846,0.037602106977273,0.130458405632342
3.848,0.039547435458873,0.129074033599313
3.85,0.0414269502605855,0.127629682636336
3.852,0.043241937852659,0.12611536324777
3.854,0.0449852196978963,0.124550940530213
3.856,0.0466521928563614,0.122935391519251
3.858,0.0482660963899444,0.121306297276237
3.86,0.049762750676777,0.119555639554943
3.862,0.0511991985354504,0.11779624473526
3.864,0.0525635939690784,0.116006761245821
3.866,0.0538254450592071,0.114181313782613
3.868,0.0550169863595446,0.112335707494543
3.87,0.0561270219195121,0.110463231727022
3.872,0.0571414609576653,0.108543937366482
3.874,0.0580718701949071,0.106631319705894
3.876,0.0589100817275539,0.104713312929467
3.878,0.0596681939702417,0.10277557956013
3.88,0.0603303858386352,0.100853583564995
3.882,0.0609114025420098,0.098924347417816
3.884,0.0614063659756259,0.097002224400439
3.886,0.0618140803529743,0.095085505829021
3.888,0.0621786114578174,0.093195230673479
3.89,0.0624225572860879,0.091315302169916
3.892,0.0625318866776088,0.089453043584054
3.894,0.0626082657476607,0.087640979183631
3.896,0.0626089732783541,0.08584735072488
3.898,0.0625329385298694,0.0841020536099227
3.9,0.0623793330615106,0.082393043363221
3.902,0.0621640555825812,0.0807271364180452
3.904,0.0619131727931329,0.0791045345929138
3.906,0.0615117704845004,0.0775439914080863
