"Freq [GHz]","re(S(Antenna1_1_p1,Antenna1_1_p1)) []","im(S(Antenna1_1_p1,Antenna1_1_p1)) []"
3,0.124170218272387,-0.107754805556587
3.002,0.122445486053,-0.110857126979128
3.004,0.120597790921926,-0.113905859198213
3.006,0.118634717475518,-0.116894064881833
3.008,0.116540525320052,-0.119796500626078
3.01,0.114331784583275,-0.122624086572891
3.012,0.111999244025996,-0.125364295507245
3.014,0.109571279303707,-0.12801975344384
3.016,0.10701677923819,-0.130580217783087
3.018,0.104388122859242,-0.133041802116679
3.02,0.101648178006394,-0.135391004532505
3.022,0.0988280607806598,-0.137625535629112
3.024,0.0959109761663809,-0.139753051009568
3.026,0.0929132226231175,-0.141757218334792
3.028,0.0898627836375956,-0.143642368646353
3.03,0.0867602207457071,-0.145389856758811
3.032,0.0835909668846373,-0.147019798451385
3.034,0.0803509691790112,-0.14852110187926
3.036,0.0770875362951525,-0.149879506484279
3.038,0.0737791343634368,-0.151102673435175
3.04,0.0704410351627017,-0.152186483447268
3.042,0.067092583815607,-0.153145704251676
3.044,0.06371709976324,-0.153948260954039
3.046,0.0603365534958701,-0.154617401202736
3.048,0.056944419326786,-0.155148112476616
3.05,0.0535683129542692,-0.155537220662254
3.052,0.050203343451858,-0.155792219710705
3.054,0.04685926274155,-0.155912610463839
3.056,0.0435677389501328,-0.155907760140182
3.058,0.0402683819736504,-0.155747273610212
3.06,0.0370460068989762,-0.15547344532134
3.062,0.0338573388775629,-0.155075936702313
3.064,0.0307178592492852,-0.154550976537263
3.066,0.0276604527064716,-0.153903685829194
3.068,0.0246388462480752,-0.153134099173156
3.07,0.0217065081039626,-0.1522399876289
3.072,0.0188553722294154,-0.151249719583082
3.074,0.0160984951197382,-0.150159099841131
3.076,0.0134116377450651,-0.148968655508602
3.078,0.0108355687853133,-0.147680320072142
3.08,0.0083422421352896,-0.146327267890073
3.082,0.0059611475100308,-0.14486138651249
3.084,0.003693772850247,-0.143345349510999
3.086,0.0015222376579667,-0.141749499398127
3.088,-0.000534470477595403,-0.140087729426151
3.09,-0.00244846715405009,-0.138381742662669
3.092,-0.00426874245963201,-0.136621213924825
3.094,-0.0059789058567893,-0.134815330181958
3.096,-0.0075602078255997,-0.132979017393094
3.098,-0.0090045651670144,-0.131090830693727
3.1,-0.0103297502958536,-0.129233180690316
3.102,-0.0115135791336768,-0.12733538423208
3.104,-0.0125960076111888,-0.125442350688592
3.106,-0.013551486241109,-0.123529803051469
3.108,-0.0143873412199197,-0.121632359047813
3.11,-0.0150825078800705,-0.119764821941959
3.112,-0.0156892503817469,-0.117894168826783
3.114,-0.0161491883044416,-0.116068108881964
3.116,-0.0165075679982842,-0.114266214482707
3.118,-0.0167155811651924,-0.11252750795327
3.12,-0.0168665684598114,-0.110830253280144
3.122,-0.0168710462401512,-0.109174962874856
3.124,-0.0167997357681207,-0.107613710126503
3.126,-0.0166270101897142,-0.106096260323957
3.128,-0.0163451258650773,-0.104662007977773
3.13,-0.0159790359982329,-0.103299475011722
3.132,-0.0155277098666799,-0.102044211304102
3.134,-0.014998937900716,-0.100846224708731
3.136,-0.014405518092479,-0.099753296135617
3.138,-0.0137325729548252,-0.098756213011332
3.14,-0.0130010310299235,-0.097858079939134
3.142,-0.0122155787276558,-0.09706662613881
3.144,-0.0113862463736978,-0.096403789606205
3.146,-0.0105137436564512,-0.095826074642471
3.148,-0.00960348921763422,-0.095376159163098
3.15,-0.00866241702571211,-0.095023693806622
3.152,-0.00770097615806302,-0.094789167603115
3.154,-0.00674194663652304,-0.09469076024237
3.156,-0.0057629371025792,-0.094712802711885
3.158,-0.00479178830376567,-0.094825795544539
3.16,-0.0038271555568068,-0.095069971136072
3.162,-0.002888891714004,-0.095450179442263
3.164,-0.0019598658302148,-0.09593105514596
3.166,-0.0010420189471991,-0.09652970993377
3.168,-0.000201403487787803,-0.097223427212574
3.17,0.0006135269192621,-0.098073042445821
3.172,0.001360195581635,-0.098985638369584
3.174,0.002057344139098,-0.100023537428355
3.176,0.0026762013094096,-0.101179698010713
3.178,0.0032729807044354,-0.102419534854705
3.18,0.0037390046966281,-0.103739314413031
3.182,0.0041163060756593,-0.105175356598046
3.184,0.0044321515753606,-0.106690620186555
3.186,0.0046628358709512,-0.108251644534373
3.188,0.0047682918064767,-0.10992619883075
3.19,0.0047712372925641,-0.111661719682557
3.192,0.0046601903543883,-0.113464410728312
3.194,0.00445718393994241,-0.115312783781998
3.196,0.0041232516685625,-0.117221475906725
3.198,0.0036656138197039,-0.119163899188217
3.2,0.0030960914820238,-0.121146842198068
3.202,0.0023591349426509,-0.123151100808932
3.204,0.001537658126816,-0.125185963601445
3.206,0.000569196157690098,-0.127236286700038
3.208,-0.0005340518134999,-0.129294353718586
3.21,-0.0017929111270784,-0.13136075766159
3.212,-0.0031613582742741,-0.133380908745009
3.214,-0.0046701801962763,-0.135433497667442
3.216,-0.0062916790630783,-0.137414331956167
3.218,-0.0080781249119802,-0.139380304459524
3.22,-0.0099811585358896,-0.141309070640005
3.222,-0.0120220030813105,-0.143212995706815
3.224,-0.0141879387261017,-0.145052529621418
3.226,-0.0164603532569182,-0.14680602836985
3.228,-0.0188796437464161,-0.148488782093954
3.23,-0.0214082892302065,-0.150111189762507
3.232,-0.0240587293334913,-0.151639692952175
3.234,-0.0268240768174804,-0.153085252208403
3.236,-0.029695165405483,-0.154429344306159
3.238,-0.0326820288088185,-0.155690896010569
3.24,-0.0357326849823694,-0.156816916127458
3.242,-0.0388996004299061,-0.157823426453793
3.244,-0.0421411710091684,-0.158713246877981
3.246,-0.045474300756613,-0.159494467660128
3.248,-0.0488679212519803,-0.160131791652137
3.25,-0.0523422118524992,-0.160623385537781
3.252,-0.0558690841769234,-0.160989871842633
3.254,-0.0594437797192231,-0.161211381333938
3.256,-0.0630641000620309,-0.161289385660383
3.258,-0.0667328829208637,-0.161206861381805
3.26,-0.070416918379013,-0.160970793618794
3.262,-0.0741353754762309,-0.160601521982253
3.264,-0.0778489827661025,-0.160063430932867
3.266,-0.0815776137049733,-0.159371054950483
3.268,-0.0853017517228425,-0.158522414013469
3.27,-0.0890142738939247,-0.157498262547985
3.272,-0.09270962216103,-0.156348169937156
3.274,-0.0963628040905963,-0.155019731600265
3.276,-0.0999880311617412,-0.153547131841829
3.278,-0.103570440027794,-0.151907755160619
3.28,-0.10710735557858,-0.150131871478684
3.282,-0.110566308513474,-0.148208000030279
3.284,-0.113969667251142,-0.146132057050745
3.286,-0.117286023559069,-0.143903836665387
3.288,-0.120514517532811,-0.141553514538274
3.29,-0.123665808954976,-0.139070145811023
3.292,-0.126709870693971,-0.136458984341529
3.294,-0.129655660502459,-0.133712559392683
3.296,-0.132481650305602,-0.130847493521055
3.298,-0.135208458939017,-0.127883210235541
3.3,-0.137784920446485,-0.124793739655977
3.302,-0.140238539717401,-0.121614601981783
3.304,-0.142572113963971,-0.118339358880499
3.306,-0.144752901868186,-0.114986072376395
3.308,-0.146787069718481,-0.111546643559012
3.31,-0.148680612776183,-0.108040340831678
3.312,-0.150420299801738,-0.1044599206401
3.314,-0.151997903860602,-0.10081582267882
3.316,-0.153449105418956,-0.0971665432617823
3.318,-0.154711254399156,-0.0934547729468324
3.32,-0.155830065274918,-0.0897133901302342
3.322,-0.156758356356244,-0.0859582633834902
3.324,-0.157550015454161,-0.0821779810763709
3.326,-0.158173636415144,-0.0784022275404426
3.328,-0.158633025775334,-0.0746241227025907
3.33,-0.158933832264514,-0.0708637442591052
3.332,-0.159051038409803,-0.0671291777358989
3.334,-0.159037157809151,-0.0634186674431291
3.336,-0.158858072204604,-0.0597524878697856
3.338,-0.158516115135247,-0.0561329049482834
3.34,-0.158026594110002,-0.0525643404931442
3.342,-0.157391249090126,-0.0490616158896365
3.344,-0.156608178891499,-0.0456272276624825
3.346,-0.155677923726659,-0.0422730518945703
3.348,-0.154627244126631,-0.0390038548557129
3.35,-0.153434725172474,-0.035840674561455
3.352,-0.152123509736631,-0.0327634878818617
3.354,-0.150701548014032,-0.0297907542004176
3.356,-0.149162385322974,-0.0269411104628962
3.358,-0.147514520085741,-0.0242017265063293
3.36,-0.145770831539048,-0.0215910013879887
3.362,-0.143932117474194,-0.0191127540044171
3.364,-0.142019396007034,-0.0167540659405198
3.366,-0.140024595847697,-0.0145480551186916
3.368,-0.137966988210099,-0.0124771260580128
3.37,-0.135844431606204,-0.0105337034034807
3.372,-0.133661403770098,-0.0087625911253162
3.374,-0.131454990887788,-0.0071209136583304
3.376,-0.129198900441842,-0.0056444890913154
3.378,-0.126929097600772,-0.0043049114065588
3.38,-0.12463025199218,-0.0031177320893595
3.382,-0.122338712328734,-0.0020877342276676
3.384,-0.120048247938887,-0.0012212096217444
3.386,-0.117753844523414,-0.000500497273935002
3.388,-0.115482064176689,8.13830715254982E-05
3.39,-0.113251583938798,0.000489491518616901
3.392,-0.111044103549399,0.000778330579523701
3.394,-0.108887431355402,0.000901743874616098
3.396,-0.106784908757427,0.000895197232296398
3.398,-0.104736174466031,0.000753088948800697
3.4,-0.102765697597788,0.0004713913178735
3.402,-0.100858509341073,7.4271410398799E-05
3.404,-0.099050917421757,-0.000457125976083501
3.406,-0.097315169688559,-0.0010951456479242
3.408,-0.095697157048336,-0.00186690511605
3.41,-0.094167514111074,-0.0027252905766889
3.412,-0.092773815644713,-0.0036910669222155
3.414,-0.091465515969788,-0.0047476651820991
3.416,-0.09029060324385,-0.0058860903039436
3.418,-0.089242618635692,-0.0071013707846081
3.42,-0.088315953169408,-0.0083909371014765
3.422,-0.087532546808225,-0.0097450752537805
3.424,-0.086882886498167,-0.011146845564063
3.426,-0.086385095941508,-0.0126043290767225
3.428,-0.086018559450079,-0.0140813449196846
3.43,-0.085792635948331,-0.0155965911261962
3.432,-0.085731107596248,-0.0171371345386924
3.434,-0.085799086652069,-0.0186728847968036
3.436,-0.086027187234843,-0.0202152545514868
3.438,-0.086406536596747,-0.0217472474352454
3.44,-0.086914557095315,-0.0232711692145102
3.442,-0.087590212635395,-0.0247669869150755
3.444,-0.088395248391002,-0.0262230590987369
3.446,-0.089354295956934,-0.0276288465219866
3.448,-0.090456342830294,-0.0289923560908652
3.45,-0.091684598091751,-0.0302940716539477
3.452,-0.093060217496694,-0.0315221842754222
3.454,-0.094549958076179,-0.0326824142183464
3.456,-0.096177375667762,-0.0337473566279808
3.458,-0.097915784356086,-0.0347277115653249
3.46,-0.099775859733375,-0.0356059630906916
3.462,-0.10174428819974,-0.0363692717875298
3.464,-0.103817089703315,-0.0370326312062831
3.466,-0.10598240432024,-0.03754809943846
3.468,-0.108244512914509,-0.0379597795907953
3.47,-0.11058222588762,-0.0382383538595774
3.472,-0.112988856088117,-0.0383734126451271
3.474,-0.11546927921093,-0.0383708678463834
3.476,-0.118009009056626,-0.0382230017656884
3.478,-0.120594496850446,-0.0379238492536532
3.48,-0.123225415831248,-0.0374738281742444
3.482,-0.125891883279277,-0.0368454339399487
3.484,-0.128573975156791,-0.0360934092571627
3.486,-0.131271276248562,-0.0351549967916594
3.488,-0.133983396376627,-0.0340701102742589
3.49,-0.136674846236493,-0.0328126118466426
3.492,-0.139366069632232,-0.0314031259673103
3.494,-0.142026780776395,-0.0298205243777207
3.496,-0.144670174142865,-0.028085312098537
3.498,-0.147256377983101,-0.0261873602561169
3.5,-0.149801954518695,-0.0241251054790681
3.502,-0.152286842206824,-0.0219221163050349
3.504,-0.154698671874503,-0.0195513110276262
3.506,-0.157028396895821,-0.0170400447034859
3.508,-0.159273389708933,-0.0143636327795658
3.51,-0.161434065443048,-0.0115653293405278
3.512,-0.163495274305218,-0.0086329930863632
3.514,-0.165424576367046,-0.0055743906001
3.516,-0.167254063641291,-0.0023681965857682
3.518,-0.168955637168324,0.000950767203533098
3.52,-0.170533346062516,0.0043784652173474
3.522,-0.171935105168488,0.0079036535994514
3.524,-0.17323271360727,0.0115350807792149
3.526,-0.174368426062351,0.0152485803028455
3.528,-0.175357596075635,0.0190572669344167
3.53,-0.176171887093279,0.0229144668667345
3.532,-0.176835587501471,0.0268858648620371
3.534,-0.177303373032063,0.0308618783024984
3.536,-0.177617711538135,0.0349085476805535
3.538,-0.177768333679494,0.039002025949104
3.54,-0.17771962337802,0.0430936757974222
3.542,-0.177506331343001,0.0472287951580213
3.544,-0.17711299748631,0.0513826881234127
3.546,-0.17653839497755,0.0555058547275896
3.548,-0.175795636079099,0.0596641942192344
3.55,-0.174840302331067,0.0637638666258438
3.552,-0.173727068446199,0.0678387497915516
3.554,-0.172434835294678,0.0718787882886826
3.556,-0.170970479258874,0.0758790996682487
3.558,-0.169331996838016,0.0798181103262887
3.56,-0.167512996682794,0.0837052610890024
3.562,-0.165539650109887,0.0874840983907256
3.564,-0.163382630466437,0.0912071667717101
3.566,-0.161086057424482,0.0948074049956854
3.568,-0.15863412172527,0.0983244642272709
3.57,-0.156030766933569,0.10173838087921
3.572,-0.153291558981901,0.105020319129353
3.574,-0.150402819274728,0.108193492267518
3.576,-0.147403076892573,0.11121823405213
3.578,-0.144280023106098,0.114095820226669
3.58,-0.141037203540155,0.116845069185946
3.582,-0.137693992997755,0.119441976122169
3.584,-0.134240370284027,0.121887496270838
3.586,-0.130716905580117,0.124163732206425
3.588,-0.127089086027043,0.12628831704789
3.59,-0.123412004339549,0.128227309463994
3.592,-0.119678745409871,0.129990199908416
3.594,-0.115877160160522,0.131581388904679
3.596,-0.112032901614021,0.132998705050888
3.598,-0.108158565922576,0.134228146864302
3.6,-0.104257523407298,0.135284560675643
3.602,-0.100341401503316,0.136153976693311
3.604,-0.096437482412454,0.136841447797309
3.606,-0.092515720569802,0.137348007393068
3.608,-0.088623134783851,0.137667738055005
3.61,-0.0847433981445481,0.137810055199927
3.612,-0.0809210169228813,0.137778979380241
3.614,-0.07713404183643,0.137565155346968
3.616,-0.0733898246739138,0.137191771452559
3.618,-0.0697086720687556,0.136625354603539
3.62,-0.0661133571925832,0.135913178392946
3.622,-0.0625964280988115,0.13503512486256
3.624,-0.0591722038461408,0.134007542524985
3.626,-0.0558553327021196,0.132825420525515
3.628,-0.0526280973566849,0.131490483193809
3.63,-0.0495200239257032,0.130031572015369
3.632,-0.0465088636045401,0.128424569922858
3.634,-0.0436461963516142,0.126713414427207
3.636,-0.0409263554220088,0.124877364908514
3.638,-0.038334644551026,0.122932997726804
3.64,-0.0358944569778427,0.120888448872567
3.642,-0.0335924687291157,0.118755490207104
3.644,-0.0314458883226463,0.116542299692696
3.646,-0.0294693527110528,0.114245848222606
3.648,-0.0276409130054769,0.111888302110864
3.65,-0.0259807017093152,0.10948149743186
3.652,-0.0244969938219752,0.107015826616808
3.654,-0.0231786611026551,0.104531537021948
3.656,-0.0220263849241943,0.102012143615421
3.658,-0.0210410692469053,0.099466573606148
3.66,-0.0202467498024804,0.096932180287507
3.662,-0.0196146868279445,0.094398584113842
3.664,-0.0191473543196043,0.091868431993797
3.666,-0.0188450163870947,0.089355697375651
3.668,-0.0187127532574271,0.086898880041292
3.67,-0.0187515354091147,0.084468950827007
3.672,-0.0189416713863519,0.082088376733068
3.674,-0.0192993682831932,0.079773959441169
3.676,-0.0197992244178499,0.077523111951703
3.678,-0.0204738043070144,0.075361869890789
3.68,-0.0212657984702285,0.073279471647218
3.682,-0.0222032764843316,0.071295271239147
3.684,-0.0232814967679687,0.069408060040662
3.686,-0.0244843549761483,0.067645843738165
3.688,-0.025795409144882,0.065981461736555
3.69,-0.0272259180258625,0.064442160095286
3.692,-0.0287615510512549,0.063050375684221
3.694,-0.030391716578515,0.061777444729341
3.696,-0.0321176648253013,0.060644681388246
3.698,-0.0339171651344635,0.059680318045544
3.7,-0.035782434949104,0.05884241406803
3.702,-0.0377184424477052,0.058171145719723
3.704,-0.0397046554793483,0.057660219946724
3.706,-0.0417358078390189,0.057307909511918
3.708,-0.0437989523279834,0.057102239239536
3.71,-0.0458877233482514,0.0570759606295
3.712,-0.0479938314674272,0.057205657601676
3.714,-0.050097794911879,0.057519231329918
3.716,-0.0521993368044147,0.057986975745981
3.718,-0.0542912289401621,0.058622240873269
3.72,-0.0563467044649527,0.059429720340434
3.722,-0.0583870608020388,0.060392851024807
3.724,-0.060364061634209,0.061524149355697
3.726,-0.0622921717659882,0.062819770957529
3.728,-0.0641709681019552,0.064258283892823
3.73,-0.0659522030731279,0.065855667295062
3.732,-0.0676723250035063,0.067600922581342
3.734,-0.0693017401066625,0.069483832674959
3.736,-0.0708239620824823,0.071510327507801
3.738,-0.0722333687239857,0.073678430222591
3.74,-0.0735456954142767,0.075951683705037
3.742,-0.0747402370535766,0.07835310751579
3.744,-0.075787396686405,0.0808763748223
3.746,-0.0767167860588577,0.083496425510493
3.748,-0.0774939742459832,0.08621349377637
3.75,-0.078137411879317,0.089019378217433
3.752,-0.0786276111444924,0.091916969383967
3.754,-0.0789395658789863,0.094878461870228
3.756,-0.0791055106300003,0.097898492705486
3.758,-0.0791051321924503,0.100984892854918
3.76,-0.0789337312170652,0.104114187170421
3.762,-0.0785808888686571,0.107267159601226
3.764,-0.0780645076944565,0.110464594088489
3.766,-0.0773776609626317,0.113664101454677
3.768,-0.0765043372108991,0.116867658648851
3.77,-0.0754653232152739,0.120087815696864
3.772,-0.0742498076089708,0.123273713687422
3.774,-0.0728471315614071,0.126438559099994
3.776,-0.0712680794373638,0.129578021600683
3.778,-0.0695302637762697,0.132681136811911
3.78,-0.0676084017716254,0.135696056522047
3.782,-0.0655126439005656,0.138677237023885
3.784,-0.0632651150135603,0.141586382647062
3.786,-0.0608448715242462,0.14439892411731
3.788,-0.0582783524594181,0.147137004065673
3.79,-0.0555542361591455,0.149759853387565
3.792,-0.0526927712270407,0.152279012101754
3.794,-0.0496701594706623,0.154699632379247
3.796,-0.0465159869420813,0.156980632622083
3.798,-0.0432380990685669,0.159124000412006
3.8,-0.0398508731434468,0.161137724719077
3.802,-0.0363420973770908,0.163006102290191
3.804,-0.032714074628064,0.164714865907454
3.806,-0.0290014156144245,0.166275664286585
3.808,-0.0251960580451475,0.167668475075074
3.81,-0.0213077767217502,0.168898703330413
3.812,-0.017357921400017,0.169940989148143
3.814,-0.0133328927719098,0.170825559259862
3.816,-0.00925720312762824,0.171536758741147
3.818,-0.00514804969781577,0.172026835019396
3.82,-0.00100871471592888,0.172354719701597
3.822,0.00315877047925717,0.172494086632044
3.824,0.00734821506394094,0.172460758349941
3.826,0.0115420890254711,0.172224035276983
3.828,0.0157116092903591,0.171804732814835
3.83,0.0198785646561134,0.171188355782572
3.832,0.0240046035429344,0.17038358251403
3.834,0.028106826587221,0.169396926405142
3.836,0.0321551763189614,0.168229530281143
3.838,0.0361432232769229,0.166881683363797
3.84,0.0400711790746799,0.165350846818522
3.842,0.0439101195165272,0.163648790291449
3.844,0.0476659481131687,0.161778554386506
3.846,0.051345072157273,0.159740917182342
3.848,0.054893864118873,0.157550045839313
3.85,0.0583386923405855,0.155190225966336
3.852,0.061678589792659,0.15268960506777
3.854,0.0648863942178963,0.150054558940213
3.856,0.0679548049463614,0.147283071889251
3.858,0.0708744974099444,0.144385005366237
3.86,0.073658098886777,0.141365580944943
3.862,0.0762780389054504,0.13825095392826
3.864,0.0787307729990784,0.135012298994821
3.866,0.0810345451992071,0.131688600875613
3.868,0.0831615653695446,0.128284331060543
3.87,0.0851084144495121,0.124802950525022
3.872,0.0868964769376653,0.121247168286482
3.874,0.0884949265549071,0.117647247650894
3.876,0.0899060670075539,0.114001538485267
3.878,0.0911260952402417,0.11032072004113
3.88,0.0921557947686352,0.106614281533995
3.882,0.0930158404720098,0.102894350847716
3.884,0.0936820128356259,0.099171084306439
3.886,0.0941570260529743,0.095445613646021
3.888,0.0944487060478174,0.091736782254479
3.89,0.0945626291860879,0.088059419669916
3.892,0.0944832778376088,0.084398343484054
3.894,0.0942179441676607,0.080811196563631
3.896,0.0937911781883541,0.07726347091488
3.898,0.0931827680798694,0.0737725124799227
3.9,0.0924020838815106,0.070368617453221
3.902,0.0914573479025812,0.0670492770280452
3.904,0.0903508570431329,0.0638122660629138
