"Freq [GHz]","re(S(Antenna1_1_1,Antenna1_1_1)) []","im(S(Antenna1_1_1,Antenna1_1_1)) []"
3,-0.200273991732393,-0.162171932647166
3.0175,-0.208572542878813,-0.147317455511393
3.035,-0.215804821169677,-0.131598185333235
3.0525,-0.221630406151628,-0.115098493708954
3.07,-0.225778440651473,-0.0980981605051744
3.0875,-0.228151877177716,-0.0809927500292111
3.105,-0.228862174159793,-0.0641673139930729
3.1225,-0.228180419299642,-0.0478749628276398
3.14,-0.226424767462517,-0.0321698953835038
3.1575,-0.223830022712542,-0.01692251439413
3.175,-0.220452739645347,-0.0019110477423757
3.1925,-0.216151255103707,0.013047075456697
3.21,-0.210650051471543,0.0279774474908935
3.2275,-0.203647118989898,0.042707916718907
3.245,-0.194966389832488,0.0568347569370847
3.2625,-0.184710625557122,0.0698845613083738
3.28,-0.173193212787095,0.0815075233513707
3.2975,-0.160840104020746,0.0915617484448073
3.315,-0.148043997586738,0.100134185859884
3.3325,-0.135036633693374,0.107468845947547
3.35,-0.12183171642073,0.113832422007748
3.3675,-0.108262052554088,0.119373078552612
3.385,-0.0940959422335257,0.124031181949513
3.4025,-0.0791852171476052,0.127539870352757
3.42,-0.0635838140782445,0.129516916761361
3.4375,-0.0475869823071872,0.129611952522451
3.455,-0.0316877779970284,0.127592834622013
3.4725,-0.016451956415579,0.123635317044426
3.49,-0.00224703595672149,0.118095644441246
3.5075,0.0108036253725487,0.111415128906848
3.525,0.0228140650863739,0.103960686231772
3.5425,0.0340351947518429,0.0959038767891344
3.56,0.0447034642015276,0.0871866083141442
3.5775,0.0549016021588105,0.0775858079281756
3.595,0.0644886326119724,0.0668489767176434
3.6125,0.073127581279513,0.0548438998189833
3.63,0.0803991878135797,0.041660346528875
3.6475,0.0859547698314567,0.0276214216028825
3.665,0.0896283807856196,0.0132257892562499
3.6825,0.0915699398627762,-0.00103309423972412
3.7,0.0921242302039312,-0.0148953120040457
3.7175,0.0916404231680535,-0.0283180838790002
3.735,0.0903568877847256,-0.0414515405197986
3.7525,0.0883130912799017,-0.0545253012724919
3.77,0.08534893747573,-0.0677072214749587
3.7875,0.0811894260313248,-0.0809926968335199
3.805,0.0755780005605687,-0.0941692530202459
3.8225,0.0684028587047634,-0.106869712295311
3.84,0.0597642334566762,-0.118690927153584
3.8575,0.0499554012330956,-0.129328571958082
3.875,0.0393657190255063,-0.13867235230687
3.8925,0.0283683976781333,-0.1468672374492
3.91,0.0170847836901803,-0.154142633182677
3.9275,0.00548172332994257,-0.160703954149269
3.945,-0.0065973088026892,-0.166634380101773
3.9625,-0.0193274725990443,-0.171848066275867
3.98,-0.032792680426502,-0.17611600202855
3.9975,-0.0469146713946682,-0.179152046084147
4.015,-0.0614484294942807,-0.180723277092408
4.0325,-0.076044353665459,-0.180740192796456
4.05,-0.0903512033095466,-0.179291418112086
4.0675,-0.104118385747123,-0.176610381114149
4.085,-0.117257411375618,-0.172988581237408
4.1025,-0.129839414755541,-0.168670818939002
4.12,-0.142031439887899,-0.163774063384121
4.1375,-0.153998357482926,-0.158261334362431
4.155,-0.165810318346465,-0.151979472716442
4.1725,-0.17739261518177,-0.144744095033185
4.19,-0.188537213316105,-0.13643654627256
4.2075,-0.198970236671515,-0.127073480772129
4.225,-0.208447374643467,-0.116821260034647
4.2425,-0.21683833547268,-0.105949850649886
4.26,-0.22416628332967,-0.0947452624145502
4.2775,-0.230586581090081,-0.083416071321592
4.295,-0.236313674368024,-0.0720317175881934
4.3125,-0.241525774945881,-0.0605173013171176
4.33,-0.246333195187705,-0.0486926791013655
4.3475,-0.250570475466356,-0.036378356655422
4.365,-0.254033449791681,-0.0235331777116522
4.3825,-0.25650908065263,-0.0102505270121918
4.4,-0.257856695977527,0.0032648631796782
4.4175,-0.258057749156144,0.0167627029837663
4.435,-0.257215894377872,0.0300277446495901
4.4525,-0.255509441672735,0.0429426565340379
4.47,-0.253117015764539,0.0555088314777535
4.4875,-0.250147190385215,0.0678183150628658
4.505,-0.246600355586137,0.0799897404854633
4.5225,-0.242377423433815,0.0920952204734541
4.54,-0.237330844271558,0.104108161943931
4.5575,-0.231336473522041,0.115892985095131
4.575,-0.224356758672966,0.12724053276618
4.5925,-0.216469559106467,0.137934501016528
4.61,-0.207850975262625,0.147821847786937
4.6275,-0.198719146493317,0.156858685214302
4.645,-0.189261657647972,0.165113108705299
4.6625,-0.179575765457047,0.172723733110165
4.68,-0.169645550921464,0.179830482348252
4.6975,-0.159365380633844,0.186505356720309
4.715,-0.148600566438439,0.192711052617973
4.7325,-0.137261176928018,0.198304361609632
4.75,-0.125359502173068,0.203083537374309
4.7675,-0.113058982005155,0.206815155075473
4.785,-0.100598089826277,0.209475868596192
4.8025,-0.0881882884896192,0.211118688470143
4.82,-0.0759722646188895,0.211877706626683
4.8375,-0.0639943328856009,0.21191162201585
4.855,-0.0522096517741797,0.211342737708108
4.8725,-0.0405263897853133,0.210214727516845
4.89,-0.0288628280829593,0.208484034332987
4.9075,-0.0171967298539405,0.20604613252574
4.925,-0.0055885399871066,0.202784515900667
4.9425,0.00582896300734012,0.198622253512552
4.96,0.0168886334418632,0.193556093131709
4.9775,0.0274382817083577,0.187660932371094
4.995,0.0373815756798626,0.181064624480787
5.0125,0.0466950764719308,0.173904635231935
5.03,0.0554161035899055,0.166284562689259
5.0475,0.0636078537191529,0.158247671005956
5.065,0.0713168604231996,0.149777032679511
5.0825,0.0785402092828459,0.140820871136724
5.1,0.0852152568581856,0.131331721181945
5.1175,0.0912350598545217,0.121302980624013
5.135,0.0964822683255779,0.110788129368638
5.1525,0.100867064476838,0.0998954278872158
5.17,0.104353591277388,0.0887610754530518
5.1875,0.106964483225343,0.0775124585838456
5.205,0.108762332883359,0.066236822089362
5.2225,0.109816386132895,0.0549680859994012
5.24,0.110168635531229,0.0436968091685276
5.2575,0.109813472715932,0.032398689515998
5.275,0.108699274868363,0.0210694152387234
5.2925,0.106751168233607,0.00975118051545873
5.31,0.103905478910854,-0.00146029526403489
5.3275,0.100141587241483,-0.012431343806773
5.345,0.0954979632968454,-0.0230223260444889
5.3625,0.0900656162564344,-0.0331230716561674
5.38,0.0839614051759566,-0.0426773673558153
5.3975,0.077291894803097,-0.05168647437738
5.415,0.0701223614191697,-0.0601901387696799
5.4325,0.0624635631759566,-0.0682327084910256
5.45,0.0542817682693112,-0.0758280924169465
5.4675,0.0455281302876084,-0.0829378995654214
5.485,0.0361755912593124,-0.0894719004291569
5.5025,0.0262482790008773,-0.0953110019243127
5.52,0.0158311857448837,-0.10034378935676
5.5375,0.0050557025903005,-0.104502034667402
5.555,-0.00593372625554388,-0.107780713097856
5.5725,-0.0170188329703911,-0.110234031542036
5.59,-0.0281369911806877,-0.111948450400478
5.6075,-0.0392888369602019,-0.113002944000661
5.625,-0.050520434510242,-0.113432093402696
5.6425,-0.0619338138818087,-0.113221308008051
5.66,-0.0735085800107226,-0.112231097322248
5.6775,-0.0851756783044964,-0.110352631885608
5.695,-0.0968060829464867,-0.107511237525782
5.7125,-0.108241370730013,-0.103694481817282
5.73,-0.1193341134054,-0.0989566122015912
5.7475,-0.129982207502965,-0.0933986472218344
5.765,-0.140144203254091,-0.0871328544159316
5.7825,-0.149830539408325,-0.0802460855252694
5.8,-0.159075159062542,-0.0727763805832716
5.8175,-0.167899519909136,-0.0647115884332683
5.835,-0.176283651301523,-0.0560098323760766
5.8525,-0.184155747955172,-0.0466330264549676
5.87,-0.191404193324907,-0.0365796738605935
5.8875,-0.197906934681814,-0.0259037188300778
5.905,-0.203566321247153,-0.0147119608318854
5.9225,-0.208335496761143,-0.00314113939564318
5.94,-0.212225928403136,0.00867615480027357
5.9575,-0.21529321286552,0.020643242345127
5.975,-0.217606913351746,0.0327163124261481
5.9925,-0.219216454621906,0.0449000307291522
6.01,-0.220126590901865,0.05722372800721
6.0275,-0.220292111219147,0.0697077655719622
6.045,-0.219633801435059,0.0823335220592283
6.0625,-0.218069264213807,0.0950289784839474
6.08,-0.215541728560964,0.107680414930116
6.0975,-0.212058301006916,0.120134276990955
6.115,-0.207684040239995,0.132271205733157
6.1325,-0.202513842670825,0.144019922634893
6.15,-0.196638173929308,0.155362932410646
6.1675,-0.19011283480128,0.166320595477736
6.185,-0.182944772870911,0.176920574739077
6.2025,-0.175099248699351,0.187165311283913
6.22,-0.1665250247936,0.197010666474735
6.2375,-0.157187136803803,0.206364120056741
6.255,-0.147094011024475,0.215102940798126
6.2725,-0.136308222058257,0.223104783454242
6.29,-0.124936920444036,0.230278374670213
6.3075,-0.113106139432788,0.236582169426855
6.325,-0.100929532194219,0.242023904075327
6.3425,-0.0884841052129473,0.246641745366687
6.36,-0.0758024727452886,0.250475093521402
6.3775,-0.062884354400211,0.253537114072229
6.395,-0.0497222430047478,0.255800194293789
6.4125,-0.0363305088014966,0.257200161453555
6.43,-0.0227659156143815,0.257657455715166
6.4475,-0.00913107617751783,0.257106599408856
6.465,0.00444069433155817,0.255521979078036
6.4825,0.0178131507005387,0.252929462159761
6.5,0.0308764465839054,0.249399078380388
6.5175,0.0435512480384139,0.245030545652494
6.535,0.0558496346373921,0.239905550961515
6.5525,0.0677863845996851,0.234056816660696
6.57,0.0793663866793904,0.227475688968872
6.5875,0.0905608421169483,0.220129173710847
6.605,0.101299003949525,0.211987298402475
6.6225,0.111478106485278,0.20304930295106
6.64,0.120986748686592,0.19335812820848
6.6575,0.129731794721054,0.182997797778574
6.675,0.137657826329785,0.172075376986589
6.6925,0.144751582978179,0.160695349407762
6.71,0.151030148015027,0.148937051398003
6.7275,0.156518261567592,0.136844237649549
6.745,0.161224404033745,0.1244306744079
6.7625,0.165125555177758,0.111699046703097
6.78,0.168166791350812,0.0986651105372089
6.7975,0.170275734876442,0.0853770409668611
6.815,0.171385837942319,0.0719220446112632
6.8325,0.171458991183757,0.0584175875643927
6.85,0.170498353479892,0.0449908548052374
6.8675,0.168546377081062,0.0317547671400466
6.885,0.165669054873933,0.0187901622870695
6.9025,0.161932979129324,0.00614112640823982
6.92,0.157384635214931,-0.00617495754259506
6.9375,0.152040341554856,-0.0181470825910846
6.955,0.145881357938966,-0.0297531921213555
6.9725,0.1388940665745,-0.0409222013494088
6.99,0.131084627254578,-0.051563182337422
7.0075,0.122492446663224,-0.0615760895818591
7.025,0.11319062560076,-0.0708723200500676
7.0425,0.103274219793222,-0.079391089281499
7.06,0.0928415087088219,-0.0871053701590834
7.0775,0.0819760003055321,-0.0940156009946644
7.095,0.0707362398106477,-0.100134338833419
7.1125,0.0591570375149839,-0.105468515291534
7.13,0.0472609762636325,-0.110006619781307
7.1475,0.0350749556664373,-0.113715833473031
7.165,0.0226446969782428,-0.116549901573406
7.1825,0.0100412247903212,-0.118464133089571
7.2,-0.0026431807164812,-0.119431133456774
7.2175,-0.0153076852758241,-0.119450778227721
7.235,-0.0278588946830095,-0.118550483448945
7.2525,-0.0402235798989432,-0.11677591234469
7.27,-0.0523530837079958,-0.11417617824931
7.2875,-0.064217903200052,-0.110789767895479
7.305,-0.0757950269070235,-0.106636973203111
7.3225,-0.0870535512288059,-0.101721813865937
7.34,-0.0979447231692853,-0.096042447837649
7.3575,-0.108400637577404,-0.0896055533176372
7.375,-0.118342179255785,-0.0824385576930326
7.3925,-0.127692902531499,-0.0745946682429323
7.41,-0.13639579093772,-0.0661512268515108
7.4275,-0.144420085660828,-0.0571873780897337
7.445,-0.151756297644934,-0.0477744795272781
7.4625,-0.158406743506618,-0.0379677281141378
7.48,-0.164373425872391,-0.027805153994104
7.4975,-0.169648162255098,-0.0173139131830565
7.515,-0.174208752733687,-0.00652094153748121
7.5325,-0.178022416054328,0.00453655537832449
7.55,-0.18105478524314,0.0158050338032137
7.5675,-0.183280614434179,0.0272152774413873
7.585,-0.184691825489026,0.0386893246826263
7.6025,-0.185299763409536,0.0501506968297989
7.62,-0.185130975682177,0.061533756584946
7.6375,-0.184218463951756,0.0727885327713939
7.655,-0.182592116364514,0.0838793117526568
7.6725,-0.180272236089748,0.0947778849229762
7.69,-0.177268697034122,0.10545449574907
7.7075,-0.173585881421158,0.115870392379032
7.725,-0.169231168675889,0.125975145342933
7.7425,-0.164223315272195,0.13570987031264
7.76,-0.158597151433981,0.145015044118973
7.7775,-0.152402563397975,0.153839717550505
7.795,-0.145698084885967,0.162148365888755
7.8125,-0.138541626419572,0.169922590145515
7.83,-0.130989007062924,0.177159653701331
7.8475,-0.123066236621367,0.183859109740505
7.865,-0.114796657683492,0.190014000271818
7.8825,-0.10619981907289,0.195607300950082
7.9,-0.0972998251474672,0.200611812976029
7.9175,-0.0881320178609264,0.204995129077863
7.935,-0.0787453064312491,0.20872764992071
7.9525,-0.0691992036834235,0.211790439188075
7.97,-0.0595567265021306,0.214179790722751
7.9875,-0.0498759458209056,0.215906693618132
8.005,-0.0402034970113984,0.216991397396033
8.0225,-0.0305725876857963,0.217455207071011
8.04,-0.0210037181864569,0.217312034407276
8.0575,-0.011517394748025,0.216563413290687
8.075,-0.00214316730427941,0.215202948182281
8.0925,0.00708003808986506,0.213220721063287
8.11,0.0161002673318011,0.210611817559158
8.1275,0.0248565877114547,0.207383949018794
8.145,0.0332868579881109,0.203561336175309
8.1625,0.0413363065295925,0.199183406816273
8.18,0.048963729576497,0.194298857594319
8.1975,0.0561430778524831,0.188957395110869
8.215,0.0628600073264723,0.183202323137079
8.2325,0.0691049219452329,0.177066758657872
8.25,0.0748653737548975,0.170574797497957
8.2675,0.080118241132242,0.163754239262193
8.285,0.084839907069407,0.156622391043077
8.3025,0.0889961873586952,0.14921367636133
8.32,0.0925561936494401,0.1415753616127
8.3375,0.0954995638877216,0.133764406317382
8.355,0.0978203477944448,0.125840581906457
8.3725,0.0995259962103204,0.117858643111112
8.39,0.100631888797187,0.109862693431029
8.4075,0.101153630080831,0.101884985014024
8.425,0.10110023715533,0.0939496005048897
8.4425,0.100470982248699,0.0860794974715089
8.46,0.0992571860439104,0.078304038954938
8.4775,0.0974482683621336,0.0706639278344222
8.495,0.0950396446170861,0.0632114928885666
8.5125,0.092039297292379,0.0560061345049646
8.53,0.0884703617650918,0.0491066893606402
8.5475,0.084368652273443,0.0425637354733736
8.565,0.0797760930927361,0.0364149181011779
8.5825,0.0747327003558308,0.0306851927651863
8.6,0.0692704012982182,0.0253919091297525
8.6175,0.0634113031593371,0.0205526754459784
8.635,0.0571712763481602,0.0161927434996453
8.6525,0.0505675713237316,0.0123487378095277
8.67,0.0436274948369071,0.00906691916460303
8.6875,0.0363946180433478,0.00639630987987585
8.705,0.0289318248816411,0.00439324226682579
8.7225,0.0213194006041694,0.00306654440509328
8.74,0.0136302661606035,0.00241813700073556
8.7575,0.00592835060025332,0.00243467493011299
8.775,-0.00173631165854118,0.00309538399153334
8.7925,-0.00932697804817011,0.00438100996077681
8.81,-0.016814559653614,0.00628043312419273
8.8275,-0.0241693521806673,0.00879247337591858
8.845,-0.0313535124910632,0.0119223295997345
8.8625,-0.0383172993931649,0.0156742034520205
8.88,-0.0450005657534367,0.0200431273203094
8.8975,-0.051338896400679,0.025009281610972
8.915,-0.0572719596372893,0.030537056964868
8.9325,-0.0627507948102765,0.0365792107720138
8.95,-0.0677412181042545,0.0430844440920354
8.9675,-0.0722221006890438,0.0500053850849563
8.985,-0.0761793267705091,0.0573038337599962
9.0025,-0.0795979559805628,0.0649512446258338
9.02,-0.0824558138633603,0.0729243459316079
9.0375,-0.08472114142373,0.0811977473262258
9.055,-0.0863552902668553,0.0897365917944286
9.0725,-0.0873194136349966,0.0984922819667817
9.09,-0.0875824924926552,0.107403066008121
9.1075,-0.0871274979575537,0.116399303275282
9.125,-0.0859532465860924,0.125411334554632
9.1425,-0.0840682611006355,0.134381900074965
9.16,-0.0814899987848488,0.143253938884134
9.1775,-0.0782338977493176,0.151984431702852
9.195,-0.0743101685386529,0.160534546756043
9.2125,-0.069723422561297,0.168863402565453
9.23,-0.0644762946339098,0.176922947590615
9.2475,-0.0585755971873708,0.184656131887881
9.265,-0.0520385375312223,0.191999251877419
9.2825,-0.0448964848550782,0.198887711377072
9.3,-0.0371947072254861,0.205263094685917
9.3175,-0.0289880501349004,0.211078912496799
9.335,-0.020334098263604,0.216302867336382
9.3525,-0.0112863441923963,0.220914807135781
9.37,-0.00188990061539893,0.224901185846243
9.3875,0.00781867254799268,0.228248193415472
9.405,0.0178074299492882,0.230936234904261
9.4225,0.0280425766341866,0.232937927244487
9.44,0.0384820419538653,0.234220434320496
9.4575,0.0490716529770701,0.234751291320089
9.475,0.0597454811147399,0.234505518087624
9.4925,0.0704303378921006,0.233471309273378
9.51,0.0810527988683132,0.231652117076806
9.5275,0.0915461519068093,0.229064312590819
9.545,0.101854677663731,0.225731302273408
9.5625,0.111933676720166,0.221676339716911
9.58,0.121746620636188,0.216920268404404
9.5975,0.131257445731403,0.21146866412126
9.615,0.140421513997562,0.205322706040128
9.6325,0.149181511658663,0.198484516467994
9.65,0.157468537251417,0.190965911404566
9.6675,0.165208309071754,0.182794863241029
9.685,0.172330084608162,0.174017037691176
9.7025,0.178774771635061,0.164691750648244
9.72,0.18449901789003,0.154883950419915
9.7375,0.189473677554023,0.144655454862577
9.755,0.193677325395758,0.134059000457513
9.7725,0.197087509492366,0.12313754884424
9.79,0.199673381393224,0.111929182653331
9.8075,0.201392823841251,0.100475652124194
9.825,0.202195403861703,0.0888311248356227
9.8425,0.202030122890813,0.0770675648211721
9.86,0.200854962931148,0.0652744965383264
9.8775,0.198644445799363,0.0535531794028825
9.895,0.195392172197806,0.0420075270155346
9.9125,0.191107318321198,0.0307355163367317
9.93,0.185806556087659,0.0198247526024666
9.9475,0.179504835629783,0.00935427899131163
9.965,0.172209116283262,-0.000597759460184575
9.9825,0.163918157685411,-0.0099433992787786
10,0.154629230877426,-0.0185752652962027
