"Freq [GHz]","re(S(Antenna1_1_1,Antenna1_1_1)) []","im(S(Antenna1_1_1,Antenna1_1_1)) []"
3,-0.201499086463083,-0.168760802529326
3.0175,-0.211214421282113,-0.153575221755694
3.035,-0.219700230082577,-0.137189857162135
3.0525,-0.226572352479528,-0.119767615600154
3.07,-0.231531082261973,-0.101633572949774
3.0875,-0.234427225479216,-0.0832166713023111
3.105,-0.235292240817493,-0.0649676000426729
3.1225,-0.234325741148642,-0.0472727969129398
3.14,-0.231843830082517,-0.0303851949208418
3.1575,-0.228201018617542,-0.01438818041133
3.175,-0.223704668733947,0.000798766220624296
3.1925,-0.218542626275567,0.015374212886397
3.21,-0.212741563765643,0.0295797257402335
3.2275,-0.206179291698898,0.043688775465597
3.245,-0.198500913209488,0.0577959668596647
3.2625,-0.189357244943122,0.0716660219184738
3.28,-0.178533169299695,0.0849526332564707
3.2975,-0.165978710900446,0.0972059444790073
3.315,-0.151840541877238,0.107961434954784
3.3325,-0.136447839132174,0.116832497501347
3.35,-0.12025657260653,0.123584847204248
3.3675,-0.103766004779088,0.128175568641012
3.385,-0.0874274961615257,0.130748211798613
3.4025,-0.0715672331076052,0.131585826347757
3.42,-0.0563409398181445,0.131033723899361
3.4375,-0.0417308936530872,0.129410790594451
3.455,-0.0275484601890284,0.126907702008013
3.4725,-0.013544139919579,0.123547264019926
3.49,0.000410708303278513,0.119163284712846
3.5075,0.0143066091355487,0.113505738642848
3.525,0.0279710954810739,0.106322018312272
3.5425,0.0410858043321429,0.0974393205127344
3.56,0.0532405522912276,0.0868283822536442
3.5775,0.0640108579859105,0.0746336785932556
3.595,0.0730402030709724,0.0611634125845434
3.6125,0.080107616024613,0.0468421913965833
3.63,0.0851649795342797,0.032137960097455
3.6475,0.0883358248454567,0.0174805767721825
3.665,0.0898068362346196,0.00333181561724988
3.6825,0.0899989361238762,-0.0101535881997241
3.7,0.0892822251119312,-0.0231551691720457
3.7175,0.0878172193140535,-0.0358091707953002
3.735,0.0856385954537256,-0.0482778825961986
3.7525,0.0826649591569017,-0.0606848275724919
3.77,0.07873735133163,-0.0730639775909587
3.7875,0.0736760599071248,-0.0853343311315199
3.805,0.0673414889450687,-0.0973048738722459
3.8225,0.0596844180980634,-0.108707709216711
3.84,0.0507739430923762,-0.119250665361484
3.8575,0.0407969421251956,-0.128676407390782
3.875,0.0300297208843063,-0.13681391542963
3.8925,0.0192593541860333,-0.1437331558353
3.91,0.00826476631327027,-0.149563820139277
3.9275,-0.00279815497325743,-0.154450964673269
3.945,-0.0138618412656892,-0.158563277591373
3.9625,-0.0249438825500443,-0.162050758274447
3.98,-0.036125434464502,-0.16500966948805
3.9975,-0.0475169581744682,-0.167462021452147
4.015,-0.0592195326951807,-0.169353284709408
4.0325,-0.071290527550359,-0.170567832899456
4.05,-0.0837210149225466,-0.170957733831087
4.0675,-0.0964293342371226,-0.170377776211049
4.085,-0.109271420957618,-0.168718586639608
4.1025,-0.122064750104241,-0.165930510302202
4.12,-0.134619852515759,-0.162033337241821
4.1375,-0.146771941742726,-0.157110353691431
4.155,-0.158405495847065,-0.151288789797812
4.1725,-0.169466533624562,-0.144711714522685
4.19,-0.179960324453005,-0.13750815560246
4.2075,-0.189935663406315,-0.129768358774789
4.225,-0.199459855278167,-0.121529673750547
4.2425,-0.20859052092338,-0.112775939386886
4.26,-0.21735086021087,-0.10345006434455
4.2775,-0.225714007686481,-0.093476494414592
4.295,-0.233599871667024,-0.0827880944940935
4.3125,-0.240884897815881,-0.0713511144140176
4.33,-0.247448223061705,-0.0587683343013655
4.3475,-0.253011357406056,-0.045551247488722
4.365,-0.257478909582581,-0.0318401413050522
4.3825,-0.26080101759243,-0.0177950949949918
4.4,-0.262975789347727,-0.0035752251773218
4.4175,-0.264042270951044,0.0106803569436563
4.435,-0.264065974239116,0.0248658628713901
4.4525,-0.263120527668435,0.0389138471439779
4.47,-0.261269699019239,0.0527912999406535
4.4875,-0.258553761440216,0.0664881748728658
4.505,-0.254983037565207,0.0800013230370633
4.5225,-0.250539744747515,0.0933176906968541
4.54,-0.245187377526458,0.106400637608831
4.5575,-0.238885223079841,0.119182382338871
4.575,-0.231604562969566,0.13156410143368
4.5925,-0.223342875850067,0.143423452271228
4.61,-0.214132942173411,0.154627653821137
4.6275,-0.204045001359317,0.165049102278902
4.645,-0.193181722305872,0.174580057733599
4.6625,-0.181667348250147,0.183143284253165
4.68,-0.169633611728864,0.190696552642152
4.6975,-0.157205622901744,0.197230369020509
4.715,-0.144490802156839,0.202759833247153
4.7325,-0.131573111109118,0.207312811675432
4.75,-0.118513541659468,0.210917351084609
4.7675,-0.105784726662456,0.213268404640773
4.785,-0.093068628653277,0.214800291335492
4.8025,-0.0803931758391192,0.215508885620443
4.82,-0.0678005358372895,0.215382136518483
4.8375,-0.0553496630245009,0.21440975211525
4.855,-0.0431138330440797,0.212592610617208
4.8725,-0.0311740378731133,0.209949642750945
4.89,-0.0196100089991593,0.206520658394687
4.9075,-0.00849107022574051,0.20236461708014
4.925,0.0021310732260934,0.197553915536167
4.9425,0.0122260711146301,0.192166139046452
4.96,0.0217845341882632,0.186275210757209
4.9775,0.0308138287390577,0.179943887310144
4.995,0.0393312165208626,0.173219117088487
5.0125,0.0473560137915308,0.166131026597735
5.03,0.0549025403064055,0.158695424745859
5.0475,0.0619753104313528,0.150918925005657
5.065,0.0685672848555996,0.142805260376011
5.0825,0.0746612212427459,0.134361211846224
5.1,0.0802334286696856,0.125600800816745
5.1175,0.0852587151251929,0.116546931032713
5.135,0.0897151294601779,0.107230359567038
5.1525,0.0935872646103382,0.0976865525198158
5.17,0.0968673469933881,0.0879514767036518
5.1875,0.0995539594324432,0.0780575826466456
5.205,0.101648870153554,0.068031112356402
5.2225,0.103152913449425,0.0578914641895642
5.24,0.104062078446479,0.0476527799881276
5.2575,0.104364870074232,0.037327335711098
5.275,0.104041647050563,0.0269298632929234
5.2925,0.103066116553507,0.0164817176702887
5.31,0.101408613511854,0.00601387380386511
5.3275,0.0990403550628827,-0.00443193357937303
5.345,0.0959376458727454,-0.0148041221144889
5.3625,0.0920850660274344,-0.0250438939790674
5.38,0.0874769784520566,-0.0350888328853153
5.3975,0.082117162208197,-0.04487649749298
5.415,0.0760168858957697,-0.0543470911947799
5.4325,0.0691921478725566,-0.0634445813151256
5.45,0.0616610195089112,-0.0721160982144465
5.4675,0.0534419800078184,-0.0803099445051215
5.485,0.0445538393819024,-0.0879729532606569
5.5025,0.0350173869641373,-0.0950481424300727
5.52,0.0248583972912837,-0.10147356267427
5.5375,0.0141112079616005,-0.107182936916302
5.555,0.00282186851145612,-0.112108216602856
5.5725,-0.00895009179349108,-0.116183653612936
5.59,-0.0211319210133677,-0.119350546302778
5.6075,-0.0336400751016019,-0.121561582706661
5.625,-0.046384412379742,-0.122783743360896
5.6425,-0.0594758351206086,-0.122616173878251
5.66,-0.0725147631668226,-0.121400923998048
5.6775,-0.0854204422340964,-0.119165747529808
5.695,-0.0981233422954867,-0.115939233461482
5.7125,-0.110560891406813,-0.111746624622782
5.73,-0.122671871836,-0.106608636092091
5.7475,-0.134391187184565,-0.100543529594834
5.765,-0.145646616357691,-0.0935718111362316
5.7825,-0.156358647482146,-0.0857221880633394
5.8,-0.166443663424322,-0.0770370412893716
5.8175,-0.175819839975006,-0.0675757428718683
5.835,-0.184414353596793,-0.0574146677396766
5.8525,-0.192170079408472,-0.0466435857708676
5.87,-0.199050008470807,-0.0353590674399935
5.8875,-0.205038126491814,-0.0236563510258878
5.905,-0.210136355326953,-0.0116215878427854
5.9225,-0.214358154467443,0.000673627184656824
5.94,-0.217720261610436,0.0131740328718736
5.9575,-0.22023459039302,0.025838262122327
5.975,-0.221902349661146,0.0386327132024481
5.9925,-0.222711971522806,0.0515232235629522
6.01,-0.222641534679265,0.06446666548753
6.0275,-0.221665254446147,0.0774047025607622
6.045,-0.219762552340549,0.0902615064790283
6.0625,-0.216927483241567,0.102946320623177
6.08,-0.213194234220794,0.115208835012796
6.0975,-0.208632674855116,0.127105457907055
6.115,-0.203310286431495,0.138570331835457
6.1325,-0.197301755900825,0.149561782754443
6.15,-0.190677767887508,0.160062167004846
6.1675,-0.18349522743948,0.170072468591836
6.185,-0.175791241766381,0.179602960018477
6.2025,-0.167582283802651,0.188662192265113
6.22,-0.1588687095264,0.197246987104235
6.2375,-0.149643504533203,0.205335868056541
6.255,-0.139903105357575,0.212887539413906
6.2725,-0.129657626935957,0.219844802066342
6.29,-0.118937956466736,0.226142972118913
6.3075,-0.107797919325128,0.231720761675655
6.325,-0.0963109102147993,0.236530959350327
6.3425,-0.0845617300338673,0.240548265743787
6.36,-0.0726355529013586,0.243772299089556
6.3775,-0.0606066807012109,0.246224937022889
6.395,-0.0485298415683478,0.247942531090489
6.4125,-0.0364362208042966,0.248964793904555
6.43,-0.0243353039598665,0.249323008606866
6.4475,-0.0122222201857178,0.249030434787856
6.465,-8.89290436418269E-05,0.248077318785836
6.4825,0.0120633797536387,0.246431858148461
6.5,0.0242136653477054,0.244047061966988
6.5175,0.0364269498340139,0.241070170151494
6.535,0.0485531688851921,0.237228828593715
6.5525,0.0604942850138551,0.232506318205096
6.57,0.0721502640955904,0.226912770396072
6.5875,0.0834301644506483,0.220482438070647
6.605,0.0942604379552246,0.213266317592186
6.6225,0.104588655115068,0.20532202212592
6.64,0.114381974070412,0.19670339599365
6.6575,0.123620916897874,0.187452361660874
6.675,0.132290106451175,0.177594915465489
6.6925,0.140368304334379,0.167142177293162
6.71,0.147820222656827,0.156096193642003
6.7275,0.154592136486092,0.144459074693239
6.745,0.160612411507345,0.1322432722877
6.7625,0.165796899810258,0.119480552139197
6.78,0.170058018547852,0.106227533016309
6.7975,0.173315475664342,0.0925664773845611
6.815,0.175506238685619,0.0786011286268632
6.8325,0.176591537968557,0.0644485379715727
6.85,0.176559404341892,0.0502287423129874
6.8675,0.175422293775962,0.0360546298362466
6.885,0.173210500474863,0.0220242560137695
6.9025,0.169963035972284,0.00821726867963982
6.92,0.165718228017951,-0.00530388863931506
6.9375,0.160506336048896,-0.0184884682254646
6.955,0.154011074583566,-0.0313082324204855
6.9725,0.1465695448414,-0.0436003234875988
6.99,0.138205424732978,-0.055294078341422
7.0075,0.128949395669724,-0.0663085915552591
7.025,0.11884588516086,-0.0765554725864677
7.0425,0.107957828139222,-0.0859446376660991
7.06,0.0963682845080219,-0.0943918584301834
7.0775,0.0841784779432321,-0.101826419576256
7.095,0.0715026248383477,-0.108197245138119
7.1125,0.0584606217981339,-0.113476224485934
7.13,0.0451701028252505,-0.117658111874607
7.1475,0.0317394724671373,-0.120757136401721
7.165,0.0182632575578928,-0.122801169610977
7.1825,0.00482056686292115,-0.123824799100091
7.2,-0.0085232636143512,-0.123862842860834
7.2175,-0.0217124684803441,-0.122945678154105
7.235,-0.0346952669604095,-0.121097296378165
7.2525,-0.0474183307838132,-0.11833634333659
7.27,-0.0598226775526158,-0.11467971376411
7.2875,-0.071841987968152,-0.110147695632379
7.305,-0.0834037570071235,-0.104769329123451
7.3225,-0.0944330232492059,-0.0985866252186166
7.34,-0.104857828943785,-0.091656576228509
7.3575,-0.114615177075224,-0.0840504132612372
7.375,-0.123656152959135,-0.0758502003891326
7.3925,-0.131803846650409,-0.0674133058296223
7.41,-0.13926413702589,-0.0585877164597168
7.4275,-0.146042278105028,-0.0494380187418337
7.445,-0.152151519425704,-0.0400186277523081
7.4625,-0.157608285670468,-0.0303727553487478
7.48,-0.162427553094991,-0.020533535961114
7.4975,-0.166619345989468,-0.0105269566408065
7.515,-0.170187006336697,-0.00037587123038121
7.5325,-0.173127489472218,0.00989582331182449
7.55,-0.17543349717684,0.0202597693896137
7.5675,-0.177096872426679,0.0306812136646073
7.585,-0.178112427689726,0.0411189320624763
7.6025,-0.178481311036736,0.0515269761850889
7.62,-0.178213140406827,0.061857806062996
7.6375,-0.177326424026596,0.0720660816326339
7.655,-0.175847168599672,0.0821122559856468
7.6725,-0.173805972552761,0.0919651704478262
7.69,-0.171234225052832,0.10160307808416
7.7075,-0.168160215942688,0.111012866057582
7.725,-0.164605971596449,0.120187632868303
7.7425,-0.160585468951015,0.12912312134844
7.76,-0.156104583043011,0.137813740704573
7.7775,-0.151162757861475,0.146248984461005
7.795,-0.145756034628467,0.154410954114515
7.8125,-0.139880800257972,0.162273454845179
7.83,-0.133479559396024,0.169984062970131
7.8475,-0.126569999574767,0.177304456638705
7.865,-0.119172101193722,0.184184342206318
7.8825,-0.111316164643619,0.190575757570682
7.9,-0.103041075269017,0.196436484372729
7.9175,-0.0943913390975164,0.201732276300263
7.935,-0.0854135680607891,0.20643749626796
7.9525,-0.0761531995414035,0.210534107306395
7.97,-0.0666521712036506,0.214009322618011
7.9875,-0.0569480528296356,0.216852512430042
8.005,-0.0470748101310984,0.219052126608593
8.0225,-0.0370650115759963,0.220593388438101
8.04,-0.0269101201628569,0.221422766005456
8.0575,-0.016663484653325,0.221502247767127
8.075,-0.00642297852807941,0.220840015028281
8.0925,0.00375097878486506,0.219418306070187
8.11,0.0137889527406111,0.217226642100258
8.1275,0.0236148202144547,0.214265620634494
8.145,0.0331495982543409,0.210549423371409
8.1625,0.0423160414028925,0.206106493423173
8.18,0.051043106314997,0.200978230344539
8.1975,0.0592694128521831,0.195215977914219
8.215,0.0669450524327723,0.188876945012569
8.2325,0.0740314582835329,0.182019923764672
8.25,0.0804994779535975,0.174701702146957
8.2675,0.086167654248122,0.166921777960193
8.285,0.091166557352197,0.158822991915677
8.3025,0.0954819572138252,0.15044954351533
8.32,0.0990959270302101,0.14184545207316
8.3375,0.101987370660719,0.133058628614282
8.355,0.104134599102335,0.124144153479257
8.3725,0.10551932667192,0.115165885882812
8.39,0.106131128818987,0.106195931500229
8.4075,0.105971299771831,0.0973119967686943
8.425,0.10505518937363,0.0885931479465597
8.4425,0.103412448564399,0.0801148576417089
8.46,0.10108508931731,0.071944380332438
8.4775,0.0981237570366336,0.0641374179782222
8.495,0.0945830092691761,0.0567367386330666
8.5125,0.090516605023389,0.0497729657410646
8.53,0.0859737884239218,0.0432672668717402
8.5475,0.080997306297163,0.0372352498782136
8.565,0.0756234898783961,0.0316911172030779
8.5825,0.0698842514934908,0.0266510920901863
8.6,0.0638104080751182,0.0221353199420525
8.6175,0.0574354447158371,0.0181678184090484
8.635,0.0507987403192602,0.0147745143999463
8.6525,0.0439474127508316,0.0119798579438277
8.67,0.0369362700924071,0.00980283807960303
8.6875,0.0298258007206478,0.00825336864767585
8.705,0.0228805242950111,0.00722387018522579
8.7225,0.0159297768569694,0.00675362682139328
8.74,0.00901557175590345,0.00682306627253556
8.7575,0.00217009657065332,0.00740888224371299
8.775,-0.00458419750454118,0.00848870754475334
8.7925,-0.0112323790264701,0.0100451330137168
8.81,-0.017763277784514,0.0120681796674027
8.8275,-0.0241651015561973,0.0145557230474386
8.845,-0.0304214510053032,0.0175118598428345
8.8625,-0.0365086200291449,0.0209436795871905
8.88,-0.0423947334219567,0.0248572495241194
8.8975,-0.048040824552229,0.029253763424442
8.915,-0.0534035022451093,0.034126720204068
8.9325,-0.0584385044716565,0.0394607145352138
8.95,-0.0631042651662445,0.0452320138436354
8.9675,-0.0673646626642438,0.0514106648928563
8.985,-0.0711903557229091,0.0579635213128962
9.0025,-0.0745584820800628,0.0648573911780938
9.02,-0.0774509024855603,0.0720615109253579
9.0375,-0.07985152141513,0.0795487494066258
9.055,-0.0817434230098753,0.0872952798726286
9.0725,-0.0831065823884466,0.0952788432748817
9.09,-0.0839167492271052,0.103476068978121
9.1075,-0.0841457978822837,0.111859537560692
9.125,-0.0837634738994824,0.120395315786632
9.1425,-0.0827321884863455,0.129213905062345
9.16,-0.0809876060800088,0.138086140368844
9.1775,-0.0785129976564476,0.146946303920752
9.195,-0.0753016946506929,0.155725566461963
9.2125,-0.071357159832597,0.164355099517453
9.23,-0.0666917933064098,0.172768724553595
9.2475,-0.0613248907671708,0.180904600710431
9.265,-0.0552803378909223,0.188705726078119
9.2825,-0.0485846373107482,0.196119337277372
9.3,-0.0412657290916911,0.203095559952817
9.3175,-0.0333528240976704,0.209585825130499
9.335,-0.024877188227404,0.215541588734822
9.3525,-0.0158735667635963,0.220913775927261
9.37,-0.00638178332509893,0.225653154784973
9.3875,0.00355197852854268,0.229711585449342
9.405,0.0138746001407782,0.233043859270011
9.4225,0.0245263485047726,0.235609696221597
9.44,0.0354420415275613,0.237375442303697
9.4575,0.046552789064874,0.238315104228729
9.475,0.0577879033121599,0.238410546948014
9.4925,0.0690765482474206,0.237650907881171
9.51,0.0803487910337132,0.236031487982766
9.5275,0.0915359009227393,0.233552509192259
9.545,0.102569962372481,0.230218146585008
9.5625,0.113383068070016,0.226036147879611
9.58,0.123861523258188,0.220943192525994
9.5975,0.133962890387003,0.21504446632314
9.615,0.143619114803562,0.208364838476498
9.6325,0.152761768776873,0.200936013691844
9.65,0.161323662716937,0.192797601254966
9.6675,0.169240947841214,0.183997314417389
9.685,0.176455191377082,0.174590148121386
9.7025,0.182914895946211,0.164636671334076
9.72,0.18857607286327,0.154200824633875
9.7375,0.193401728165401,0.143347764799267
9.755,0.197360413772508,0.132142303799863
9.7725,0.200424255829076,0.12064834605835
9.79,0.202567027145484,0.108929471089201
9.8075,0.203762837225181,0.0970505050971244
9.825,0.203985866035853,0.0850796550589727
9.8425,0.203211301842953,0.0730906152682821
9.86,0.201417326391078,0.0611640462519164
9.8775,0.198587705297636,0.0493879772669625
9.895,0.194714365006097,0.0378569622670346
9.9125,0.189799321768748,0.0266701566906217
9.93,0.183855484912159,0.0159287922476966
9.9475,0.176906154328583,0.00573372602831163
9.965,0.168983401493842,-0.00381622980570457
9.9825,0.160125873897553,-0.0126246490812786
10,0.150376804741836,-0.0205962723738527
