"Freq [GHz]","re(S(Antenna1_1_1,Antenna1_1_1)) []","im(S(Antenna1_1_1,Antenna1_1_1)) []"
3,-0.197174527786393,-0.162959026539126
3.0175,-0.201228360988113,-0.148013942261694
3.035,-0.207683645376577,-0.137940670744135
3.0525,-0.218835825138528,-0.122487072827154
3.07,-0.223128878361973,-0.102525742658774
3.0875,-0.224157188920216,-0.0866408612953111
3.105,-0.226638900358493,-0.0714145770116729
3.1225,-0.227073073429642,-0.0535295066649398
3.14,-0.223862909466517,-0.0400050758218418
3.1575,-0.227335802249542,-0.02570470452733
3.175,-0.223286299361947,-0.0034237542203757
3.1925,-0.212895767823567,0.009072949612697
3.21,-0.209959418740543,0.0189086334468935
3.2275,-0.207818027478898,0.034936146552907
3.245,-0.198330288006488,0.0528739349025647
3.2625,-0.186052534046122,0.0642296934674738
3.28,-0.176409903373695,0.0739330023044707
3.2975,-0.167779302527446,0.0846655348200073
3.315,-0.154614819193238,0.0973075538587836
3.3325,-0.140499776918174,0.102734112479347
3.35,-0.13014353048653,0.111318020735248
3.3675,-0.113890608558088,0.118326850472012
3.385,-0.0996524220665257,0.121552222516613
3.4025,-0.0860600245526052,0.123870577686757
3.42,-0.0733147492071445,0.127720395239687
3.4375,-0.0565707284180872,0.129487302955451
3.455,-0.0415132798440284,0.129001289330013
3.4725,-0.024826303791579,0.125856909159226
3.49,-0.0130117804377215,0.121719870057546
3.5075,0.0032800924185487,0.118821296266848
3.525,0.0162646742020739,0.108934358750772
3.5425,0.0254769623981429,0.103218435867134
3.56,0.0387073113632276,0.0982640034796442
3.5775,0.0538800392489105,0.0871081386272556
3.595,0.0606595089339724,0.0732354229395434
3.6125,0.069177339805613,0.0662598235305833
3.63,0.0809834298962797,0.051762130980455
3.6475,0.0842526839783567,0.0356628411511825
3.665,0.0861709693045196,0.0262181627672499
3.6825,0.0964499008118762,0.0158059516402759
3.7,0.101536001145931,-0.00613779565304572
3.7175,0.0970783683780535,-0.0213965151213002
3.735,0.0960347327437256,-0.0332589551221986
3.7525,0.0964329720429017,-0.0452466536574919
3.77,0.0960623398526299,-0.0621890882109587
3.7875,0.0900031465191248,-0.0759195040035199
3.805,0.0875191769560687,-0.0902831507662459
3.8225,0.0778378201710634,-0.106276535299511
3.84,0.0686820798633762,-0.114993058588784
3.8575,0.0640834924981956,-0.126045693673082
3.875,0.0549632227653063,-0.14294103676263
3.8925,0.0362611769520333,-0.1527385459633
3.91,0.0256879760222703,-0.155244968825477
3.9275,0.0167274633607426,-0.164348253038269
3.945,0.0039431056423108,-0.173010166895373
3.9625,-0.0110815561360443,-0.180274209115447
3.98,-0.026292474348502,-0.18464978683505
3.9975,-0.0423876837645682,-0.187758944882147
4.015,-0.0562967820731807,-0.188439770439408
4.0325,-0.072437990316359,-0.190956598362456
4.05,-0.0878277485445466,-0.187473689112087
4.0675,-0.100940307041123,-0.187254134677049
4.085,-0.116481748950618,-0.183881859680608
4.1025,-0.130441212105241,-0.181327464545202
4.12,-0.146552894831759,-0.174870006089821
4.1375,-0.158559732498726,-0.167908724790431
4.155,-0.171030143770065,-0.160669442294412
4.1725,-0.182525727758562,-0.154700067750485
4.19,-0.196980536832005,-0.14635900352446
4.2075,-0.209785244033315,-0.135968400044789
4.225,-0.221802679093167,-0.120757119921547
4.2425,-0.22513596877138,-0.107594522505286
4.26,-0.23230206528687,-0.10074026188955
4.2775,-0.244387424645481,-0.090748609716592
4.295,-0.254657659929024,-0.0719669477727934
4.3125,-0.253864897216881,-0.0566517232340176
4.33,-0.259111724898705,-0.0470911168763655
4.3475,-0.262809331835056,-0.031995154079722
4.365,-0.265936291513581,-0.0191201494080522
4.3825,-0.26832228410843,-0.00373429688699181
4.4,-0.269529612710727,0.0123069353726782
4.4175,-0.265040527078044,0.0287773096576563
4.435,-0.261906710394116,0.0385312998823901
4.4525,-0.261556368699435,0.0515038727259779
4.47,-0.260145070665239,0.0660312187736535
4.4875,-0.253036174510216,0.0822527412958658
4.505,-0.246440477761507,0.0904830896651633
4.5225,-0.243640458484515,0.104039683213054
4.54,-0.235002570857458,0.116332476187831
4.5575,-0.227758230251841,0.126430648512871
4.575,-0.221553100621566,0.13689424695168
4.5925,-0.211726892676067,0.150900054726228
4.61,-0.198070915565411,0.157169970497137
4.6275,-0.190980182900317,0.163533481867902
4.645,-0.181266276994872,0.171825258683599
4.6625,-0.171109519521147,0.179957105571165
4.68,-0.158610534197064,0.185187685589152
4.6975,-0.150266807935744,0.190737792261509
4.715,-0.137104409425839,0.198819355165153
4.7325,-0.122142078426118,0.202008932562432
4.75,-0.108760647881468,0.201054131353609
4.7675,-0.102234693616455,0.201843244071773
4.785,-0.091148238914277,0.207299469194492
4.8025,-0.0781109856711192,0.208454647847443
4.82,-0.0653528611122895,0.208206176430483
4.8375,-0.0547773975015009,0.20623532091425
4.855,-0.0436608235590797,0.205496205963508
4.8725,-0.0341439592031133,0.202984993729945
4.89,-0.0229389383171593,0.204041552464687
4.9075,-0.00832921463074051,0.19961152583914
4.925,0.0017362432300934,0.192536143400167
4.9425,0.00880695055863012,0.186580555387452
4.96,0.0163557841296632,0.184788042277209
4.9775,0.0286197596050577,0.180957824955144
4.995,0.0394281260598626,0.172799081102487
5.0125,0.0464476400076308,0.163725549429735
5.03,0.0525969674652055,0.158013189721859
5.0475,0.0610349145163529,0.150698550326656
5.065,0.0675479324635996,0.143226279928011
5.0825,0.0760369018387459,0.134782252618224
5.1,0.0818217064896856,0.123591153483745
5.1175,0.0853305055141929,0.113394340842713
5.135,0.0879966420691779,0.105222324990038
5.1525,0.0932654624543382,0.0970294128758158
5.17,0.0972320167713881,0.0860794609069518
5.1875,0.0996192146194432,0.0754050517708456
5.205,0.100811893220554,0.065028976487402
5.2225,0.102387992145425,0.0549123898216842
5.24,0.102364148336479,0.0437689039752276
5.2575,0.101727717425232,0.033862991081098
5.275,0.100653428122563,0.0236882320809234
5.2925,0.0996613871685072,0.0136403422452887
5.31,0.0968460758668538,0.00251040621186511
5.3275,0.0934023701105827,-0.00668763623137303
5.345,0.0897342960364454,-0.0169046073114889
5.3625,0.0845382693994344,-0.0256957446640674
5.38,0.0800484464640566,-0.0339837016183153
5.3975,0.075689614657197,-0.04287758233798
5.415,0.0693414767347697,-0.0530997407377799
5.4325,0.0608942059285566,-0.0611137810041256
5.45,0.0522640498529112,-0.0678098096164465
5.4675,0.0447262350704184,-0.0718601565401214
5.485,0.0399565262599024,-0.0789679319026569
5.5025,0.0301581794001373,-0.0877998201150727
5.52,0.0188032769562837,-0.0924386606382703
5.5375,0.0092483845906005,-0.0954249811523017
5.555,6.79594564561214E-05,-0.0991505621708556
5.5725,-0.00925967392249108,-0.101544860126936
5.59,-0.0176412981653677,-0.106645747192778
5.6075,-0.0321913105526019,-0.110410019527661
5.625,-0.044781707969742,-0.108292615325896
5.6425,-0.0546476442626086,-0.105504335516251
5.66,-0.0601848886628226,-0.105634207380048
5.6775,-0.0720767795947964,-0.111128541405808
5.695,-0.0887963885056867,-0.108696019023482
5.7125,-0.100065865697813,-0.101945543626782
5.73,-0.107935259628,-0.0979709984045912
5.7475,-0.118358393421565,-0.0955427404828344
5.765,-0.128695606134691,-0.0910949076582316
5.7825,-0.140250073623146,-0.0872987759673394
5.8,-0.152780216164322,-0.0792349826973716
5.8175,-0.161716378483006,-0.0692290157478683
5.835,-0.167412779237793,-0.0606377275936766
5.8525,-0.175412617980472,-0.0559556686572676
5.87,-0.186740363077807,-0.0458619103459935
5.8875,-0.192161678361814,-0.0341962492678878
5.905,-0.197918600713953,-0.0258706139557854
5.9225,-0.206114818042443,-0.0164111522103432
5.94,-0.213449755575436,-0.00231325303512643
5.9575,-0.21521812599172,0.011116748483327
5.975,-0.217987318367046,0.0214648650554481
5.9925,-0.221939477884806,0.0328849733679522
6.01,-0.225258374536265,0.04696929975953
6.0275,-0.224773967022147,0.0604131016287622
6.045,-0.225690541624859,0.0727736599150283
6.0625,-0.224042552394567,0.0869014127911774
6.08,-0.221658881371794,0.0980227329307963
6.0975,-0.221895984797116,0.110122256224055
6.115,-0.220531172584495,0.126499783240457
6.1325,-0.212802242588825,0.141679124939443
6.15,-0.206131473146508,0.152034632325846
6.1675,-0.20054893531848,0.163564241082836
6.185,-0.194775881252381,0.175140522632477
6.2025,-0.187107530852651,0.188465929640713
6.22,-0.1770261644634,0.199525961983835
6.2375,-0.166919026250203,0.209678415582541
6.255,-0.156134509323575,0.218344397790906
6.2725,-0.146150952464957,0.226373675587342
6.29,-0.136493637555736,0.235444884341913
6.3075,-0.123425109732128,0.245989951815655
6.325,-0.107429997213799,0.251988034473327
6.3425,-0.0939892582168673,0.255336587357787
6.36,-0.0819091703903586,0.259180848021556
6.3775,-0.0689494082092109,0.264356454876889
6.395,-0.0536250823773478,0.267952301551489
6.4125,-0.0386033198879966,0.269602033292555
6.43,-0.0233317903481665,0.270014512753866
6.4475,-0.00876791787361783,0.269011969872856
6.465,0.00531048104835817,0.267405429995836
6.4825,0.0190724461466387,0.265937423780461
6.5,0.0347855942397054,0.263713934165988
6.5175,0.0500679692960139,0.257800294480494
6.535,0.0636755202071922,0.251057868634715
6.5525,0.0764706858698551,0.243978982018096
6.57,0.0895392785675904,0.235912798844472
6.5875,0.100120511379648,0.226236930357847
6.605,0.110504395699225,0.219363911779186
6.6225,0.123932053433068,0.21004842882392
6.64,0.135427201950412,0.19718720569165
6.6575,0.143633653572874,0.182994961671874
6.675,0.149125144403175,0.170948730701489
6.6925,0.155997846706379,0.160291256647762
6.71,0.164292490523827,0.148195346403303
6.7275,0.171320741426092,0.132095206965239
6.745,0.173392815969845,0.1163100409887
6.7625,0.174724662380058,0.102752940534197
6.78,0.175842121582852,0.0908027294973089
6.7975,0.179895024128342,0.0782144697275611
6.815,0.182228383797619,0.0610269432398632
6.8325,0.179514836710557,0.0435090313095727
6.85,0.173575071881892,0.0296650155809874
6.8675,0.169738209461962,0.0190783770192466
6.885,0.167627328369863,0.00701694396576952
6.9025,0.164929873159284,-0.00730574317136018
6.92,0.158058544462551,-0.0230351431958151
6.9375,0.148459798632896,-0.0350495845718646
6.955,0.139683603342566,-0.0444992902374855
6.9725,0.1318411236054,-0.0530322914465988
6.99,0.124194953390978,-0.062775425236422
7.0075,0.115251823523724,-0.0724881305882591
7.025,0.10439099048386,-0.0827147103634676
7.0425,0.0907044824752222,-0.089561080670099
7.06,0.0795014841840219,-0.0932911514701834
7.0775,0.0699058836472321,-0.0985244020852555
7.095,0.0581079157260477,-0.104081637218119
7.1125,0.0466022014641339,-0.107442679985934
7.13,0.0348086095962505,-0.112014806406607
7.1475,0.0207037043671374,-0.114229114738821
7.165,0.0077450177858928,-0.114037497989977
7.1825,-0.00355992878307885,-0.112598093119091
7.2,-0.0133592746723512,-0.112765694671834
7.2175,-0.0256751389043441,-0.113580132287105
7.235,-0.0394143100644095,-0.111672330137165
7.2525,-0.0518939405288132,-0.10688840366959
7.27,-0.0621716231926158,-0.10140586357751
7.2875,-0.070471996653152,-0.0959494109314793
7.305,-0.0780578981721235,-0.093655027427451
7.3225,-0.0904317176842059,-0.0914853835586166
7.34,-0.103895242447785,-0.083638703552509
7.3575,-0.112493614130224,-0.0718912241682372
7.375,-0.115579422147135,-0.0637027887141326
7.3925,-0.122090383552409,-0.0606853289996223
7.41,-0.13216675124889,-0.0546744273877168
7.4275,-0.141099546827028,-0.0447066714078337
7.445,-0.146305010283904,-0.0337388746453081
7.4625,-0.149605518523268,-0.0242255188967478
7.48,-0.151902523904991,-0.017020770313114
7.4975,-0.157867342756468,-0.0113141782138065
7.515,-0.164780117855697,-0.000728319126381211
7.5325,-0.168017520166218,0.0112950279558245
7.55,-0.16842941238984,0.0224065670586137
7.5675,-0.168806317526679,0.0301639512216073
7.585,-0.171798492096726,0.0394028727256763
7.6025,-0.172227344899736,0.0504075756361889
7.62,-0.171541103740827,0.059655307987796
7.6375,-0.171753069425596,0.0689413219109339
7.655,-0.170681943972672,0.0794219823496468
7.6725,-0.168509669515761,0.0887294231248262
7.69,-0.165878861733832,0.0982043619981602
7.7075,-0.162786046597688,0.105690740688582
7.725,-0.161933362180449,0.114639309093303
7.7425,-0.158041908535015,0.12533553163044
7.76,-0.152823122343011,0.134402624862573
7.7775,-0.146319708287475,0.142508317561005
7.795,-0.140298079717067,0.147989241994515
7.8125,-0.136857362685972,0.153570768798179
7.83,-0.133465580096023,0.162951513760131
7.8475,-0.125208627730767,0.172622775162705
7.865,-0.115893239836722,0.178019622998318
7.8825,-0.108780435022619,0.181352374710682
7.9,-0.104603421890017,0.186453091049729
7.9175,-0.0973616048985164,0.194879239425263
7.935,-0.0869876847227891,0.20057379387196
7.9525,-0.0764532850614035,0.203627212469395
7.97,-0.0682490772836506,0.204382245632411
7.9875,-0.0616679282196356,0.207185685003742
8.005,-0.0541843307430984,0.210630036997593
8.0225,-0.0449044406719963,0.215309177026101
8.04,-0.0325216460738569,0.216899339372556
8.0575,-0.021857890224325,0.214921174315127
8.075,-0.0150198697230794,0.212653177090281
8.0925,-0.00799160386813494,0.214864767908187
8.11,0.00352559023961111,0.215076541820258
8.1275,0.0135378414474547,0.212439817505494
8.145,0.0228039850419109,0.208954238855409
8.1625,0.0306815998438925,0.205349404835173
8.18,0.038220409543997,0.201661048128539
8.1975,0.0456935577481831,0.199308127562219
8.215,0.0555404612997723,0.195116278264569
8.2325,0.0635201825035329,0.189178677466672
8.25,0.0713791766845975,0.182129117220957
8.2675,0.076069503302122,0.174866387835193
8.285,0.082584886038197,0.169398686006677
8.3025,0.0883780498166252,0.16078297480133
8.32,0.0918580081411101,0.1538239972027
8.3375,0.0973491070567186,0.147436741283882
8.355,0.102964192985335,0.137802414796257
8.3725,0.10454842542592,0.127504519630812
8.39,0.105661374674987,0.119939609006229
8.4075,0.107683720323831,0.112349262452694
8.425,0.11070502351263,0.10369743194556
8.4425,0.111267082167399,0.0921269253147089
8.46,0.10889389944131,0.082876322597438
8.4775,0.106735929009534,0.0743616234982222
8.495,0.103910542816076,0.0674055326990666
8.5125,0.102948169473389,0.0604870025700646
8.53,0.101995774022922,0.0513944036997402
8.5475,0.097648765717163,0.0401541815132136
8.565,0.0892748857523961,0.0329039390100779
8.5825,0.0839616036384908,0.0293190446551863
8.6,0.0815075164691182,0.0233899142650525
8.6175,0.0760154851468371,0.0139377608640484
8.635,0.0666227409112602,0.00794289868594631
8.6525,0.0591591226298316,0.00361199507842771
8.67,0.0501241725644071,-0.00057424817169697
8.6875,0.0416175774996478,-0.00197117063332415
8.705,0.0355590723120111,-0.00296914048677421
8.7225,0.0293019748729694,-0.00755173633260671
8.74,0.0179269655669035,-0.0111593134074644
8.7575,0.00672040248045332,-0.010073498255287
8.775,-0.00187761820544118,-0.00758041619524666
8.7925,-0.00949787049917011,-0.00672073768128319
8.81,-0.019291621635514,-0.00448602094359727
8.8275,-0.0260798654947873,-0.000704780309561424
8.845,-0.0342207762934032,-3.35305231655061E-05
8.8625,-0.0456149617881449,0.00445444252819053
8.88,-0.0535159302319567,0.0128354935001194
8.8975,-0.057728917993229,0.019243965149442
8.915,-0.0637433084681093,0.023252040795068
8.9325,-0.0712411026326565,0.0294362012102138
8.95,-0.0778557821342445,0.0369944138026354
8.9675,-0.0838960268212438,0.0457014880508563
8.985,-0.0886526991109091,0.0560660493934962
9.0025,-0.0896179217750628,0.0664497201920538
9.02,-0.0906975382855603,0.0723092156817579
9.0375,-0.09642104475613,0.0800488533966258
9.055,-0.0998275260308753,0.0928580801596286
9.0725,-0.0981809535584466,0.105209768823882
9.09,-0.0955753339301052,0.113744531704121
9.1075,-0.0952026501402837,0.121995398972692
9.125,-0.0945474992384824,0.131605056100632
9.1425,-0.0929896942403455,0.141892719745345
9.16,-0.0897994062158088,0.152988495158844
9.1775,-0.0839173694839476,0.164094301959752
9.195,-0.0760043774166929,0.171571654211963
9.2125,-0.071548398096597,0.177353720499453
9.23,-0.0673552762204098,0.186323660045595
9.2475,-0.0601376920631708,0.195868122034431
9.265,-0.0510706930856223,0.203252088701119
9.2825,-0.0425923040267482,0.209344302213372
9.3,-0.0335814630276911,0.215006904043817
9.3175,-0.0247927254096704,0.220035685506499
9.335,-0.015211198264404,0.224688864637522
9.3525,-0.00616931289259628,0.228812497574461
9.37,0.00463165726690107,0.233590391896573
9.3875,0.0166254973505427,0.235647848387342
9.405,0.0275044692197782,0.236170184185011
9.4225,0.0372204352327726,0.236456953698597
9.44,0.0473776231685613,0.237546614803697
9.4575,0.0585583032558741,0.237711696275729
9.475,0.0703729361501599,0.236831227860014
9.4925,0.0820786212754206,0.233917025880171
9.51,0.0928799536975132,0.229793299178766
9.5275,0.101577434425099,0.224838863355259
9.545,0.110109473640481,0.222705738599008
9.5625,0.122284590304016,0.218881982208611
9.58,0.132721743378188,0.211311059809994
9.5975,0.140282553323003,0.20311683675314
9.615,0.146677686134562,0.196988454639498
9.6325,0.155009392314873,0.190533254294844
9.65,0.162596752905937,0.182541945783966
9.6675,0.170136407783214,0.173666801157389
9.685,0.176013028401082,0.163289082873686
9.7025,0.180050038131211,0.152998491784316
9.72,0.18284261738927,0.144433260307475
9.7375,0.188102932824401,0.136070018643267
9.755,0.192283700376508,0.124591694946863
9.7725,0.194444640032076,0.11306186363135
9.79,0.194634206276484,0.101771747630201
9.8075,0.194924169086181,0.0920463133271244
9.825,0.194906667414853,0.0812597812879727
9.8425,0.194360510688953,0.0709301872542821
9.86,0.192937173719278,0.0592106262749164
9.8775,0.189751137564753,0.0480484133449625
9.895,0.184916645971397,0.0368483949520346
9.9125,0.179064389465748,0.0282000207086217
9.93,0.174355772777159,0.0192304692736966
9.9475,0.168371565348583,0.0102239525926116
9.965,0.161914677977842,0.000765296276295425
9.9825,0.152853955558553,-0.0083088117252786
10,0.142580881510836,-0.0153129100628527
