"Freq [GHz]","re(S(Tx_p1,Tx_p1)) []","im(S(Tx_p1,Tx_p1)) []"
1,-0.02495485639,-0.1119782038
1.01,-0.02817051598,-0.1090639608
1.02,-0.03121976341,-0.106052476
1.03,-0.03409779211,-0.1029524248
1.04,-0.03680033073,-0.09977281555
1.05,-0.03932366252,-0.09652295206
1.06,-0.04166464218,-0.09321239527
1.07,-0.04382071039,-0.08985092417
1.08,-0.04578990582,-0.08644849635
1.09,-0.04757087469,-0.08301520804
1.1,-0.04916287788,-0.07956125406
1.11,-0.05056579548,-0.07609688752
1.12,-0.05178012899,-0.07263237966
1.13,-0.05280700101,-0.06917797972
1.14,-0.05364815247,-0.06574387521
1.15,-0.05430593751,-0.06234015253
1.16,-0.05478331597,-0.05897675813
1.17,-0.0550838436,-0.05566346043
1.18,-0.05521165991,-0.05240981244
1.19,-0.05517147386,-0.04922511535
1.2,-0.05496854744,-0.04611838319
1.21,-0.05460867708,-0.04309830864
1.22,-0.0540981731,-0.04017323006
1.23,-0.05344383722,-0.0373511
1.24,-0.05265293827,-0.03463945514
1.25,-0.05173318609,-0.03204538781
1.26,-0.05069270386,-0.02957551924
1.27,-0.04953999884,-0.02723597453
1.28,-0.04828393168,-0.02503235953
1.29,-0.04693368444,-0.02296973956
1.3,-0.04549872742,-0.02105262022
1.31,-0.04398878483,-0.0192849302
1.32,-0.04241379959,-0.01767000621
1.33,-0.04078389729,-0.01621058015
1.34,-0.03910934937,-0.01490876832
1.35,-0.03740053584,-0.01376606306
1.36,-0.03566790751,-0.01278332652
1.37,-0.03392194789,-0.01196078675
1.38,-0.03217313497,-0.01129803614
1.39,-0.03043190295,-0.01079403204
1.4,-0.02870860409,-0.01044709982
1.41,-0.02701347073,-0.01025493805
1.42,-0.0253565778,-0.01021462609
1.43,-0.02374780567,-0.01032263383
1.44,-0.0221968038,-0.01057483363
1.45,-0.02071295503,-0.01096651445
1.46,-0.0193053408,-0.01149239805
1.47,-0.01798270735,-0.01214665731
1.48,-0.0167534331,-0.01292293644
1.49,-0.01562549718,-0.01381437317
1.5,-0.01460644939,-0.01481362278
1.51,-0.01370338155,-0.01591288388
1.52,-0.01292290045,-0.01710392583
1.53,-0.01227110241,-0.01837811779
1.54,-0.0117535496,-0.01972645922
1.55,-0.01137524817,-0.02113961174
1.56,-0.0111406283,-0.02260793227
1.57,-0.01105352615,-0.02412150733
1.58,-0.01111716794,-0.02567018837
1.59,-0.01133415604,-0.02724362799
1.6,-0.01170645724,-0.02883131697
1.61,-0.0122353932,-0.03042262197
1.62,-0.01292163306,-0.0320068238
1.63,-0.01376518843,-0.03357315597
1.64,-0.01476541049,-0.03511084371
1.65,-0.01592098946,-0.03660914295
1.66,-0.01722995635,-0.03805737941
1.67,-0.01868968697,-0.03944498757
1.68,-0.02029690823,-0.04076154933
1.69,-0.02204770668,-0.04199683234
1.7,-0.02393753926,-0.04314082778
1.71,-0.02596124633,-0.04418378749
1.72,-0.02811306676,-0.04511626037
1.73,-0.03038665519,-0.04592912784
1.74,-0.03277510131,-0.0466136383
1.75,-0.03527095116,-0.04716144045
1.76,-0.03786623036,-0.04756461538
1.77,-0.04055246917,-0.04781570728
1.78,-0.04332072933,-0.04790775269
1.79,-0.04616163259,-0.04783430818
1.8,-0.04906539085,-0.04758947639
1.81,-0.05202183776,-0.04716793031
1.82,-0.05502046172,-0.04656493567
1.83,-0.05805044023,-0.04577637156
1.84,-0.06110067532,-0.04479874888
1.85,-0.06415983007,-0.04362922686
1.86,-0.06721636615,-0.04226562745
1.87,-0.07025858205,-0.04070644753
1.88,-0.07327465211,-0.0389508689
1.89,-0.07625266604,-0.03699876606
1.9,-0.07918066894,-0.03485071168
1.91,-0.08204670157,-0.03250797981
1.92,-0.08483884084,-0.02997254672
1.93,-0.08754524031,-0.02724708948
1.94,-0.0901541706,-0.02433498219
1.95,-0.09265405961,-0.02124028988
1.96,-0.09503353234,-0.01796776011
1.97,-0.09728145022,-0.01452281236
1.98,-0.0993869499,-0.01091152507
1.99,-0.1013394812,-0.007140620558
2,-0.1031288441,-0.0032174477
2.01,-0.1047452251,0.0008500374314
2.02,-0.1061792322,0.00505329304
2.03,-0.1074219283,0.009383215038
2.04,-0.1084648642,0.01383016241
2.05,-0.1093001092,0.01838398441
2.06,-0.1099202806,0.02303404952
2.07,-0.1103185716,0.02776927604
2.08,-0.1104887772,0.03257816433
2.09,-0.1104253184,0.03744883042
2.1,-0.1101232647,0.04236904103
2.11,-0.1095783542,0.0473262499
2.12,-0.1087870119,0.05230763512
2.13,-0.1077463657,0.05730013766
2.14,-0.1064542605,0.0622905006
2.15,-0.10490927,0.06726530935
2.16,-0.1031107059,0.0722110323
2.17,-0.1010586252,0.07711406221
2.18,-0.09875383487,0.08196075779
2.19,-0.09619789452,0.08673748566
2.2,-0.09339311636,0.09143066241
2.21,-0.09034256297,0.09602679661
2.22,-0.08705004269,0.1005125307
2.23,-0.08352010258,0.1048746827
2.24,-0.07975801918,0.1091002873
2.25,-0.07576978682,0.1131766364
2.26,-0.07156210377,0.1170913196
2.27,-0.06714235604,0.1208322627
2.28,-0.06251859914,0.1243877666
2.29,-0.05769953751,0.1277465441
2.3,-0.0526945021,0.1308977561
2.31,-0.04751342575,0.1338310464
2.32,-0.04216681675,0.1365365751
2.33,-0.03666573056,0.1390050503
2.34,-0.03102173965,0.1412277588
2.35,-0.02524690183,0.143196594
2.36,-0.01935372689,0.1449040833
2.37,-0.0133551418,0.1463434129
2.38,-0.007264454592,0.1475084503
2.39,-0.001095316907,0.1483937657
2.4,0.005138314512,0.1489946509
2.41,0.01142221739,0.1493071354
2.42,0.01774194435,0.1493280013
2.43,0.02408286419,0.1490547953
2.44,0.03043020363,0.1484858385
2.45,0.03676908981,0.1476202344
2.46,0.04308459291,0.1464578732
2.47,0.04936176923,0.1449994356
2.48,0.05558570421,0.1432463925
2.49,0.06174155559,0.1412010032
2.5,0.06781459622,0.138866311
2.51,0.07379025679,0.1362461368
2.52,0.07965416795,0.1333450694
2.53,0.08539220199,0.1301684545
2.54,0.0909905138,0.1267223808
2.55,0.096435581,0.1230136642
2.56,0.1017142432,0.1190498294
2.57,0.1068137399,0.1148390895
2.58,0.1117217481,0.1103903239
2.59,0.1164264171,0.1057130537
2.6,0.1209164034,0.1008174153
2.61,0.1251809033,0.09571413224
2.62,0.129209684,0.09041448523
2.63,0.1329931131,0.08493028037
2.64,0.1365221862,0.07927381596
2.65,0.1397885526,0.07345784783
2.66,0.1427845395,0.06749555317
2.67,0.1455031731,0.06140049323
2.68,0.1479381988,0.05518657484
2.69,0.1500840984,0.04886801087
2.7,0.1519361055,0.0424592799
2.71,0.1534902187,0.03597508499
2.72,0.154743212,0.0294303119
2.73,0.1556926432,0.02283998679
2.74,0.1563368602,0.0162192335
2.75,0.1566750046,0.009583230596
2.76,0.1567070128,0.002947168346
2.77,0.1564336149,-0.003673794363
2.78,0.1558563316,-0.01026457289
2.79,0.1549774677,-0.01681019943
2.8,0.1538001045,-0.02329586524
2.81,0.1523280893,-0.02970696224
2.82,0.1505660219,-0.036029124
2.83,0.1485192405,-0.04224826585
2.84,0.1461938039,-0.0483506242
2.85,0.1435964724,-0.05432279464
2.86,0.1407346864,-0.06015176902
2.87,0.1376165428,-0.06582497117
2.88,0.13425077,-0.07133029128
2.89,0.1306467004,-0.07665611877
2.9,0.1268142419,-0.08179137353
2.91,0.122763847,-0.08672553559
2.92,0.1185064807,-0.0914486729
2.93,0.114053587,-0.09595146729
2.94,0.1094170543,-0.1002252385
2.95,0.1046091784,-0.1042619664
2.96,0.09964262619,-0.1080543104
2.97,0.09453039663,-0.1115956281
2.98,0.08928578194,-0.1148799902
2.99,0.08392232759,-0.1179021943
3,0.07845379174,-0.1206577762
3.01,0.07289410421,-0.1231430183
3.02,0.06725732503,-0.1253549567
3.03,0.06155760282,-0.1272913851
3.04,0.055809133,-0.1289508568
3.05,0.05002611604,-0.1303326844
3.06,0.04422271588,-0.1314369368
3.07,0.03841301863,-0.1322644346
3.08,0.03261099171,-0.1328167421
3.09,0.02683044345,-0.1330961583
3.1,0.02108498346,-0.1331057048
3.11,0.01538798375,-0.1328491117
3.12,0.009752540755,-0.1323308016
3.13,0.004191438389,-0.1315558717
3.14,-0.001282887728,-0.1305300727
3.15,-0.006658384807,-0.1292597878
3.16,-0.01192341607,-0.1277520079
3.17,-0.01706679244,-0.1260143058
3.18,-0.02207780272,-0.1240548095
3.19,-0.02694624206,-0.1218821721
3.2,-0.03166243877,-0.1195055421
3.21,-0.0362172792,-0.1169345309
3.22,-0.04060223085,-0.1141791797
3.23,-0.04480936346,-0.1112499252
3.24,-0.04883136808,-0.108157564
3.25,-0.05266157409,-0.1049132161
3.26,-0.05629396409,-0.1015282877
3.27,-0.05972318661,-0.09801443333
3.28,-0.06294456666,-0.09438351708
3.29,-0.06595411406,-0.09064757382
3.3,-0.06874852944,-0.08681876976
3.31,-0.07132520816,-0.08290936298
3.32,-0.07368224179,-0.07893166384
3.33,-0.07581841747,-0.07489799543
3.34,-0.07773321493,-0.0708206543
3.35,-0.07942680138,-0.0667118714
3.36,-0.08090002413,-0.06258377355
3.37,-0.08215440105,-0.0584483454
3.38,-0.08319210893,-0.05431739217
3.39,-0.08401596973,-0.05020250311
3.4,-0.08462943482,-0.04611501595
3.41,-0.08503656721,-0.04206598237
3.42,-0.0852420219,-0.03806613461
3.43,-0.08525102445,-0.03412585333
3.44,-0.08506934764,-0.03025513687
3.45,-0.08470328664,-0.02646357191
3.46,-0.08415963244,-0.02276030572
3.47,-0.08344564392,-0.01915401997
3.48,-0.08256901837,-0.01565290636
3.49,-0.0815378609,-0.01226464394
3.5,-0.08036065248,-0.008996378328
3.51,-0.07904621707,-0.005854702857
3.52,-0.07760368767,-0.002845641657
3.53,-0.07604247158,2.536520182E-05
3.54,-0.07437221491,0.002753474519
3.55,-0.07260276652,0.005334450667
3.56,-0.07074414142,0.007764674163
3.57,-0.06880648388,0.01004114809
3.58,-0.06680003025,0.01216150236
3.59,-0.0647350717,0.01412399577
3.6,-0.06262191696,0.01592751594
3.61,-0.06047085526,0.01757157705
3.62,-0.05829211945,0.01905631542
3.63,-0.05609584957,0.02038248297
3.64,-0.05389205694,0.0215514386
3.65,-0.05169058885,0.02256513747
3.66,-0.04950109403,0.02342611829
3.67,-0.04733298896,0.02413748862
3.68,-0.04519542519,0.02470290823
3.69,-0.04309725771,0.02512657068
3.7,-0.04104701456,0.02541318303
3.71,-0.03905286768,0.02556794386
3.72,-0.0371226052,0.02559651973
3.73,-0.03526360514,0.02550501994
3.74,-0.03348281073,0.02529997002
3.75,-0.03178670738,0.0249882837
3.76,-0.03018130132,0.02457723368
3.77,-0.02867210008,0.02407442126
3.78,-0.02726409475,0.02348774488
3.79,-0.02596174427,0.02282536775
3.8,-0.02476896152,0.0220956846
3.81,-0.02368910155,0.02130728774
3.82,-0.02272495175,0.02046893259
3.83,-0.02187872416,0.01958950261
3.84,-0.0211520498,0.01867797399
3.85,-0.02054597516,0.01774338002
3.86,-0.02006096074,0.01679477544
3.87,-0.01969688181,0.01584120072
3.88,-0.01945303115,0.01489164652
3.89,-0.01932812396,0.01395501843
3.9,-0.01932030485,0.01304010205
3.91,-0.01942715681,0.01215552859
3.92,-0.01964571227,0.01130974112
3.93,-0.01997246612,0.01051096147
3.94,-0.02040339058,0.009767158107
3.95,-0.02093395203,0.009086014854
3.96,-0.0215591296,0.008474900742
3.97,-0.02227343553,0.007940841014
3.98,-0.02307093719,0.007490489398
3.99,-0.02394528069,0.007130101745
4,-0.02488971601,0.006865511123
4.01,-0.02589712356,0.006702104449
4.02,-0.02696004203,0.006644800739
4.03,-0.02807069755,0.006698031058
4.04,-0.0292210339,0.006865720221
4.05,-0.03040274382,0.007151270332
4.06,-0.03160730116,0.00755754619
4.07,-0.03282599391,0.008086862642
4.08,-0.0340499579,0.008740973893
4.09,-0.03527021103,0.009521064843
4.1,-0.03647768804,0.01042774445
4.11,-0.03766327557,0.01146104117
4.12,-0.03881784741,0.01262040048
4.13,-0.03993229991,0.01390468445
4.14,-0.04099758734,0.01531217346
4.15,-0.04200475706,0.01684056999
4.16,-0.04294498449,0.01848700445
4.17,-0.04380960765,0.02024804307
4.18,-0.04459016117,0.02211969789
4.19,-0.04527840975,0.02409743863
4.2,-0.0458663808,0.0261762066
4.21,-0.04634639626,0.02835043049
4.22,-0.04671110347,0.03061404402
4.23,-0.04695350494,0.03296050537
4.24,-0.04706698699,0.03538281838
4.25,-0.04704534707,0.03787355538
4.26,-0.04688281973,0.0404248816
4.27,-0.04657410118,0.04302858112
4.28,-0.04611437224,0.04567608421
4.29,-0.04549931971,0.04835849596
4.3,-0.04472515604,0.05106662626
4.31,-0.04378863722,0.05379102073
4.32,-0.04268707885,0.05652199286
4.33,-0.04141837035,0.05924965691
4.34,-0.03998098722,0.06196396173
4.35,-0.03837400127,0.06465472522
4.36,-0.03659708893,0.06731166937
4.37,-0.03465053744,0.06992445578
4.38,-0.032535249,0.07248272151
4.39,-0.03025274282,0.07497611516
4.4,-0.02780515508,0.07739433303
4.41,-0.02519523678,0.07972715531
4.42,-0.02242634951,0.08196448203
4.43,-0.01950245912,0.08409636889
4.44,-0.01642812729,0.08611306256
4.45,-0.01320850116,0.08800503558
4.46,-0.009849300795,0.08976302059
4.47,-0.006356804834,0.09137804389
4.48,-0.002737834083,0.09284145802
4.49,0.001000266699,0.09414497356
4.5,0.004849648856,0.09528068972
4.51,0.008801981648,0.09624112383
4.52,0.01284847575,0.09701923958
4.53,0.01697990837,0.09760847383
4.54,0.02118664987,0.09800276204
4.55,0.02545869193,0.09819656209
4.56,0.02978567688,0.09818487659
4.57,0.03415692856,0.09796327334
4.58,0.03856148405,0.09752790416
4.59,0.04298812674,0.09687552179
4.6,0.04742542014,0.096003495
4.61,0.05186174265,0.09490982166
4.62,0.05628532304,0.09359313989
4.63,0.06068427653,0.09205273713
4.64,0.06504664142,0.0902885572
4.65,0.06936041601,0.08830120526
4.66,0.07361359591,0.08609195061
4.67,0.07779421138,0.08366272749
4.68,0.0818903648,0.08101613361
4.69,0.08589026791,0.07815542668
4.7,0.08978227897,0.07508451876
4.71,0.09355493948,0.07180796854
4.72,0.0971970105,0.06833097152
4.73,0.1006975084,0.06465934818
4.74,0.1040457397,0.06079953008
4.75,0.1072313358,0.05675854405
4.76,0.1102442855,0.05254399442
4.77,0.1130749681,0.04816404342
4.78,0.1157141841,0.0436273897
4.79,0.118153185,0.03894324522
4.8,0.1203837025,0.03412131035
4.81,0.1223979751,0.02917174752
4.82,0.124188774,0.0241051532
4.83,0.1257494273,0.0189325286
4.84,0.1270738422,0.01366524898
4.85,0.1281565259,0.008315031733
4.86,0.1289926043,0.002893903344
4.87,0.1295778391,-0.002585834682
4.88,0.1299086429,-0.008111640805
4.89,0.129982092,-0.01367076925
4.9,0.1297959383,-0.01925030648
4.91,0.1293486172,-0.02483720832
4.92,0.1286392556,-0.03041833743
4.93,0.1276676761,-0.03598050126
4.94,0.1264344,-0.04151049009
4.95,0.1249406479,-0.0469951153
4.96,0.1231883382,-0.05242124756
4.97,0.1211800833,-0.05777585491
4.98,0.1189191839,-0.06304604056
4.99,0.1164096212,-0.06821908035
5,0.1136560471,-0.07328245971
5.01,0.1106637717,-0.07822391
5.02,0.1074387501,-0.08303144415
5.03,0.1039875658,-0.08769339148
5.04,0.100317413,-0.09219843155
5.05,0.09643607721,-0.09653562696
5.06,0.09235191341,-0.1006944551
5.07,0.08807382301,-0.1046648384
5.08,0.08361122894,-0.1084371736
5.09,0.07897404922,-0.1120023594
5.1,0.07417266905,-0.1153518226
5.11,0.06921791152,-0.1184775425
5.12,0.06412100691,-0.1213720738
5.13,0.05889356097,-0.124028568
5.14,0.05354752188,-0.1264407924
5.15,0.04809514638,-0.128603148
5.16,0.04254896488,-0.1305106845
5.17,0.03692174585,-0.1321591143
5.18,0.0312264595,-0.133544824
5.19,0.02547624093,-0.134664884
5.2,0.01968435278,-0.1355170559
5.21,0.0138641476,-0.1360997979
5.22,0.008029029984,-0.1364122684
5.23,0.002192418593,-0.1364543268
5.24,-0.003632291766,-0.1362265331
5.25,-0.009431767947,-0.1357301444
5.26,-0.015192776,-0.1349671103
5.27,-0.02090221835,-0.1339400657
5.28,-0.02654717047,-0.1326523212
5.29,-0.03211491693,-0.1311078527
5.3,-0.03759298682,-0.1293112876
5.31,-0.04296918827,-0.1272678901
5.32,-0.04823164203,-0.1249835442
5.33,-0.05336881413,-0.1224647349
5.34,-0.0583695473,-0.119718528
5.35,-0.06322309122,-0.1167525475
5.36,-0.06791913147,-0.1135749523
5.37,-0.07244781701,-0.1101944104
5.38,-0.07679978631,-0.1066200728
5.39,-0.08096619175,-0.1028615447
5.4,-0.08493872255,-0.09892885656
5.41,-0.08870962587,-0.09483243347
5.42,-0.09227172628,-0.09058306344
5.43,-0.0956184433,-0.08619186489
5.44,-0.09874380716,-0.08167025311
5.45,-0.1016424726,-0.07702990606
5.46,-0.1043097308,-0.07228272951
5.47,-0.1067415191,-0.06744082157
5.48,-0.1089344293,-0.06251643686
5.49,-0.1108857131,-0.05752195032
5.5,-0.1125932863,-0.05246982087
5.51,-0.1140557304,-0.04737255492
5.52,-0.1152722926,-0.04224266994
5.53,-0.1162428835,-0.03709265818
5.54,-0.1169680728,-0.03193495063
5.55,-0.1174490831,-0.02678188135
5.56,-0.117687782,-0.02164565228
5.57,-0.1176866715,-0.01653829863
5.58,-0.1174488763,-0.01147165494
5.59,-0.1169781302,-0.006457322038
5.6,-0.1162787598,-0.001506634732
5.61,-0.115355668,0.003369369354
5.62,-0.114214314,0.008159979935
5.63,-0.1128606937,0.01285484302
5.64,-0.1113013166,0.01744398858
5.65,-0.1095431827,0.02191785692
5.66,-0.1075937574,0.02626732355
5.67,-0.105460945,0.0304837226
5.68,-0.1031530615,0.0345588687
5.69,-0.1006788057,0.03848507715
5.7,-0.09804722982,0.04225518245
5.71,-0.09526770875,0.04586255514
5.72,-0.09234990883,0.04930111673
5.73,-0.08930375574,0.05256535294
5.74,-0.08613940183,0.05565032498
5.75,-0.08286719297,0.05855167904
5.76,-0.079497635,0.06126565379
5.77,-0.07604135988,0.063789086
5.78,-0.07250909171,0.06611941426
5.79,-0.06891161265,0.06825468067
5.8,-0.06525972895,0.07019353072
5.81,-0.06156423705,0.0719352112
5.82,-0.05783589006,0.07347956615
5.83,-0.0540853645,0.07482703104
5.84,-0.05032322759,0.07597862503
5.85,-0.04655990515,0.07693594141
5.86,-0.04280565009,0.0777011363
5.87,-0.03907051177,0.07827691559
5.88,-0.0353643062,0.0786665202
5.89,-0.03169658719,0.07887370972
5.9,-0.02807661867,0.07890274449
5.91,-0.02451334796,0.07875836619
5.92,-0.02101538049,0.078445777
5.93,-0.01759095564,0.07797061736
5.94,-0.01424792407,0.07733894255
5.95,-0.01099372644,0.07655719803
5.96,-0.007835373626,0.07563219363
5.97,-0.004779428569,0.07457107685
5.98,-0.001831989648,0.07338130513
5.99,0.001001324222,0.07207061735
6,0.003715386825,0.0706470046
