"Freq [GHz]","re(S(Tx_p1,Tx_p1)) []","im(S(Tx_p1,Tx_p1)) []"
1,0.005642569175,-0.107456358
1.01,0.00237055932,-0.1067775746
1.02,-0.0008679843397,-0.1059966692
1.03,-0.00406858591,-0.105114697
1.04,-0.007226850521,-0.1041329806
1.05,-0.01033847842,-0.1030531007
1.06,-0.01339927831,-0.1018768859
1.07,-0.01640518004,-0.1006064022
1.08,-0.01935224642,-0.0992439422
1.09,-0.02223668441,-0.09779201361
1.1,-0.02505485549,-0.0962533279
1.11,-0.02780328525,-0.09463078817
1.12,-0.03047867229,-0.09292747699
1.13,-0.03307789624,-0.09114664391
1.14,-0.0355980251,-0.08929169281
1.15,-0.03803632174,-0.08736616908
1.16,-0.04039024969,-0.0853737466
1.17,-0.0426574781,-0.0833182147
1.18,-0.04483588597,-0.08120346499
1.19,-0.04692356561,-0.07903347824
1.2,-0.04891882535,-0.0768123112
1.21,-0.05082019151,-0.07454408349
1.22,-0.05262640962,-0.07223296458
1.23,-0.05433644498,-0.06988316086
1.24,-0.0559494824,-0.06749890289
1.25,-0.0574649254,-0.06508443281
1.26,-0.05888239458,-0.06264399194
1.27,-0.06020172548,-0.06018180867
1.28,-0.0614229657,-0.05770208659
1.29,-0.06254637142,-0.05520899292
1.3,-0.06357240341,-0.05270664732
1.31,-0.06450172236,-0.05019911096
1.32,-0.06533518373,-0.04769037608
1.33,-0.06607383206,-0.04518435589
1.34,-0.06671889483,-0.04268487487
1.35,-0.06727177575,-0.04019565963
1.36,-0.06773404775,-0.03772033012
1.37,-0.06810744544,-0.03526239137
1.38,-0.06839385728,-0.03282522578
1.39,-0.06859531736,-0.03041208585
1.4,-0.06871399687,-0.02802608748
1.41,-0.06875219528,-0.02567020381
1.42,-0.06871233125,-0.02334725963
1.43,-0.0685969334,-0.02105992629
1.44,-0.06840863078,-0.01881071723
1.45,-0.06815014324,-0.0166019841
1.46,-0.06782427166,-0.01443591339
1.47,-0.06743388813,-0.01231452367
1.48,-0.06698192598,-0.01023966341
1.49,-0.06647136985,-0.008213009382
1.5,-0.06590524577,-0.006236065605
1.51,-0.06528661121,-0.004310162879
1.52,-0.06461854523,-0.002436458869
1.53,-0.06390413875,-0.0006159387412
1.54,-0.06314648488,0.001150583655
1.55,-0.06234866945,0.002862464081
1.56,-0.06151376171,0.00451922568
1.57,-0.06064480523,0.006120556249
1.58,-0.059744809,0.007666305015
1.59,-0.05881673886,0.009156478945
1.6,-0.05786350915,0.0105912386
1.61,-0.05688797469,0.01197089355
1.62,-0.05589292306,0.01329589739
1.63,-0.05488106728,0.01456684232
1.64,-0.05385503878,0.0157844534
1.65,-0.05281738085,0.01694958246
1.66,-0.05177054238,0.0180632016
1.67,-0.05071687213,0.0191263965
1.68,-0.04965861331,0.02014035939
1.69,-0.04859789873,0.02110638177
1.7,-0.04753674629,0.02202584695
1.71,-0.04647705502,0.02290022231
1.72,-0.04542060153,0.02373105149
1.73,-0.04436903697,0.0245199464
1.74,-0.04332388448,0.02526857906
1.75,-0.04228653708,0.0259786734
1.76,-0.04125825612,0.02665199707
1.77,-0.04024017016,0.02729035307
1.78,-0.03923327434,0.02789557149
1.79,-0.03823843029,0.02846950126
1.8,-0.03725636646,0.0290140019
1.81,-0.03628767894,0.02953093539
1.82,-0.0353328328,0.03002215817
1.83,-0.0343921638,0.03048951317
1.84,-0.03346588062,0.03093482215
1.85,-0.03255406749,0.03135987806
1.86,-0.03165668729,0.03176643773
1.87,-0.03077358503,0.03215621473
1.88,-0.02990449168,0.03253087248
1.89,-0.02904902851,0.03289201765
1.9,-0.02820671166,0.03324119386
1.91,-0.02737695711,0.03357987566
1.92,-0.02655908601,0.03390946289
1.93,-0.02575233025,0.03423127531
1.94,-0.02495583836,0.0345465477
1.95,-0.02416868164,0.03485642525
1.96,-0.02338986054,0.03516195936
1.97,-0.02261831127,0.03546410389
1.98,-0.02185291258,0.03576371177
1.99,-0.02109249271,0.03606153205
2,-0.02033583647,0.03635820741
2.01,-0.01958169248,0.03665427204
2.02,-0.01882878043,0.03695015008
2.03,-0.01807579847,0.03724615435
2.04,-0.01732143056,0.03754248566
2.05,-0.01656435394,0.03783923251
2.06,-0.01580324644,0.03813637125
2.07,-0.01503679393,0.03843376667
2.08,-0.0142636975,0.03873117303
2.09,-0.0134826807,0.03902823559
2.1,-0.01269249663,0.03932449244
2.11,-0.01189193483,0.03961937689
2.12,-0.01107982804,0.03991222016
2.13,-0.01025505882,0.04020225456
2.14,-0.009416565858,0.04048861696
2.15,-0.008563350129,0.04077035271
2.16,-0.007694480753,0.0410464199
2.17,-0.006809100596,0.04131569392
2.18,-0.005906431564,0.04157697243
2.19,-0.0049857796,0.04182898054
2.2,-0.004046539336,0.04207037632
2.21,-0.003088198407,0.04229975662
2.22,-0.002110341406,0.04251566306
2.23,-0.001112653461,0.04271658829
2.24,-9.492342789E-05,0.04290098242
2.25,0.0009429533114,0.04306725968
2.26,0.002000972458,0.0432138052
2.27,0.003079018819,0.04333898188
2.28,0.004176864751,0.04344113748
2.29,0.005294169026,0.04351861163
2.3,0.006430476131,0.04356974308
2.31,0.007585215994,0.04359287681
2.32,0.008757704145,0.04358637124
2.33,0.009947142305,0.04354860542
2.34,0.01115261941,0.04347798614
2.35,0.01237311304,0.04337295496
2.36,0.01360749131,0.04323199521
2.37,0.0148545151,0.04305363877
2.38,0.01611284081,0.04283647281
2.39,0.01738102334,0.04257914629
2.4,0.01865751963,0.04228037629
2.41,0.01994069245,0.04193895415
2.42,0.02122881462,0.04155375134
2.43,0.02252007351,0.0411237251
2.44,0.02381257594,0.0406479238
2.45,0.02510435332,0.040125492
2.46,0.02639336716,0.03955567522
2.47,0.0276775148,0.03893782437
2.48,0.02895463539,0.03827139981
2.49,0.03022251615,0.03755597512
2.5,0.0314788988,0.03679124045
2.51,0.03272148623,0.03597700551
2.52,0.03394794925,0.03511320214
2.53,0.03515593363,0.03419988654
2.54,0.03634306709,0.03323724103
2.55,0.03750696652,0.03222557545
2.56,0.0386452452,0.03116532807
2.57,0.03975552013,0.03005706619
2.58,0.04083541931,0.02890148621
2.59,0.04188258907,0.02769941332
2.6,0.04289470138,0.02645180082
2.61,0.04386946107,0.02515972888
2.62,0.04480461301,0.02382440306
2.63,0.04569794917,0.0224471523
2.64,0.04654731559,0.02102942653
2.65,0.04735061917,0.01957279392
2.66,0.04810583431,0.0180789377
2.67,0.04881100936,0.01654965265
2.68,0.04946427285,0.01498684121
2.69,0.05006383952,0.01339250918
2.7,0.05060801608,0.01176876121
2.71,0.05109520667,0.01011779586
2.72,0.05152391808,0.008441900414
2.73,0.05189276467,0.006743445372
2.74,0.05220047294,0.005024878716
2.75,0.05244588577,0.003288719899
2.76,0.05262796634,0.001537553607
2.77,0.05274580166,-0.0002259766708
2.78,0.05279860578,-0.001999175277
2.79,0.05278572255,-0.003779301168
2.8,0.05270662806,-0.005563574853
2.81,0.05256093265,-0.00734918544
2.82,0.05234838254,-0.009133297785
2.83,0.05206886103,-0.01091305972
2.84,0.05172238935,-0.01268560931
2.85,0.05130912701,-0.01444808216
2.86,0.05082937185,-0.01619761871
2.87,0.05028355962,-0.01793137154
2.88,0.04967226316,-0.01964651256
2.89,0.04899619119,-0.02134024022
2.9,0.04825618673,-0.02300978656
2.91,0.0474532251,-0.02465242421
2.92,0.04658841155,-0.02626547322
2.93,0.04566297852,-0.02784630773
2.94,0.04467828258,-0.0293923625
2.95,0.04363580094,-0.03090113921
2.96,0.04253712769,-0.03237021255
2.97,0.04138396971,-0.03379723616
2.98,0.04017814228,-0.03517994818
2.99,0.03892156432,-0.03651617663
3,0.03761625347,-0.03780384453
3.01,0.03626432087,-0.03904097463
3.02,0.03486796562,-0.04022569393
3.03,0.03342946918,-0.04135623783
3.04,0.0319511894,-0.04243095395
3.05,0.03043555448,-0.04344830562
3.06,0.02888505673,-0.04440687505
3.07,0.02730224617,-0.04530536607
3.08,0.02568972407,-0.04614260657
3.09,0.02405013631,-0.04691755057
3.1,0.02238616673,-0.0476292799
3.11,0.02070053037,-0.04827700549
3.12,0.01899596674,-0.04886006831
3.13,0.017275233,-0.04937793996
3.14,0.01554109721,-0.04983022284
3.15,0.01379633157,-0.05021664995
3.16,0.01204370576,-0.05053708438
3.17,0.01028598024,-0.05079151836
3.18,0.008525899802,-0.05098007205
3.19,0.006766187082,-0.05110299186
3.2,0.005009536294,-0.05116064854
3.21,0.00325860707,-0.0511535349
3.22,0.001516018478,-0.05108226319
3.23,-0.0002156567792,-0.05094756218
3.24,-0.00193389797,-0.05075027397
3.25,-0.003636241721,-0.0504913505
3.26,-0.00532028718,-0.05017184977
3.27,-0.006983700931,-0.04979293184
3.28,-0.008624221663,-0.04935585459
3.29,-0.01023966456,-0.0488619692
3.3,-0.01182792544,-0.0483127155
3.31,-0.01338698453,-0.04770961711
3.32,-0.01491491009,-0.04705427635
3.33,-0.01640986155,-0.04634836908
3.34,-0.0178700925,-0.04559363935
3.35,-0.01929395326,-0.04479189399
3.36,-0.02067989316,-0.043944997
3.37,-0.02202646253,-0.04305486396
3.38,-0.0233323143,-0.04212345636
3.39,-0.02459620532,-0.04115277585
3.4,-0.02581699737,-0.0401448585
3.41,-0.02699365774,-0.03910176907
3.42,-0.02812525966,-0.03802559524
3.43,-0.02921098223,-0.03691844192
3.44,-0.03025011018,-0.03578242564
3.45,-0.0312420332,-0.03461966892
3.46,-0.03218624507,-0.0334322948
3.47,-0.03308234243,-0.03222242146
3.48,-0.03393002327,-0.03099215695
3.49,-0.03472908516,-0.02974359404
3.5,-0.03547942322,-0.02847880524
3.51,-0.03618102777,-0.027199838
3.52,-0.03683398184,-0.02590871007
3.53,-0.0374384583,-0.02460740503
3.54,-0.03799471695,-0.02329786804
3.55,-0.03850310121,-0.02198200183
3.56,-0.03896403478,-0.0206616629
3.57,-0.03937801802,-0.0193386579
3.58,-0.03974562419,-0.01801474034
3.59,-0.04006749558,-0.01669160749
3.6,-0.04034433943,-0.01537089753
3.61,-0.04057692383,-0.01405418706
3.62,-0.04076607342,-0.0127429887
3.63,-0.04091266508,-0.01143874912
3.64,-0.04101762353,-0.01014284731
3.65,-0.04108191683,-0.00885659302
3.66,-0.04110655196,-0.007581225625
3.67,-0.04109257023,-0.006317913157
3.68,-0.04104104285,-0.00506775166
3.69,-0.04095306635,-0.003831764804
3.7,-0.04082975819,-0.002610903766
3.71,-0.04067225226,-0.001406047378
3.72,-0.04048169459,-0.0002180025354
3.73,-0.04025923903,0.0009524951403
3.74,-0.04000604303,0.002104780395
3.75,-0.03972326362,0.003238257192
3.76,-0.03941205334,0.004352397329
3.77,-0.0390735565,0.00544673884
3.78,-0.0387089054,0.006520884172
3.79,-0.0383192168,0.007574498168
3.8,-0.03790558858,0.008607305855
3.81,-0.03746909649,0.009619090048
3.82,-0.03701079116,0.01060968879
3.83,-0.03653169525,0.01157899265
3.84,-0.03603280082,0.01252694181
3.85,-0.03551506697,0.01345352315
3.86,-0.03497941757,0.01435876708
3.87,-0.03442673933,0.01524274435
3.88,-0.03385788,0.01610556276
3.89,-0.03327364689,0.01694736377
3.9,-0.03267480557,0.01776831909
3.91,-0.03206207877,0.01856862719
3.92,-0.03143614559,0.01934850979
3.93,-0.03079764092,0.02010820837
3.94,-0.03014715503,0.02084798059
3.95,-0.02948523353,0.02156809683
3.96,-0.02881237738,0.0222688367
3.97,-0.0281290433,0.0229504856
3.98,-0.02743564432,0.02361333131
3.99,-0.0267325505,0.02425766072
4,-0.02602008997,0.02488375655
4.01,-0.02529855013,0.02549189427
4.02,-0.02456817899,0.02608233901
4.03,-0.02382918683,0.02665534269
4.04,-0.02308174789,0.02721114123
4.05,-0.02232600237,0.02774995189
4.06,-0.02156205852,0.02827197081
4.07,-0.02078999489,0.02877737067
4.08,-0.02000986272,0.02926629852
4.09,-0.01922168852,0.02973887382
4.1,-0.01842547667,0.0301951866
4.11,-0.01762121223,0.03063529593
4.12,-0.01680886376,0.03105922842
4.13,-0.01598838627,0.03146697709
4.14,-0.01515972425,0.03185850035
4.15,-0.01432281469,0.03223372116
4.16,-0.01347759024,0.03259252654
4.17,-0.01262398232,0.03293476714
4.18,-0.01176192425,0.03326025716
4.19,-0.01089135446,0.03356877433
4.2,-0.01001221958,0.03386006031
4.21,-0.009124477577,0.03413382111
4.22,-0.008228100857,0.03438972784
4.23,-0.007323079255,0.03462741761
4.24,-0.006409423017,0.03484649472
4.25,-0.005487165681,0.03504653191
4.26,-0.004556366873,0.03522707194
4.27,-0.003617114995,0.03538762932
4.28,-0.00266952981,0.03552769214
4.29,-0.001713764888,0.03564672423
4.3,-0.0007500099302,0.03574416734
4.31,0.0002215070631,0.03581944358
4.32,0.001200517777,0.03587195796
4.33,0.00218671173,0.03590110106
4.34,0.0031797346,0.0359062519
4.35,0.004179186727,0.03588678083
4.36,0.005184621804,0.03584205258
4.37,0.006195545772,0.03577142944
4.38,0.007211415904,0.03567427445
4.39,0.008231640101,0.03554995469
4.4,0.009255576401,0.03539784465
4.41,0.0102825327,0.03521732962
4.42,0.01131176667,0.03500780911
4.43,0.01234248595,0.03476870032
4.44,0.01337384849,0.03449944156
4.45,0.01440496314,0.0341994957
4.46,0.01543489051,0.0338683536
4.47,0.01646264394,0.0335055375
4.48,0.01748719079,0.03311060432
4.49,0.0185074539,0.03268314899
4.5,0.01952231324,0.0322228076
4.51,0.02053060779,0.03172926051
4.52,0.02153113764,0.03120223539
4.53,0.02252266623,0.03064151012
4.54,0.02350392283,0.03004691551
4.55,0.02447360516,0.029418338
4.56,0.0254303822,0.02875572211
4.57,0.0263728972,0.02805907278
4.58,0.02729977073,0.02732845756
4.59,0.02820960403,0.02656400856
4.6,0.02910098236,0.0257659243
4.61,0.02997247857,0.02493447126
4.62,0.03082265668,0.02406998536
4.63,0.03165007567,0.02317287311
4.64,0.0324532933,0.02224361263
4.65,0.03323086996,0.02128275439
4.66,0.03398137271,0.0202909218
4.67,0.0347033792,0.01926881148
4.68,0.03539548179,0.01821719336
4.69,0.03605629158,0.01713691058
4.7,0.0366844425,0.01602887905
4.71,0.03727859536,0.01489408686
4.72,0.0378374419,0.01373359344
4.73,0.03835970883,0.01254852847
4.74,0.03884416179,0.01134009056
4.75,0.03928960924,0.01010954569
4.76,0.03969490631,0.008858225495
4.77,0.04005895855,0.007587525204
4.78,0.04038072557,0.006298901473
4.79,0.04065922458,0.004993869947
4.8,0.04089353379,0.00367400264
4.81,0.0410827957,0.002340925107
4.82,0.04122622021,0.0009963134297
4.83,0.04132308759,-0.0003581089763
4.84,0.04137275129,-0.001720574733
4.85,0.04137464053,-0.003089276029
4.86,0.04132826273,-0.004462368305
4.87,0.04123320578,-0.005837974077
4.88,0.04108914,-0.007214186891
4.89,0.04089582001,-0.008589075399
4.9,0.04065308627,-0.009960687539
4.91,0.04036086647,-0.01132705481
4.92,0.04001917667,-0.01268619661
4.93,0.03962812218,-0.01403612469
4.94,0.03918789821,-0.01537484761
4.95,0.03869879031,-0.01670037524
4.96,0.0381611745,-0.01801072335
4.97,0.03757551726,-0.01930391812
4.98,0.03694237512,-0.02057800072
4.99,0.03626239415,-0.02183103183
5,0.03553630915,-0.02306109618
5.01,0.03476494255,-0.02426630699
5.02,0.03394920312,-0.02544481042
5.03,0.03309008447,-0.02659478985
5.04,0.03218866325,-0.0277144702
5.05,0.03124609714,-0.02880212204
5.06,0.03026362267,-0.02985606571
5.07,0.02924255276,-0.03087467518
5.08,0.02818427405,-0.03185638187
5.09,0.02709024413,-0.03279967835
5.1,0.02596198842,-0.03370312176
5.11,0.02480109699,-0.03456533722
5.12,0.02360922119,-0.03538502091
5.13,0.02238807003,-0.03616094311
5.14,0.02113940653,-0.03689195091
5.15,0.01986504383,-0.03757697084
5.16,0.01856684123,-0.03821501121
5.17,0.01724670009,-0.03880516423
5.18,0.01590655963,-0.03934660799
5.19,0.0145483926,-0.0398386081
5.2,0.01317420097,-0.04028051919
5.21,0.01178601144,-0.04067178614
5.22,0.01038587095,-0.04101194504
5.23,0.008975842165,-0.04130062395
5.24,0.007557998918,-0.04153754343
5.25,0.006134421622,-0.04172251676
5.26,0.004707192711,-0.04185544999
5.27,0.003278392089,-0.04193634169
5.28,0.001850092601,-0.04196528252
5.29,0.0004243555539,-0.04194245449
5.3,-0.0009967737126,-0.04186813004
5.31,-0.002411270184,-0.04174267088
5.32,-0.003817133451,-0.04156652659
5.33,-0.005212391894,-0.04134023298
5.34,-0.00659510676,-0.04106441031
5.35,-0.007963376135,-0.04073976121
5.36,-0.009315338771,-0.04036706846
5.37,-0.01064917779,-0.03994719256
5.38,-0.01196312423,-0.03948106913
5.39,-0.01325546044,-0.03896970609
5.4,-0.01452452331,-0.03841418073
5.41,-0.01576870729,-0.03781563662
5.42,-0.01698646731,-0.03717528032
5.43,-0.01817632142,-0.03649437803
5.44,-0.01933685325,-0.03577425206
5.45,-0.02046671434,-0.03501627724
5.46,-0.02156462618,-0.03422187719
5.47,-0.02262938206,-0.03339252053
5.48,-0.02365984873,-0.03252971702
5.49,-0.0246549678,-0.03163501358
5.5,-0.02561375699,-0.03070999037
5.51,-0.02653531104,-0.02975625676
5.52,-0.02741880253,-0.02877544725
5.53,-0.02826348241,-0.02776921747
5.54,-0.02906868027,-0.02673924014
5.55,-0.02983380448,-0.02568720098
5.56,-0.03055834204,-0.02461479478
5.57,-0.03124185825,-0.02352372139
5.58,-0.03188399618,-0.02241568184
5.59,-0.03248447588,-0.02129237447
5.6,-0.03304309344,-0.02015549117
5.61,-0.03355971984,-0.01900671371
5.62,-0.03403429959,-0.01784771013
5.63,-0.03446684922,-0.01668013123
5.64,-0.03485745557,-0.01550560729
5.65,-0.03520627392,-0.01432574474
5.66,-0.03551352596,-0.0131421231
5.67,-0.03577949762,-0.01195629201
5.68,-0.03600453673,-0.01076976842
5.69,-0.03618905058,-0.009584033901
5.7,-0.03633350337,-0.008400532206
5.71,-0.03643841347,-0.007220666904
5.72,-0.03650435071,-0.006045799245
5.73,-0.03653193343,-0.00487724619
5.74,-0.03652182558,-0.00371627862
5.75,-0.03647473371,-0.002564119734
5.76,-0.03639140385,-0.001421943635
5.77,-0.03627261843,-0.0002908741041
5.78,-0.03611919313,0.0008280164315
5.79,-0.03593197367,0.001933707744
5.8,-0.03571183271,0.003025232456
5.81,-0.03545966657,0.004101676502
5.82,-0.03517639216,0.005162179402
5.83,-0.03486294376,0.006205934354
5.84,-0.03452026999,0.007232188133
5.85,-0.03414933069,0.008240240824
5.86,-0.03375109392,0.009229445368
5.87,-0.03332653308,0.01019920695
5.88,-0.03287662397,0.0111489822
5.89,-0.03240234206,0.01207827829
5.9,-0.0319046598,0.01298665178
5.91,-0.03138454401,0.01387370743
5.92,-0.03084295345,0.01473909681
5.93,-0.03028083644,0.01558251676
5.94,-0.02969912861,0.01640370782
5.95,-0.02909875084,0.01720245243
5.96,-0.02848060729,0.01797857313
5.97,-0.02784558354,0.01873193059
5.98,-0.02719454497,0.01946242159
5.99,-0.0265283352,0.02016997693
6,-0.0258477747,0.02085455923
