"Freq [GHz]","re(S(Tx_p1,Tx_p1)) []","im(S(Tx_p1,Tx_p1)) []"
1,-0.06619525947,-0.03853515473
1.01,-0.06783796491,-0.03522727118
1.02,-0.06931587042,-0.03184101748
1.03,-0.07062468935,-0.02838500107
1.04,-0.07176062462,-0.02486807349
1.05,-0.07272038141,-0.02129930091
1.06,-0.07350117808,-0.01768793397
1.07,-0.07410075533,-0.01404337724
1.08,-0.07451738349,-0.0103751583
1.09,-0.07474986813,-0.006692896582
1.1,-0.0747975537,-0.003006272006
1.11,-0.07466032553,0.0006750063968
1.12,-0.07433860982,0.004341231828
1.13,-0.07383337203,0.007982730926
1.14,-0.07314611335,0.01158989471
1.15,-0.07227886543,0.01515320921
1.16,-0.07123418343,0.01866328559
1.17,-0.07001513732,0.02211088981
1.18,-0.06862530156,0.0254869716
1.19,-0.06706874309,0.02878269272
1.2,-0.06535000781,0.03198945444
1.21,-0.06347410555,0.03509892406
1.22,-0.06144649353,0.03810306054
1.23,-0.05927305845,0.04099413896
1.24,-0.0569600973,0.04376477396
1.25,-0.05451429677,0.04640794188
1.26,-0.05194271167,0.04891700169
1.27,-0.04925274208,0.05128571461
1.28,-0.04645210956,0.05350826222
1.29,-0.04354883237,0.05557926329
1.3,-0.04055119992,0.057493789
1.31,-0.03746774635,0.05924737672
1.32,-0.03430722348,0.06083604213
1.33,-0.03107857325,0.06225628982
1.34,-0.02779089953,0.06350512222
1.35,-0.02445343967,0.06458004696
1.36,-0.02107553568,0.06547908244
1.37,-0.01766660525,0.06620076187
1.38,-0.01423611264,0.06674413555
1.39,-0.0107935396,0.06710877152
1.4,-0.007348356338,0.06729475455
1.41,-0.003909992716,0.06730268347
1.42,-0.00048780969,0.06713366683
1.43,0.002908928854,0.06678931709
1.44,0.006271083814,0.06627174306
1.45,0.009589668029,0.0655835409
1.46,0.01285587281,0.06472778363
1.47,0.01606109372,0.06370800911
1.48,0.01919695562,0.06252820666
1.49,0.02225533676,0.06119280233
1.5,0.02522839196,0.05970664281
1.51,0.02810857478,0.05807497817
1.52,0.03088865859,0.05630344337
1.53,0.03356175646,0.05439803874
1.54,0.0361213399,0.05236510931
1.55,0.03856125632,0.05021132327
1.56,0.04087574514,0.04794364953
1.57,0.04305945261,0.04556933445
1.58,0.04510744519,0.0430958779
1.59,0.04701522155,0.04053100859
1.6,0.04877872305,0.03788265896
1.61,0.05039434279,0.03515893952
1.62,0.05185893318,0.03236811284
1.63,0.05316981193,0.02951856729
1.64,0.05432476656,0.02661879048
1.65,0.05532205739,0.02367734268
1.66,0.05616041899,0.02070283019
1.67,0.05683906015,0.01770387874
1.68,0.05735766226,0.01468910706
1.69,0.05771637632,0.01166710072
1.7,0.0579158184,0.008646386197
1.71,0.05795706367,0.005635405471
1.72,0.05784163909,0.00264249098
1.73,0.0575715146,-0.0003241587891
1.74,0.05714909312,-0.0032565031
1.75,0.05657719918,-0.006146682053
1.76,0.0558590663,-0.0089870389
1.77,0.05499832323,-0.0117701415
1.78,0.05399897904,-0.01448880288
1.79,0.05286540711,-0.01713610082
1.8,0.05160232817,-0.01970539643
1.81,0.05021479229,-0.02219035159
1.82,0.04870816012,-0.02458494538
1.83,0.04708808323,-0.02688348921
1.84,0.04536048372,-0.02908064087
1.85,0.04353153323,-0.03117141719
1.86,0.04160763127,-0.03315120561
1.87,0.03959538312,-0.03501577426
1.88,0.03750157727,-0.03676128089
1.89,0.03533316247,-0.03838428032
1.9,0.03309722457,-0.03988173065
1.91,0.03080096311,-0.04125099805
1.92,0.02845166784,-0.04248986022
1.93,0.02605669517,-0.04359650849
1.94,0.02362344465,-0.04456954856
1.95,0.02115933563,-0.0454079999
1.96,0.01867178403,-0.04611129386
1.97,0.01616817949,-0.04667927044
1.98,0.01365586272,-0.04711217377
1.99,0.01114210343,-0.04741064642
2,0.00863407858,-0.0475757224
2.01,0.006138851328,-0.04760881902
2.02,0.003663350483,-0.0475117276
2.03,0.001214350702,-0.04728660312
2.04,-0.001201546609,-0.04693595276
2.05,-0.003577931589,-0.04646262346
2.06,-0.005908603377,-0.04586978857
2.07,-0.008187586671,-0.04516093354
2.08,-0.01040914735,-0.04433984083
2.09,-0.01256780713,-0.04341057402
2.1,-0.01465835715,-0.0423774612
2.11,-0.01667587061,-0.04124507778
2.12,-0.01861571421,-0.04001822857
2.13,-0.02047355854,-0.03870192953
2.14,-0.02224538739,-0.03730138892
2.15,-0.02392750579,-0.03582198815
2.16,-0.02551654702,-0.03426926231
2.17,-0.02700947834,-0.03264888044
2.18,-0.02840360565,-0.03096662563
2.19,-0.02969657691,-0.02922837505
2.2,-0.03088638437,-0.02744007992
2.21,-0.03197136572,-0.02560774553
2.22,-0.03295020399,-0.02373741134
2.23,-0.03382192639,-0.02183513129
2.24,-0.03458590197,-0.01990695432
2.25,-0.03524183824,-0.01795890517
2.26,-0.03578977667,-0.01599696559
2.27,-0.03623008717,-0.01402705592
2.28,-0.03656346155,-0.01205501718
2.29,-0.03679090607,-0.01008659369
2.3,-0.03691373292,-0.008127416227
2.31,-0.03693355096,-0.00618298589
2.32,-0.03685225553,-0.004258658588
2.33,-0.03667201744,-0.002359630281
2.34,-0.0363952713,-0.0004909229744
2.35,-0.03602470304,0.001342628477
2.36,-0.03556323684,0.003136388731
2.37,-0.03501402152,0.00488593345
2.38,-0.03438041624,0.006587059902
2.39,-0.03366597588,0.00823579663
2.4,-0.03287443594,0.009828412199
2.41,-0.03200969699,0.01136142297
2.42,-0.03107580898,0.01283159992
2.43,-0.03007695518,0.01423597446
2.44,-0.02901743598,0.01557184331
2.45,-0.02790165254,0.01683677231
2.46,-0.02673409044,0.01802859937
2.47,-0.02551930326,0.01914543628
2.48,-0.02426189618,0.02018566969
2.49,-0.02296650983,0.02114796107
2.5,-0.02163780411,0.02203124569
2.51,-0.02028044241,0.02283473072
2.52,-0.01889907597,0.02355789245
2.53,-0.01749832864,0.02420047252
2.54,-0.01608278195,0.02476247343
2.55,-0.01465696068,0.02524415313
2.56,-0.01322531877,0.02564601884
2.57,-0.01179222592,0.02596882015
2.58,-0.01036195451,0.02621354135
2.59,-0.00893866732,0.02638139308
2.6,-0.007526405712,0.02647380341
2.61,-0.006129078551,0.02649240823
2.62,-0.004750451777,0.02643904116
2.63,-0.003394138684,0.02631572288
2.64,-0.002063590937,0.02612465012
2.65,-0.0007620903389,0.02586818408
2.66,0.0005072586375,0.02554883863
2.67,0.001741535528,0.02516926812
2.68,0.002938009767,0.02473225495
2.69,0.004094145772,0.02424069692
2.7,0.005207607221,0.02369759442
2.71,0.006276260524,0.02310603752
2.72,0.007298177482,0.02246919298
2.73,0.008271637146,0.02179029127
2.74,0.009195126879,0.02107261358
2.75,0.01006734263,0.020319479
2.76,0.01088718843,0.0195342317
2.77,0.01165377517,0.01872022842
2.78,0.01236641853,0.01788082609
2.79,0.01302463637,0.01701936977
2.8,0.01362814523,0.01613918082
2.81,0.01417685629,0.01524354551
2.82,0.01467087066,0.01433570391
2.83,0.015110474,0.01341883928
2.84,0.01549613067,0.01249606784
2.85,0.0158284772,0.01157042907
2.86,0.01610831537,0.01064487648
2.87,0.01633660472,0.009722268966
2.88,0.01651445465,0.008805362629
2.89,0.01664311618,0.007896803278
2.9,0.01672397324,0.006999119464
2.91,0.01675853372,0.00611471615
2.92,0.01674842024,0.005245868999
2.93,0.01669536061,0.004394719306
2.94,0.01660117816,0.003563269574
2.95,0.01646778195,0.002753379732
2.96,0.01629715674,0.001966764019
2.97,0.01609135301,0.001204988511
2.98,0.01585247689,0.0004694693037
2.99,0.01558268015,-0.0002385286602
3,0.01528415016,-0.0009178921257
3.01,0.01495910003,-0.001567659431
3.02,0.01460975881,-0.002187019799
3.03,0.01423836191,-0.00277531202
3.04,0.01384714168,-0.003332022563
3.05,0.01343831824,-0.003856783106
3.06,0.01301409059,-0.004349367528
3.07,0.01257662802,-0.004809688381
3.08,0.0121280618,-0.005237792856
3.09,0.01167047733,-0.005633858281
3.1,0.01120590658,-0.005998187175
3.11,0.01073632097,-0.006331201883
3.12,0.01026362469,-0.006633438824
3.13,0.009789648464,-0.00690554239
3.14,0.009316143786,-0.007148258517
3.15,0.008844777626,-0.007362427966
3.16,0.008377127643,-0.007548979357
3.17,0.007914677909,-0.007708921965
3.18,0.007458815141,-0.007843338349
3.19,0.007010825467,-0.007953376813
3.2,0.006571891706,-0.008040243756
3.21,0.006143091193,-0.008105195946
3.22,0.005725394127,-0.008149532733
3.23,0.005319662441,-0.008174588261
3.24,0.004926649206,-0.008181723699
3.25,0.004546998543,-0.008172319523
3.26,0.004181246047,-0.008147767885
3.27,0.003829819705,-0.008109465108
3.28,0.003493041303,-0.008058804324
3.29,0.003171128296,-0.007997168297
3.3,0.002864196137,-0.007925922449
3.31,0.002572261039,-0.007846408127
3.32,0.002295243157,-0.007759936131
3.33,0.002032970158,-0.007667780528
3.34,0.00178518117,-0.007571172771
3.35,0.001551531078,-0.007471296159
3.36,0.00133159514,-0.007369280637
3.37,0.001124873912,-0.007266197967
3.38,0.0009307984285,-0.007163057292
3.39,0.000748735643,-0.007060801081
3.4,0.0005779940716,-0.006960301504
3.41,0.0004178296292,-0.006862357213
3.42,0.0002674516215,-0.006767690563
3.43,0.0001260288643,-0.006676945262
3.44,-7.304099681E-06,-0.006590684467
3.45,-0.0001334407152,-0.006509389318
3.46,-0.0002532960916,-0.006433457922
3.47,-0.0003678006713,-0.006363204774
3.48,-0.0004778939184,-0.006298860622
3.49,-0.0005845180576,-0.006240572761
3.5,-0.0006886118906,-0.006188405762
3.51,-0.0007911047179,-0.006142342612
3.52,-0.0008929103935,-0.00610228627
3.53,-0.0009949215371,-0.006068061611
3.54,-0.001098003931,-0.006039417763
3.55,-0.001202991121,-0.006016030803
3.56,-0.001310679253,-0.005997506809
3.57,-0.001421822158,-0.005983385243
3.58,-0.001537126703,-0.005973142653
3.59,-0.001657248448,-0.005966196662
3.6,-0.001782787595,-0.005961910233
3.61,-0.00191428527,-0.005959596184
3.62,-0.002052220142,-0.005958521932
3.63,-0.002197005391,-0.005957914436
3.64,-0.002348986042,-0.005956965315
3.65,-0.002508436665,-0.005954836132
3.66,-0.002675559459,-0.00595066379
3.67,-0.002850482724,-0.005943566038
3.68,-0.003033259711,-0.005932647047
3.69,-0.003223867878,-0.005917003043
3.7,-0.003422208529,-0.005895727951
3.71,-0.003628106854,-0.005867919043
3.72,-0.003841312347,-0.005832682553
3.73,-0.004061499621,-0.005789139237
3.74,-0.004288269596,-0.005736429856
3.75,-0.00452115106,-0.005673720544
3.76,-0.004759602595,-0.005600208058
3.77,-0.005003014852,-0.005515124864
3.78,-0.005250713172,-0.00541774406
3.79,-0.005501960528,-0.005307384089
3.8,-0.005755960784,-0.005183413247
3.81,-0.00601186225,-0.005045253942
3.82,-0.006268761515,-0.004892386705
3.83,-0.006525707543,-0.004724353928
3.84,-0.006781706011,-0.004540763312
3.85,-0.007035723871,-0.004341291007
3.86,-0.007286694107,-0.004125684445
3.87,-0.007533520681,-0.003893764836
3.88,-0.007775083629,-0.003645429328
3.89,-0.008010244296,-0.003380652825
3.9,-0.008237850678,-0.003099489437
3.91,-0.008456742857,-0.002802073585
3.92,-0.008665758495,-0.002488620727
3.93,-0.008863738367,-0.002159427722
3.94,-0.00904953192,-0.001814872828
3.95,-0.009222002805,-0.001455415326
3.96,-0.009380034394,-0.001081594778
3.97,-0.009522535232,-0.0006940299235
3.98,-0.00964844441,-0.0002934172162
3.99,-0.00975673684,0.0001194709907
4,-0.009846428397,0.0005437886051
4.01,-0.009916580924,0.0009786182899
4.02,-0.009966307062,0.001422974283
4.03,-0.009994774897,0.001875805528
4.04,-0.01000121239,0.002335999109
4.05,-0.009984911605,0.002802383964
4.06,-0.009945232647,0.003273734876
4.07,-0.009881607397,0.003748776712
4.08,-0.009793542926,0.004226188898
4.09,-0.009680624643,0.004704610121
4.1,-0.009542519126,0.005182643215
4.11,-0.009378976653,0.005658860239
4.12,-0.009189833392,0.00613180771
4.13,-0.008975013267,0.006600011966
4.14,-0.008734529478,0.007061984657
4.15,-0.008468485675,0.00751622832
4.16,-0.008177076769,0.007961242031
4.17,-0.007860589402,0.008395527107
4.18,-0.007519402044,0.008817592826
4.19,-0.007153984732,0.009225962163
4.2,-0.006764898457,0.009619177499
4.21,-0.006352794185,0.009995806289
4.22,-0.005918411531,0.01035444667
4.23,-0.005462577078,0.010693733
4.24,-0.004986202358,0.01101234122
4.25,-0.004490281497,0.01130899422
4.26,-0.00397588853,0.01158246689
4.27,-0.003444174407,0.01183159116
4.28,-0.002896363685,0.01205526076
4.29,-0.002333750936,0.01225243576
4.3,-0.001757696868,0.01242214697
4.31,-0.001169624189,0.01256350006
4.32,-0.000571013216,0.01267567934
4.33,3.660274822E-05,0.01275795144
4.34,0.0006516422495,0.01280966854
4.35,0.001272480719,0.01283027144
4.36,0.001897455687,0.01281929218
4.37,0.002524872155,0.0127763565
4.38,0.003153008111,0.0127011858
4.39,0.003780120161,0.01259359897
4.4,0.00440444926,0.01245351365
4.41,0.00502422652,0.01228094735
4.42,0.005637679078,0.01207601808
4.43,0.006243035996,0.01183894468
4.44,0.006838534171,0.01157004683
4.45,0.007422424248,0.01126974461
4.46,0.007992976492,0.01093855782
4.47,0.008548486616,0.01057710488
4.48,0.009087281536,0.01018610138
4.49,0.009607725039,0.009766358365
4.5,0.01010822333,0.009318780171
4.51,0.01058723044,0.008844362042
4.52,0.01104325354,0.008344187369
4.53,0.01147485797,0.007819424639
4.54,0.01188067221,0.007271324086
4.55,0.01225939257,0.006701214064
4.56,0.01260978767,0.006110497136
4.57,0.01293070269,0.005500645919
4.58,0.01322106339,0.004873198678
4.59,0.01347987979,0.004229754696
4.6,0.01370624972,0.003571969434
4.61,0.01389936191,0.002901549501
4.62,0.01405849887,0.00222024744
4.63,0.01418303951,0.001529856364
4.64,0.0142724613,0.0008322044525
4.65,0.01432634227,0.0001291493243
4.66,0.01434436253,-0.0005774276836
4.67,0.01432630558,-0.001285627321
4.68,0.01427205918,-0.001993538291
4.69,0.01418161598,-0.002699243151
4.7,0.01405507371,-0.003400824239
4.71,0.01389263507,-0.004096369598
4.72,0.01369460732,-0.004783978881
4.73,0.01346140144,-0.005461769213
4.74,0.01319353107,-0.006127880996
4.75,0.01289161098,-0.006780483637
4.76,0.01255635538,-0.007417781172
4.77,0.01218857574,-0.00803801778
4.78,0.01178917845,-0.008639483158
4.79,0.01135916208,-0.009220517748
4.8,0.01089961438,-0.009779517788
4.81,0.01041170906,-0.01031494019
4.82,0.009896702156,-0.01082530721
4.83,0.00935592831,-0.01130921088
4.84,0.00879079669,-0.01176531728
4.85,0.008202786732,-0.01219237049
4.86,0.007593443656,-0.01258919631
4.87,0.006964373792,-0.01295470576
4.88,0.006317239715,-0.01328789822
4.89,0.005653755225,-0.01358786438
4.9,0.004975680174,-0.01385378884
4.91,0.004284815165,-0.01408495239
4.92,0.003582996137,-0.01428073402
4.93,0.002872088859,-0.01444061266
4.94,0.002153983346,-0.01456416849
4.95,0.001430588218,-0.01465108401
4.96,0.0007038250167,-0.01470114483
4.97,-2.437748789E-05,-0.01471423998
4.98,-0.0007520890062,-0.01469036213
4.99,-0.001477383412,-0.01462960723
5,-0.002198344397,-0.01453217409
5.01,-0.002913071066,-0.01439836341
5.02,-0.003619683471,-0.0142285767
5.03,-0.004316328048,-0.01402331475
5.04,-0.005001182962,-0.01378317588
5.05,-0.00567246332,-0.0135088539
5.06,-0.006328426251,-0.01320113572
5.07,-0.006967375842,-0.01286089878
5.08,-0.007587667895,-0.01248910814
5.09,-0.008187714515,-0.01208681337
5.1,-0.008765988495,-0.01165514517
5.11,-0.009321027505,-0.01119531175
5.12,-0.00985143805,-0.01070859505
5.13,-0.01035589921,-0.0101963467
5.14,-0.01083316614,-0.009659983814
5.15,-0.01128207331,-0.009100984599
5.16,-0.01170153749,-0.008520883835
5.17,-0.0120905605,-0.007921268173
5.18,-0.01244823164,-0.007303771333
5.19,-0.01277372988,-0.006670069168
5.2,-0.01306632573,-0.006021874653
5.21,-0.01332538289,-0.005360932778
5.22,-0.01355035956,-0.004689015383
5.23,-0.01374080942,-0.00400791595
5.24,-0.01389638245,-0.00331944436
5.25,-0.0140168253,-0.002625421636
5.26,-0.01410198152,-0.001927674693
5.27,-0.01415179134,-0.0012280311
5.28,-0.01416629133,-0.0005283138855
5.29,-0.01414561367,0.0001696636169
5.3,-0.01408998515,0.0008641028481
5.31,-0.01399972595,0.001553225027
5.32,-0.01387524809,0.002235276055
5.33,-0.01371705367,0.002908531317
5.34,-0.01352573287,0.003571300349
5.35,-0.01330196159,0.004221931378
5.36,-0.01304649902,0.004858815704
5.37,-0.0127601849,0.00548039193
5.38,-0.01244393652,0.00608515001
5.39,-0.01209874562,0.006671635118
5.4,-0.01172567501,0.007238451321
5.41,-0.0113258551,0.007784265049
5.42,-0.01090048013,0.008307808356
5.43,-0.01045080439,0.008807881954
5.44,-0.009978138226,0.00928335803
5.45,-0.009483843886,0.009733182818
5.46,-0.008969331321,0.01015637894
5.47,-0.008436053849,0.01055204752
5.48,-0.007885503734,0.01091936998
5.49,-0.007319207698,0.0112576097
5.5,-0.006738722376,0.01156611334
5.51,-0.006145629719,0.0118443119
5.52,-0.005541532383,0.0120917216
5.53,-0.004928049082,0.01230794444
5.54,-0.004306809963,0.01249266851
5.55,-0.003679451973,0.0126456681
5.56,-0.003047614265,0.01276680351
5.57,-0.002412933644,0.0128560206
5.58,-0.001777040058,0.01291335016
5.59,-0.001141552164,0.01293890701
5.6,-0.0005080729698,0.01293288884
5.61,0.0001218144369,0.01289557485
5.62,0.0007465510502,0.01282732419
5.63,0.001364605999,0.01272857415
5.64,0.00197448047,0.01259983817
5.65,0.002574711505,0.01244170362
5.66,0.00316387564,0.01225482945
5.67,0.003740592403,0.01203994361
5.68,0.00430352764,0.01179784031
5.69,0.004851396678,0.01152937716
5.7,0.005382967304,0.01123547208
5.71,0.005897062562,0.0109171002
5.72,0.006392563362,0.01057529049
5.73,0.006868410886,0.01021112238
5.74,0.007323608804,0.009825722233
5.75,0.007757225272,0.009420259735
5.76,0.008168394734,0.008995944206
5.77,0.008556319505,0.008554020837
5.78,0.008920271146,0.008095766885
5.79,0.009259591625,0.007622487809
5.8,0.009573694254,0.007135513385
5.81,0.009862064429,0.006636193798
5.82,0.01012426014,0.00612589572
5.83,0.01035991226,0.005605998407
5.84,0.01056872468,0.005077889791
5.85,0.01075047414,0.004542962617
5.86,0.01090500994,0.004002610606
5.87,0.01103225341,0.003458224673
5.88,0.01113219718,0.002911189196
5.89,0.0112049043,0.002362878366
5.9,0.01125050709,0.001814652604
5.91,0.01126920592,0.001267855073
5.92,0.0112612677,0.0007238082866
5.93,0.01122702431,0.0001838108233
5.94,0.01116687078,-0.0003508658466
5.95,0.01108126335,-0.0008789804107
5.96,0.01097071745,-0.001399324635
5.97,0.0108358054,-0.001910726149
5.98,0.01067715412,-0.002412051088
5.99,0.01049544266,-0.002902206593
6,0.01029139959,-0.003380143146
