"Freq [GHz]","re(S(Tx_p1,Tx_p1)) []","im(S(Tx_p1,Tx_p1)) []"
1,0.09974864316,-0.2466772382
1.01,0.09375998168,-0.246683404
1.02,0.08782214113,-0.2465721649
1.03,0.08193973521,-0.2463453494
1.04,0.07611717136,-0.2460052061
1.05,0.07035862424,-0.2455543753
1.06,0.06466801148,-0.2449958594
1.07,0.05904897164,-0.2443329929
1.08,0.05350484452,-0.243569412
1.09,0.04803865367,-0.2427090235
1.1,0.04265309122,-0.2417559729
1.11,0.03735050485,-0.2407146136
1.12,0.03213288715,-0.2395894741
1.13,0.02700186704,-0.238385227
1.14,0.02195870341,-0.2371066565
1.15,0.017004281,-0.2357586272
1.16,0.01213910827,-0.2343460527
1.17,0.007363317411,-0.2328738642
1.18,0.002676666412,-0.2313469808
1.19,-0.001921456955,-0.229770279
1.2,-0.006432029169,-0.2281485636
1.21,-0.01085638315,-0.2264865394
1.22,-0.01519619862,-0.2247887837
1.23,-0.01945349076,-0.2230597195
1.24,-0.02363059714,-0.22130359
1.25,-0.02773016313,-0.2195244346
1.26,-0.0317551257,-0.2177260651
1.27,-0.0357086959,-0.2159120441
1.28,-0.03959433991,-0.2140856647
1.29,-0.04341575884,-0.2122499309
1.3,-0.04717686743,-0.2104075403
1.31,-0.0508817716,-0.2085608679
1.32,-0.05453474508,-0.2067119516
1.33,-0.05814020514,-0.2048624794
1.34,-0.06170268759,-0.2030137782
1.35,-0.06522682106,-0.2011668041
1.36,-0.06871730078,-0.199322135
1.37,-0.07217886181,-0.1974799646
1.38,-0.07561625207,-0.195640098
1.39,-0.07903420499,-0.1938019494
1.4,-0.08243741209,-0.1919645417
1.41,-0.08583049555,-0.1901265076
1.42,-0.08921798086,-0.1882860926
1.43,-0.09260426963,-0.1864411597
1.44,-0.09599361273,-0.1845891964
1.45,-0.09939008384,-0.1827273227
1.46,-0.1027975535,-0.180852301
1.47,-0.1062196638,-0.1789605485
1.48,-0.1096598036,-0.1770481498
1.49,-0.1131210851,-0.1751108725
1.5,-0.1166063204,-0.1731441834
1.51,-0.1201180001,-0.1711432668
1.52,-0.1236582723,-0.1691030437
1.53,-0.1272289227,-0.1670181928
1.54,-0.1308313566,-0.1648831726
1.55,-0.1344665819,-0.1626922449
1.56,-0.1381351929,-0.1604394991
1.57,-0.1418373568,-0.1581188777
1.58,-0.1455728007,-0.1557242033
1.59,-0.1493408008,-0.1532492052
1.6,-0.1531401728,-0.1506875483
1.61,-0.1569692643,-0.1480328618
1.62,-0.1608259494,-0.1452787684
1.63,-0.1647076236,-0.1424189143
1.64,-0.1686112024,-0.1394469996
1.65,-0.1725331204,-0.136356809
1.66,-0.1764693328,-0.133142242
1.67,-0.1804153184,-0.1297973443
1.68,-0.1843660853,-0.1263163378
1.69,-0.1883161773,-0.1226936517
1.7,-0.1922596832,-0.1189239522
1.71,-0.1961902472,-0.1150021729
1.72,-0.2001010818,-0.1109235434
1.73,-0.2039849819,-0.1066836184
1.74,-0.2078343411,-0.1022783055
1.75,-0.2116411694,-0.09770389242
1.76,-0.2153971129,-0.09295707284
1.77,-0.2190934751,-0.08803497177
1.78,-0.2227212393,-0.0829351694
1.79,-0.2262710932,-0.07765572381
1.8,-0.2297334544,-0.07219519237
1.81,-0.2330984977,-0.06655265171
1.82,-0.2363561833,-0.06072771616
1.83,-0.2394962863,-0.05472055465
1.84,-0.2425084276,-0.04853190597
1.85,-0.2453821053,-0.04216309224
1.86,-0.2481067276,-0.03561603067
1.87,-0.250671646,-0.02889324344
1.88,-0.2530661894,-0.02199786572
1.89,-0.255279699,-0.01493365172
1.9,-0.2573015635,-0.007704978807
1.91,-0.2591212542,-0.0003168495952
1.92,-0.2607283617,0.007225108002
1.93,-0.2621126311,0.01491464274
1.94,-0.2632639983,0.02274488409
1.95,-0.2641726261,0.03070834833
1.96,-0.2648289397,0.03879694672
1.97,-0.265223662,0.04700199572
1.98,-0.2653478485,0.05531422921
1.99,-0.265192922,0.06372381278
2,-0.2647507059,0.07222035998
2.01,-0.2640134572,0.08079295047
2.02,-0.2629738985,0.08943015014
2.03,-0.2616252489,0.09812003305
2.04,-0.2599612537,0.1068502052
2.05,-0.2579762135,0.1156078299
2.06,-0.2556650107,0.1243796552
2.07,-0.2530231361,0.1331520421
2.08,-0.2500467125,0.1419109955
2.09,-0.2467325184,0.1506421953
2.1,-0.2430780079,0.1593310298
2.11,-0.2390813311,0.1679626297
2.12,-0.2347413508,0.176521904
2.13,-0.2300576586,0.1849935759
2.14,-0.2250305879,0.1933622206
2.15,-0.2196612263,0.2016123039
2.16,-0.2139514246,0.2097282202
2.17,-0.2079038045,0.2176943334
2.18,-0.2015217638,0.2254950161
2.19,-0.1948094796,0.2331146903
2.2,-0.1877719094,0.2405378685
2.21,-0.1804147897,0.2477491942
2.22,-0.172744633,0.2547334834
2.23,-0.1647687214,0.2614757646
2.24,-0.1564950995,0.26796132
2.25,-0.147932564,0.274175726
2.26,-0.1390906518,0.2801048921
2.27,-0.1299796251,0.2857351011
2.28,-0.1206104554,0.291053047
2.29,-0.1109948049,0.2960458729
2.3,-0.1011450058,0.3007012081
2.31,-0.09107403749,0.3050072031
2.32,-0.0807955026,0.308952565
2.33,-0.07032360014,0.3125265904
2.34,-0.0596730975,0.3157191974
2.35,-0.04885930056,0.3185209563
2.36,-0.03789802204,0.3209231187
2.37,-0.02680554849,0.3229176446
2.38,-0.01559860557,0.3244972279
2.39,-0.004294322159,0.325655321
2.4,0.007089806992,0.3263861559
2.41,0.01853595969,0.3266847649
2.42,0.03002602585,0.3265469981
2.43,0.04154164803,0.32596954
2.44,0.05306426282,0.3249499228
2.45,0.06457514295,0.3234865383
2.46,0.0760554401,0.3215786475
2.47,0.08748622818,0.3192263878
2.48,0.09884854697,0.3164307778
2.49,0.1101234461,0.3131937205
2.5,0.1212920293,0.3095180032
2.51,0.1323354982,0.3054072961
2.52,0.1432351968,0.3008661477
2.53,0.1539726548,0.2958999788
2.54,0.1645296318,0.2905150732
2.55,0.1748881594,0.2847185671
2.56,0.1850305845,0.2785184359
2.57,0.1949396106,0.2719234783
2.58,0.2045983387,0.2649432991
2.59,0.2139903075,0.2575882893
2.6,0.2230995321,0.2498696041
2.61,0.2319105419,0.2417991396
2.62,0.2404084173,0.2333895063
2.63,0.2485788245,0.2246540022
2.64,0.2564080492,0.2156065827
2.65,0.2638830292,0.20626183
2.66,0.270991384,0.1966349197
2.67,0.2777214446,0.1867415869
2.68,0.2840622793,0.1765980903
2.69,0.2900037196,0.1662211749
2.7,0.2955363826,0.1556280335
2.71,0.3006516925,0.1448362676
2.72,0.3053418992,0.1338638464
2.73,0.3096000951,0.1227290653
2.74,0.3134202298,0.111450504
2.75,0.3167971226,0.100046983
2.76,0.3197264722,0.08853752045
2.77,0.3222048649,0.07694128796
2.78,0.3242297798,0.06527756639
2.79,0.3257995924,0.05356570131
2.8,0.3269135751,0.0418250585
2.81,0.3275718959,0.03007497943
2.82,0.3277756146,0.01833473695
2.83,0.3275266768,0.006623491313
2.84,0.3268279054,-0.005039753415
2.85,0.3256829901,-0.01663619234
2.86,0.3240964748,-0.02814726207
2.87,0.3220737423,-0.03955468229
2.88,0.3196209971,-0.05084049634
2.89,0.3167452467,-0.06198711087
2.9,0.31345428,-0.07297733431
2.91,0.3097566443,-0.08379441407
2.92,0.3056616204,-0.09442207252
2.93,0.3011791956,-0.1048445414
2.94,0.2963200353,-0.1150465947
2.95,0.2910954529,-0.1250135802
2.96,0.2855173782,-0.1347314489
2.97,0.279598324,-0.1441867829
2.98,0.2733513521,-0.1533668213
2.99,0.2667900374,-0.1622594847
3,0.2599284312,-0.1708533967
3.01,0.2527810232,-0.1791379044
3.02,0.2453627033,-0.1871030962
3.03,0.2376887218,-0.1947398179
3.04,0.2297746494,-0.2020396861
3.05,0.2216363364,-0.2089950999
3.06,0.2132898719,-0.2155992503
3.07,0.2047515423,-0.2218461273
3.08,0.1960377897,-0.2277305245
3.09,0.1871651704,-0.2332480422
3.1,0.1781503134,-0.2383950877
3.11,0.169009879,-0.2431688731
3.12,0.1597605177,-0.2475674121
3.13,0.15041883,-0.2515895131
3.14,0.1410013257,-0.2552347718
3.15,0.1315243852,-0.2585035598
3.16,0.1220042203,-0.2613970131
3.17,0.1124568369,-0.2639170174
3.18,0.102897998,-0.2660661915
3.19,0.09334318835,-0.2678478696
3.2,0.08380757947,-0.2692660808
3.21,0.07430599691,-0.2703255276
3.22,0.06485288827,-0.2710315623
3.23,0.05546229284,-0.2713901624
3.24,0.04614781282,-0.2714079037
3.25,0.03692258608,-0.2710919325
3.26,0.02779926065,-0.2704499366
3.27,0.01878997093,-0.2694901148
3.28,0.009906315743,-0.2682211455
3.29,0.001159338209,-0.2666521541
3.3,-0.007440492474,-0.2647926797
3.31,-0.01588329728,-0.2626526412
3.32,-0.02415980167,-0.2602423019
3.33,-0.03226134781,-0.2575722348
3.34,-0.0401799049,-0.2546532867
3.35,-0.04790807732,-0.2514965415
3.36,-0.05543911082,-0.2481132847
3.37,-0.06276689663,-0.2445149664
3.38,-0.06988597349,-0.2407131652
3.39,-0.07679152767,-0.236719552
3.4,-0.08347939101,-0.2325458536
3.41,-0.08994603686,-0.2282038175
3.42,-0.09618857417,-0.2237051766
3.43,-0.1022047396,-0.2190616147
3.44,-0.1079928875,-0.2142847324
3.45,-0.1135519789,-0.2093860142
3.46,-0.1188815673,-0.2043767963
3.47,-0.1239817841,-0.1992682352
3.48,-0.1288533216,-0.194071278
3.49,-0.1334974145,-0.1887966329
3.5,-0.1379158203,-0.1834547418
3.51,-0.1421107975,-0.1780557542
3.52,-0.1460850833,-0.1726095017
3.53,-0.1498418691,-0.1671254749
3.54,-0.153384776,-0.1616128015
3.55,-0.1567178278,-0.1560802259
3.56,-0.1598454244,-0.1505360908
3.57,-0.162772313,-0.1449883199
3.58,-0.1655035598,-0.1394444032
3.59,-0.16804452,-0.1339113833
3.6,-0.1704008075,-0.1283958442
3.61,-0.1725782646,-0.1229039013
3.62,-0.1745829309,-0.1174411941
3.63,-0.1764210116,-0.1120128799
3.64,-0.1780988467,-0.1066236299
3.65,-0.1796228791,-0.1012776273
3.66,-0.1809996235,-0.09597856684
3.67,-0.1822356351,-0.09072965658
3.68,-0.1833374788,-0.08553362149
3.69,-0.1843116989,-0.08039270871
3.7,-0.1851647886,-0.07530869475
3.71,-0.1859031616,-0.07028289444
3.72,-0.1865331226,-0.06531617157
3.73,-0.18706084,-0.06040895118
3.74,-0.187492319,-0.05556123356
3.75,-0.1878333756,-0.05077260973
3.76,-0.1880896119,-0.04604227845
3.77,-0.1882663925,-0.04136906463
3.78,-0.1883688221,-0.03675143914
3.79,-0.1884017245,-0.03218753983
3.8,-0.1883696234,-0.02767519382
3.81,-0.1882767235,-0.02321194078
3.82,-0.1881268946,-0.01879505736
3.83,-0.1879236562,-0.01442158242
3.84,-0.1876701644,-0.01008834314
3.85,-0.1873691999,-0.005791981867
3.86,-0.1870231583,-0.001528983507
3.87,-0.1866340417,0.002704296469
3.88,-0.1862034524,0.00691160368
3.89,-0.1857325883,0.01109675616
3.9,-0.1852222397,0.01526361548
3.91,-0.1846727888,0.0194160578
3.92,-0.18408421,0.02355794495
3.93,-0.183456073,0.02769309558
3.94,-0.1827875469,0.03182525664
3.95,-0.1820774064,0.03595807513
3.96,-0.18132404,0.04009507032
3.97,-0.1805254595,0.04423960655
3.98,-0.1796793115,0.04839486668
3.99,-0.1787828903,0.05256382624
4,-0.1778331527,0.05674922852
4.01,-0.1768267342,0.06095356053
4.02,-0.1757599665,0.06517903009
4.03,-0.1746288967,0.06942754394
4.04,-0.1734293081,0.07370068714
4.05,-0.1721567412,0.07799970372
4.06,-0.1708065176,0.08232547874
4.07,-0.1693737634,0.08667852171
4.08,-0.1678534345,0.09105895159
4.09,-0.1662403429,0.09546648331
4.1,-0.1645291832,0.09990041589
4.11,-0.1627145608,0.1043596223
4.12,-0.1607910197,0.1088425409
4.13,-0.1587530718,0.1133471687
4.14,-0.156595226,0.1178710566
4.15,-0.1543120183,0.1224113061
4.16,-0.1518980409,0.1269645677
4.17,-0.1493479732,0.131527042
4.18,-0.1466566113,0.1360944816
4.19,-0.1438188981,0.1406621954
4.2,-0.1408299532,0.1452250549
4.21,-0.1376851024,0.1497775016
4.22,-0.1343799066,0.1543135572
4.23,-0.1309101906,0.1588268347
4.24,-0.1272720707,0.163310552
4.25,-0.1234619825,0.1677575464
4.26,-0.1194767065,0.1721602917
4.27,-0.1153133942,0.1765109161
4.28,-0.1109695923,0.1808012222
4.29,-0.1064432659,0.1850227086
4.3,-0.1017328208,0.1891665924
4.31,-0.09683712417,0.1932238335
4.32,-0.09175552406,0.19718516
4.33,-0.08648786746,0.2010410954
4.34,-0.08103451669,0.204781986
4.35,-0.07539636431,0.2083980301
4.36,-0.06957484636,0.211879308
4.37,-0.06357195389,0.2152158127
4.38,-0.05739024271,0.2183974814
4.39,-0.05103284136,0.2214142281
4.4,-0.0445034572,0.224255976
4.41,-0.03780638063,0.2269126912
4.42,-0.03094648743,0.2293744162
4.43,-0.02392923909,0.2316313039
4.44,-0.01676068124,0.2336736515
4.45,-0.009447440146,0.2354919347
4.46,-0.001996717146,0.2370768419
4.47,0.005583718773,0.2384193075
4.48,0.01328554042,0.2395105459
4.49,0.02109987378,0.2403420846
4.5,0.02901731124,0.2409057962
4.51,0.03702792683,0.2411939309
4.52,0.04512129319,0.2411991473
4.53,0.05328650044,0.2409145431
4.54,0.06151217678,0.240333684
4.55,0.06978651083,0.2394506321
4.56,0.07809727558,0.2382599734
4.57,0.08643185399,0.2367568433
4.58,0.0947772661,0.2349369511
4.59,0.1031201976,0.2327966034
4.6,0.1114470296,0.2303327256
4.61,0.1197438703,0.2275428818
4.62,0.1279965868,0.2244252931
4.63,0.136190839,0.2209788544
4.64,0.1443121142,0.2172031489
4.65,0.1523457624,0.2130984615
4.66,0.1602770326,0.2086657893
4.67,0.1680911096,0.2039068509
4.68,0.1757731521,0.1988240935
4.69,0.1833083301,0.1934206979
4.7,0.1906818639,0.1877005813
4.71,0.1978790624,0.1816683985
4.72,0.204885362,0.1753295404
4.73,0.2116863657,0.1686901307
4.74,0.2182678814,0.1617570205
4.75,0.2246159611,0.1545377807
4.76,0.2307169383,0.1470406925
4.77,0.2365574667,0.1392747351
4.78,0.2421245565,0.1312495728
4.79,0.2474056119,0.122975538
4.8,0.2523884659,0.1144636143
4.81,0.2570614161,0.1057254165
4.82,0.2614132577,0.09677316826
4.83,0.265433317,0.08761967945
4.84,0.2691114825,0.07827832016
4.85,0.2724382352,0.06876299386
4.86,0.2754046777,0.05908810866
4.87,0.2780025611,0.04926854698
4.88,0.2802243111,0.03931963373
4.89,0.2820630521,0.02925710314
4.9,0.2835126292,0.01909706423
4.91,0.2845676291,0.008855965032
4.92,0.2852233986,-0.00144944425
4.93,0.2854760613,-0.01180214914
4.94,0.2853225326,-0.02218490969
4.95,0.2847605318,-0.03258030008
4.96,0.2837885931,-0.04297074892
4.97,0.2824060741,-0.05333858014
4.98,0.2806131619,-0.06366605432
4.99,0.2784108774,-0.07393541033
5,0.2758010768,-0.08412890734
5.01,0.2727864521,-0.09422886672
5.02,0.2693705279,-0.1042177141
5.03,0.2655576568,-0.1140780213
5.04,0.261353013,-0.1237925479
5.05,0.2567625824,-0.1333442823
5.06,0.2517931522,-0.1427164827
5.07,0.2464522968,-0.1518927174
5.08,0.2407483626,-0.1608569037
5.09,0.2346904505,-0.1695933469
5.1,0.2282883963,-0.178086778
5.11,0.2215527491,-0.1863223898
5.12,0.2144947479,-0.1942858729
5.13,0.2071262963,-0.2019634497
5.14,0.1994599358,-0.2093419068
5.15,0.1915088165,-0.216408627
5.16,0.1832866673,-0.2231516188
5.17,0.1748077639,-0.2295595445
5.18,0.1660868955,-0.235621747
5.19,0.1571393302,-0.2413282744
5.2,0.1479807791,-0.2466699028
5.21,0.1386273596,-0.2516381574
5.22,0.1290955571,-0.2562253313
5.23,0.1194021858,-0.2604245029
5.24,0.1095643498,-0.2642295504
5.25,0.09959940165,-0.2676351649
5.26,0.08952490206,-0.2706368608
5.27,0.07935857792,-0.2732309848
5.28,0.06911828063,-0.2754147217
5.29,0.05882194392,-0.277186099
5.3,0.04848754162,-0.2785439883
5.31,0.03813304545,-0.2794881055
5.32,0.02777638291,-0.2800190082
5.33,0.01743539537,-0.2801380908
5.34,0.007127796609,-0.2798475778
5.35,-0.003128868285,-0.279150515
5.36,-0.01331726333,-0.2780507578
5.37,-0.02342030145,-0.2765529587
5.38,-0.0334211834,-0.2746625514
5.39,-0.04330343579,-0.2723857342
5.4,-0.05305094816,-0.2697294502
5.41,-0.06264800879,-0.2667013667
5.42,-0.07207933946,-0.2633098521
5.43,-0.08133012872,-0.2595639514
5.44,-0.09038606392,-0.2554733599
5.45,-0.09923336163,-0.2510483954
5.46,-0.1078587965,-0.2462999688
5.47,-0.1162497287,-0.2412395532
5.48,-0.1243941291,-0.2358791523
5.49,-0.1322806034,-0.2302312665
5.5,-0.1398984136,-0.2243088589
5.51,-0.1472374986,-0.2181253198
5.52,-0.1542884915,-0.2116944302
5.53,-0.1610427363,-0.2050303248
5.54,-0.1674923017,-0.1981474541
5.55,-0.173629993,-0.1910605462
5.56,-0.1794493621,-0.1837845675
5.57,-0.1849447153,-0.1763346839
5.58,-0.1901111187,-0.168726221
5.59,-0.1949444023,-0.1609746249
5.6,-0.1994411611,-0.153095422
5.61,-0.2035987543,-0.1451041803
5.62,-0.2074153029,-0.1370164694
5.63,-0.2108896845,-0.1288478221
5.64,-0.2140215268,-0.1206136957
5.65,-0.2168111982,-0.112329434
5.66,-0.2192597976,-0.1040102305
5.67,-0.2213691406,-0.0956710913
5.68,-0.2231417459,-0.08732679998
5.69,-0.2245808179,-0.0789918828
5.7,-0.2256902286,-0.07068057523
5.71,-0.226474498,-0.06240678952
5.72,-0.2269387717,-0.05418408362
5.73,-0.2270887985,-0.04602563136
5.74,-0.226930905,-0.03794419417
5.75,-0.22647197,-0.02995209413
5.76,-0.2257193967,-0.02206118875
5.77,-0.2246810846,-0.01428284725
5.78,-0.2233653994,-0.006627928667
5.79,-0.2217811422,0.0008932384387
5.8,-0.2199375182,0.008270874356
5.81,-0.2178441038,0.01549576482
5.82,-0.2155108138,0.02255927571
5.83,-0.2129478674,0.02945336584
5.84,-0.2101657537,0.03617059783
5.85,-0.2071751975,0.04270414699
5.86,-0.2039871242,0.04904780826
5.87,-0.2006126244,0.05519600121
5.88,-0.197062919,0.06114377296
5.89,-0.1933493241,0.06688679928
5.9,-0.1894832163,0.07242138361
5.91,-0.1854759973,0.07774445419
5.92,-0.1813390605,0.08285355931
5.93,-0.1770837569,0.08774686063
5.94,-0.1727213615,0.09242312463
5.95,-0.1682630417,0.09688171236
5.96,-0.1637198248,0.1011225673
5.97,-0.1591025677,0.1051462018
5.98,-0.1544219269,0.1089536811
5.99,-0.1496883299,0.1125466071
6,-0.1449119475,0.1159270992
