"Freq [GHz]","re(S(Antenna1_1_1,Antenna1_1_1)) []","im(S(Antenna1_1_1,Antenna1_1_1)) []"
3,-0.201079689558793,-0.162567081146626
3.0175,-0.209147957838813,-0.147307785724894
3.035,-0.216009204534857,-0.131498038323135
3.0525,-0.221571580133028,-0.115221316640554
3.07,-0.225752546398173,-0.0985969042317744
3.0875,-0.228496212806816,-0.0817727600994311
3.105,-0.229783664174493,-0.0649101211483729
3.1225,-0.229632956420442,-0.0481658129352398
3.14,-0.228090029934317,-0.0316788240980418
3.1575,-0.225215515152042,-0.01556512803283
3.175,-0.221073381729947,7.95450666242959E-05
3.1925,-0.215725233266167,0.015172913103697
3.21,-0.209230142207443,0.0296402725599218
3.2275,-0.201648391184198,0.043410013666907
3.245,-0.193041254868488,0.0564223479488647
3.2625,-0.183458935637622,0.0686277596617738
3.28,-0.172939481585195,0.0799738626331707
3.2975,-0.161508344548146,0.0903955406416073
3.315,-0.149188533930738,0.0998018967133836
3.3325,-0.136020448167074,0.108070812034247
3.35,-0.12208484194973,0.115057656384848
3.3675,-0.107518529811688,0.120618886197112
3.385,-0.0925134995051257,0.124643732135213
3.4025,-0.0772963298024052,0.127081799983857
3.42,-0.0620936004519445,0.127954369581561
3.4375,-0.0470961085493872,0.127343160844851
3.455,-0.0324503980504284,0.125356368211813
3.4725,-0.018214883651079,0.122115094948826
3.49,-0.00442083737086149,0.117682030299046
3.5075,0.0088954433277487,0.112073156819848
3.525,0.0216628178729739,0.105277779979672
3.5425,0.0337659610405429,0.0972913867501044
3.56,0.0450589769767276,0.0881451399233442
3.5775,0.0553934666085105,0.0779185330885556
3.595,0.0646461979493724,0.0667308635793434
3.6125,0.072732824571803,0.0547180340960833
3.63,0.0796021803785797,0.042008289854455
3.6475,0.0852162915917567,0.0287103358032825
3.665,0.0895255317340196,0.0149129981543499
3.6825,0.0924567032016762,0.000725441688685881
3.7,0.0939425534382312,-0.0137001647476457
3.7175,0.0939407647623535,-0.0281795547771002
3.735,0.0924616187250256,-0.0425041193527986
3.7525,0.0895808760703017,-0.0564726952013919
3.77,0.0854298965285299,-0.0699270083972587
3.7875,0.0801651894032248,-0.0827752731557199
3.805,0.0739289863593687,-0.0949933727507459
3.8225,0.0668163903195634,-0.106602707744211
3.84,0.0588616153474762,-0.117633513357584
3.8575,0.0500476192586956,-0.128087835947182
3.875,0.0403341242357063,-0.13791540557533
3.8925,0.0296575006256333,-0.1470277577959
3.91,0.0180568183275703,-0.155222165607777
3.9275,0.00563119947174257,-0.162333613507369
3.945,-0.0074619989191892,-0.168227814253273
3.9625,-0.0210272982092443,-0.172823223126247
3.98,-0.034857025097902,-0.17610074798585
3.9975,-0.0487571939248682,-0.178101646608947
4.015,-0.0625694475733807,-0.178915696006348
4.0325,-0.076186490494859,-0.178661846395056
4.05,-0.0895586563556466,-0.177463636624386
4.0675,-0.102689185691443,-0.175422736511249
4.085,-0.115616871040118,-0.172595959129508
4.1025,-0.128387777564141,-0.168982551702302
4.12,-0.141022130300359,-0.164527736623751
4.1375,-0.153486148122726,-0.159144429634331
4.155,-0.165679201258765,-0.152748682494612
4.1725,-0.177442844026932,-0.145298236480885
4.19,-0.188590799401205,-0.13682072679286
4.2075,-0.198950692116315,-0.127420549528989
4.225,-0.208402966304267,-0.117260848075387
4.2425,-0.21690276705168,-0.106526666346686
4.26,-0.22447694303107,-0.0953828995190502
4.2775,-0.231198231331811,-0.083942719743192
4.295,-0.237147799954624,-0.0722575372794935
4.3125,-0.242381526869081,-0.0603302313976176
4.33,-0.246939669517505,-0.0481513388946655
4.3475,-0.250768391922256,-0.035684127795122
4.365,-0.253813718365581,-0.0229542556792522
4.3825,-0.25603047934973,-0.0100159908277918
4.4,-0.257393881540667,0.0030640185790782
4.4175,-0.257896173006144,0.0162234208898563
4.435,-0.257533253950416,0.0294112409247901
4.4525,-0.256291322535735,0.0425815458529779
4.47,-0.254143343287039,0.0556778594421635
4.4875,-0.251059581347515,0.0686181382132658
4.505,-0.247028537741907,0.0812906006309633
4.5225,-0.242078346950115,0.0935657547499541
4.54,-0.236287213539858,0.105322011677931
4.5575,-0.229775577075541,0.116475155907171
4.575,-0.222680528800166,0.12699909186548
4.5925,-0.215120954517567,0.136928081666228
4.61,-0.207166346030511,0.146337888878937
4.6275,-0.198821272630017,0.155311647764602
4.645,-0.190031664309572,0.163902274514699
4.6625,-0.180710944486047,0.172104441314565
4.68,-0.170777058793164,0.179845349917352
4.6975,-0.160188210973744,0.186996653678709
4.715,-0.148966459317739,0.193402818523953
4.7325,-0.137203144826918,0.198916585956232
4.75,-0.125046148505428,0.203431234529609
4.7675,-0.112713375630655,0.206860909262873
4.785,-0.100370179393477,0.209313988111692
4.8025,-0.0881274648800192,0.210881118333733
4.82,-0.0760438946470895,0.211666764132583
4.8375,-0.0641293329172009,0.21176502215045
4.855,-0.0523576319230797,0.211240593715608
4.8725,-0.0406855105191133,0.210117648933645
4.89,-0.0290738514505593,0.208378051979787
4.9075,-0.0175074030241405,0.20596915871294
4.925,-0.0060087825654066,0.202819788883967
4.9425,0.00535663423183012,0.198861050155952
4.96,0.0164865008427632,0.194047046213009
4.9775,0.0272567052298577,0.188370019570444
4.995,0.0375418328935626,0.181865773281787
5.0125,0.0472349693047308,0.174608135677535
5.03,0.0562612182917055,0.166694775227539
5.0475,0.0645817025206528,0.158229387383456
5.065,0.0721883390941996,0.149305978425711
5.0825,0.0790928043048459,0.139999384674524
5.1,0.0853144505690856,0.130363107809645
5.1175,0.0908710362609929,0.120432545585213
5.135,0.0957736451663779,0.110230201591338
5.1525,0.100024575417338,0.0997700716058358
5.17,0.103615742466388,0.0890605563570518
5.1875,0.106525929344843,0.0781075029065456
5.205,0.108717488550314,0.066919822565002
5.2225,0.110135375265925,0.0555188643065642
5.24,0.110712064043979,0.0439498892492276
5.2575,0.110380161888032,0.032291179243398
5.275,0.109090911868463,0.0206553225369234
5.2925,0.106832993432407,0.00917906932628873
5.31,0.103644135894254,-0.00199757594413489
5.3275,0.0996094160234827,-0.012757436824973
5.345,0.0948445545296455,-0.0230286017830889
5.3625,0.0894683509020344,-0.0327946094453674
5.38,0.0835730747111566,-0.0420876839816153
5.3975,0.077203003706497,-0.05096645899348
5.415,0.0703486216545697,-0.0594854379419799
5.4325,0.0629583240330566,-0.0676664536980256
5.45,0.0549632163404112,-0.0754813789775465
5.4675,0.0463063274570184,-0.0828508685948215
5.485,0.0369669065376024,-0.0896580361425369
5.5025,0.0269733444231373,-0.0957712085435727
5.52,0.0164030311498837,-0.10106805997047
5.5375,0.0053718426759405,-0.105454781603302
5.555,-0.00598184163434388,-0.108877262909356
5.5725,-0.0175141011467911,-0.111324566786936
5.59,-0.0290909817925677,-0.112826657542078
5.6075,-0.0406020941208019,-0.113447973009961
5.625,-0.051972338866642,-0.113276945802496
5.6425,-0.0631479168003087,-0.112447169995251
5.66,-0.0742037295621226,-0.111021467941048
5.6775,-0.0851991227384964,-0.109023619810608
5.695,-0.0961947795520867,-0.106423115040582
5.7125,-0.107223001936813,-0.103138278814502
5.73,-0.1182615035644,-0.0990558438304912
5.7475,-0.129220368391465,-0.0940636355076344
5.765,-0.139948658229501,-0.0880872216062316
5.7825,-0.150260610073245,-0.0811185076839394
5.8,-0.159974026771722,-0.0732260532448716
5.8175,-0.168948522772006,-0.0645429767786883
5.835,-0.177111016145593,-0.0552363316114766
5.8525,-0.184460502758372,-0.0454684356386676
5.87,-0.191051772226607,-0.0353630846605935
5.8875,-0.196965111462514,-0.0249869848979878
5.905,-0.202273191147453,-0.0143504410128854
5.9225,-0.207015818457743,-0.00342419500364318
5.94,-0.211188775693236,0.00783566868207357
5.9575,-0.21474691523682,0.019463896471127
5.975,-0.217616832610946,0.0314697903168481
5.9925,-0.219712649441616,0.0438304053304522
6.01,-0.220949850502165,0.05649115628023
6.0275,-0.221255294733747,0.0693701133713622
6.045,-0.220574360019359,0.0823632117422283
6.0625,-0.218877111157067,0.0953499479077774
6.08,-0.216144478509094,0.108195658967896
6.0975,-0.212439742922016,0.120761913983355
6.115,-0.207842279084995,0.132946691789957
6.1325,-0.202449648958825,0.144684833996843
6.15,-0.196358475556208,0.155952207146546
6.1675,-0.18964504679568,0.166759333813893
6.185,-0.182351736457681,0.177135661133777
6.2025,-0.174483584431651,0.187109154592813
6.22,-0.16601577121147,0.196687560540935
6.2375,-0.156908934460703,0.205846721361141
6.255,-0.147127035153675,0.214528327785406
6.2725,-0.136652646740057,0.222646010760342
6.29,-0.125496689505736,0.230096379464413
6.3075,-0.113702359072028,0.236771377774255
6.325,-0.101344755832099,0.242569805122027
6.3425,-0.0885277195467003,0.247407722208187
6.36,-0.0753780179013586,0.251228302376556
6.3775,-0.062035666562711,0.254010835717189
6.395,-0.0486391963499478,0.255776615379089
6.4125,-0.0353067043939966,0.256587856710055
6.43,-0.0221167634449665,0.256536207540666
6.4475,-0.00909588835801783,0.255720436647456
6.465,0.00378066794675817,0.254217649577936
6.4825,0.0165714058361387,0.252056715839161
6.5,0.0293370033467054,0.249204071768888
6.5175,0.0421404916940139,0.245578473429794
6.535,0.0549064450175921,0.241012947718715
6.5525,0.0674966476437551,0.235403272476096
6.57,0.0797216957040904,0.228709535699972
6.5875,0.0913820139501483,0.220973659779247
6.605,0.102310963764525,0.212311538085586
6.6225,0.112405443955668,0.20288361978762
6.64,0.121634661560712,0.19285535743305
6.6575,0.130026316969274,0.182361722026474
6.675,0.137637664296905,0.171487120596389
6.6925,0.144523469011179,0.160265087517162
6.71,0.150712252276227,0.148694260816203
6.7275,0.156197182537192,0.136761725809019
6.745,0.160941165911845,0.1244637912509
6.7625,0.164890227376058,0.111817517868197
6.78,0.167987359141052,0.0988618304705089
6.7975,0.170180990728142,0.0856520072057611
6.815,0.171426624716419,0.0722535194074632
6.8325,0.171684531336257,0.0587399157984727
6.85,0.170918526388592,0.0451957585781874
6.8675,0.169099876150062,0.0317216546581466
6.885,0.166216987760963,0.0184362802254695
6.9025,0.162287599317684,0.00547103765663982
6.92,0.157367702357371,-0.00704378282101506
6.9375,0.151551648520196,-0.0189983021765646
6.955,0.144987345712666,-0.0302959587303855
6.9725,0.1377946021069,-0.0409692116877388
6.99,0.130059094037278,-0.051055673526922
7.0075,0.121819197460624,-0.0606111014876591
7.025,0.11306296865486,-0.0696815829756676
7.0425,0.103740225026322,-0.078277326083699
7.06,0.0937870039234219,-0.0863558298496834
7.0775,0.0831560067393321,-0.0938197321440555
7.095,0.0718447519475477,-0.100530671816919
7.1125,0.0599134954921339,-0.106336136375734
7.13,0.0474874277403505,-0.111102591970807
7.1475,0.0347416686187373,-0.114746131951721
7.165,0.0218722407566928,-0.117252046256477
7.1825,0.00906034150552115,-0.118677264875691
7.2,-0.0035603498973512,-0.119134129234934
7.2175,-0.0159238345596441,-0.118759319479205
7.235,-0.0280330986822095,-0.117676459986365
7.2525,-0.0399416695584132,-0.11596333264509
7.27,-0.0517206671603158,-0.11363367705151
7.2875,-0.063421380497452,-0.110639242173479
7.305,-0.0750450284704235,-0.106891321253551
7.3225,-0.0865290492553059,-0.102294629626917
7.34,-0.0977536648420853,-0.096782407481509
7.3575,-0.108565575284224,-0.0903415880619372
7.375,-0.118810032642435,-0.0830208159484326
7.3925,-0.128331350503509,-0.0749084785476223
7.41,-0.13707662709699,-0.0661732243086768
7.4275,-0.145030082009228,-0.0569422264282337
7.445,-0.152207283870204,-0.0473191892193081
7.4625,-0.158637749233868,-0.0373798736185478
7.48,-0.164351483341691,-0.027176417735514
7.4975,-0.169372332200568,-0.0167452322482065
7.515,-0.173716992192397,-0.00611351898818121
7.5325,-0.177395996325618,0.00469787903531449
7.55,-0.18041303977254,0.0156742028874137
7.5675,-0.182761326791079,0.0268057717314073
7.585,-0.184418762983226,0.0380830801822763
7.6025,-0.185345937386836,0.0494872282896889
7.62,-0.185490647775327,0.060978253705896
7.6375,-0.184800138804696,0.0724863783426339
7.655,-0.183238426464672,0.0839112829304868
7.6725,-0.180802941945161,0.0951319733438262
7.69,-0.177533885843332,0.10602560888586
7.7075,-0.173511746333038,0.116489686599682
7.725,-0.168842659528049,0.126460057899303
7.7425,-0.163635913106715,0.13591834591294
7.76,-0.157980940514911,0.144886048861833
7.7775,-0.151931337639775,0.153407414726305
7.795,-0.145500728731767,0.161527067369515
7.8125,-0.138670919970772,0.169269816349179
7.83,-0.131402571695024,0.176644493571931
7.8475,-0.123660209699767,0.183586298151105
7.865,-0.115441512346722,0.190024404947618
7.8825,-0.106773220257319,0.195881529960972
7.9,-0.0977088057079172,0.201087165501229
7.9175,-0.0883215312328164,0.205586490266463
7.935,-0.0786962442858091,0.20934451507926
7.9525,-0.0689221332585035,0.212346839980695
7.97,-0.0590869385241506,0.214598850239311
7.9875,-0.0492718391117356,0.216124366589842
8.005,-0.0395460860345984,0.216963440435493
8.0225,-0.0299613894662963,0.217168099379301
8.04,-0.0205489786317569,0.216799257532456
8.0575,-0.011309511814185,0.215909224219227
8.075,-0.00222688695097941,0.214524676683181
8.0925,0.00671777983866506,0.212650749109687
8.11,0.0155354477178111,0.210267010920408
8.1275,0.0242158185502547,0.207334080026594
8.145,0.0327186970221109,0.203806771498109
8.1625,0.0409731334465925,0.199650492674073
8.18,0.048885161724997,0.194856302345139
8.1975,0.0563523098340831,0.189450273922619
8.215,0.0632810052469723,0.183494448451769
8.2325,0.0696021998992329,0.177079124238962
8.25,0.0752811824851975,0.170308656572457
8.2675,0.080314318040022,0.163298810797793
8.285,0.084751271098786,0.156119871797277
8.3025,0.0886384830770252,0.14881785578153
8.32,0.0920192972446101,0.1414101542676
8.3375,0.0949218463937186,0.133892027693082
8.355,0.0973515288321348,0.126247276481357
8.3725,0.0992890476178204,0.118460587312512
8.39,0.100693895660087,0.110529107355829
8.4075,0.101512298772231,0.102471186303494
8.425,0.10168798842063,0.0943308194899597
8.4425,0.101173767475399,0.0861770759000089
8.46,0.0999417083967104,0.078098666167408
8.4775,0.0979900630794336,0.0701946989251222
8.495,0.0953455912338761,0.0625634089176666
8.5125,0.092060928717609,0.0552910169444646
8.53,0.0882075944898218,0.0484427847024402
8.5475,0.083866014418163,0.0420578029362136
8.565,0.0791143493702961,0.0361482949502779
8.5825,0.0740179507358908,0.0307034725130863
8.6,0.0686210751056182,0.0256974017946525
8.6175,0.0629422482267371,0.0210999089314484
8.635,0.0569744374729802,0.0168891335942463
8.6525,0.0506908437205316,0.0130637970026277
8.67,0.0440564095423071,0.00965264756410303
8.6875,0.0370438895452478,0.00671820238276585
8.705,0.0296264254386111,0.00436427747262579
8.7225,0.0218842813836694,0.00270748602019328
8.74,0.0139176313661035,0.00183564413473556
8.7575,0.00586049529555332,0.00180005329091299
8.775,-0.00213914283344118,0.00260137470765334
8.7925,-0.00994514965347011,0.00418708956291681
8.81,-0.017458047789514,0.00646293634830273
8.8275,-0.0246310756343873,0.00931642664343858
8.845,-0.0314716882432032,0.0126462097582345
8.8625,-0.0380270117452449,0.0163884146598905
8.88,-0.0443571019206567,0.0205314152854194
8.8975,-0.050504224346029,0.025113924309242
8.915,-0.0564680016945093,0.030206818593468
8.9325,-0.0621943967476565,0.0358846247586138
8.95,-0.0675817387673445,0.0421960316833354
8.9675,-0.0725011551727438,0.0491428263060563
8.985,-0.0768240804427091,0.0566733134561962
9.0025,-0.0804477197314628,0.0646909726479538
9.02,-0.0833109611099603,0.0730739609581979
9.0375,-0.08539736944003,0.0816980468933258
9.055,-0.0867267063241753,0.0904556104429286
9.0725,-0.0873399406061015,0.0992660758111817
9.09,-0.0872837230114052,0.108077082329521
9.1075,-0.0865987949388837,0.116859030765292
9.125,-0.0853138893234824,0.125597055456332
9.1425,-0.0834618343232455,0.134288987073745
9.16,-0.0810189125120088,0.142937909848644
9.1775,-0.0779652698061476,0.151530541481852
9.195,-0.0742707488325529,0.160042056908563
9.2125,-0.069899094613897,0.168430519773353
9.23,-0.0648156046630098,0.176632424534795
9.2475,-0.0589978315832708,0.184562005818501
9.265,-0.0524469024756223,0.192116438974019
9.2825,-0.0451957443491482,0.199187135252072
9.3,-0.0373107721174911,0.205674870303917
9.3175,-0.0288854296135704,0.211504616506399
9.335,-0.020026657334704,0.216635553850722
9.3525,-0.0108377995461963,0.221063022030561
9.37,-0.00140270206749893,0.224811635954573
9.3875,0.00822462138074268,0.227921462056042
9.405,0.0180221129533782,0.230431092089011
9.4225,0.0279933235345326,0.232362095257397
9.44,0.0381545327822613,0.233708665114497
9.4575,0.048518700976274,0.234434724945629
9.475,0.0590800698291599,0.234478895332244
9.4925,0.0698028370030206,0.233766038351271
9.51,0.0806163612172132,0.232222827520766
9.5275,0.0914180456851793,0.229794026024259
9.545,0.102083541549581,0.226455918588008
9.5625,0.112482341076216,0.222223715799711
9.58,0.122475614736888,0.217143742320694
9.5975,0.131989646742403,0.21132483060194
9.615,0.140982006053162,0.204860172084598
9.6325,0.149443293530473,0.197830343369944
9.65,0.157384825955037,0.190290485756966
9.6675,0.164822031007014,0.182265486753689
9.685,0.171758234404582,0.173754013459986
9.7025,0.178173155114211,0.164739672299496
9.72,0.18401872441887,0.155205670330375
9.7375,0.189222462695501,0.145148761012867
9.755,0.193696478500198,0.134589076369563
9.7725,0.197348950620576,0.12357422158165
9.79,0.200095008274784,0.112177941129601
9.8075,0.201864972745281,0.100494994779414
9.825,0.202609309865753,0.0886342211980727
9.8425,0.202300668499453,0.0767112541520821
9.86,0.200933655880778,0.0648415311431164
9.8775,0.198522622845603,0.0531337183297625
9.895,0.195097196375597,0.0416838181360346
9.9125,0.190695195413048,0.0305709056161217
9.93,0.185353226897559,0.0198561263115966
9.9475,0.179096523564383,0.00958663861341163
9.965,0.171930844753542,-0.000194781919404575
9.9825,0.163839748914303,-0.0094355951254786
10,0.154789738947336,-0.0180579626492527
