"Freq [GHz]","re(S(Tx_p1,Tx_p1)) []","im(S(Tx_p1,Tx_p1)) []"
1,0.08619009158,0.07254880671
1.01,0.09201194636,0.06505005276
1.02,0.09719145362,0.05711892415
1.03,0.1016978789,0.04880943946
1.04,0.105504958,0.04017772236
1.05,0.1085910326,0.03128163907
1.06,0.110939159,0.02218042768
1.07,0.1125371865,0.01293432197
1.08,0.1133778086,0.003604171175
1.09,0.1134585838,-0.005748941932
1.1,0.1127819287,-0.01506408282
1.11,0.1113550812,-0.02428084479
1.12,0.1091900354,-0.03333972432
1.13,0.1063034483,-0.04218249023
1.14,0.1027165178,-0.05075254439
1.15,0.09845483421,-0.0589952723
1.16,0.09354820395,-0.06685838112
1.17,0.08803044831,-0.07429222339
1.18,0.08193917665,-0.08125010433
1.19,0.07531553614,-0.08768857069
1.2,0.06820393903,-0.09356767941
1.21,0.06065176902,-0.09885124406
1.22,0.0527090684,-0.1035070574
1.23,0.0444282079,-0.1075070883
1.24,0.03586354115,-0.110827652
1.25,0.02707104609,-0.1134495511
1.26,0.01810795553,-0.1153581881
1.27,0.009032379501,-0.1165436463
1.28,-9.707814576E-05,-0.1170007402
1.29,-0.009221706084,-0.1167290331
1.3,-0.01828307211,-0.1157328241
1.31,-0.02722340711,-0.1140211011
1.32,-0.03598598371,-0.1116074637
1.33,-0.0445154866,-0.1085100135
1.34,-0.05275837196,-0.1047512148
1.35,-0.0606632133,-0.1003577258
1.36,-0.06818103114,-0.09536020164
1.37,-0.07526560409,-0.08979307097
1.38,-0.08187375927,-0.0836942887
1.39,-0.08796563996,-0.07710506569
1.4,-0.09350494881,-0.07006957852
1.41,-0.09845916492,-0.06263466141
1.42,-0.1027997338,-0.05484948281
1.43,-0.1065022292,-0.04676520925
1.44,-0.1095464854,-0.03843465908
1.45,-0.1119167011,-0.02991194864
1.46,-0.1136015132,-0.02125213355
1.47,-0.1145940411,-0.01251084757
1.48,-0.114891902,-0.003743941547
1.49,-0.114497198,0.004992875348
1.5,-0.1134164751,0.01364438976
1.51,-0.1116606546,0.02215623172
1.52,-0.10924494,0.03047521376
1.53,-0.1061886977,0.03854965987
1.54,-0.1025153145,0.04632972258
1.55,-0.09825203296,0.05376768711
1.56,-0.09342976526,0.06081826097
1.57,-0.08808288694,0.06743884816
1.58,-0.08224901217,0.07358980675
1.59,-0.07596875135,0.07923468898
1.6,-0.06928545219,0.08434046347
1.61,-0.06224492577,0.08887771741
1.62,-0.05489515828,0.09282083956
1.63,-0.04728600967,0.0961481823
1.64,-0.03946890047,0.09884220198
1.65,-0.03149648756,0.1008895771
1.66,-0.02342233043,0.1022813031
1.67,-0.01530054906,0.1030127628
1.68,-0.007185474311,0.1030837728
1.69,0.0008687069505,0.1024986021
1.7,0.008808311052,0.1012659657
1.71,0.01658051896,0.09939898906
1.72,0.02413373817,0.09691514481
1.73,0.0314179629,0.09383615942
1.74,0.0383851302,0.09018789026
1.75,0.04498946969,0.08600017215
1.76,0.05118784389,0.08130663309
1.77,0.05694007672,0.07614447945
1.78,0.06220926675,0.07055425061
1.79,0.06696208246,0.06457954392
1.8,0.07116903608,0.05826671082
1.81,0.07480473299,0.05166452542
1.82,0.0778480934,0.04482382751
1.83,0.0802825433,0.03779714197
1.84,0.08209617179,0.03063827724
1.85,0.08328185195,0.02340190598
1.86,0.08383732303,0.01614313113
1.87,0.08376523161,0.008917041282
1.88,0.08307313032,0.001778259462
1.89,0.08177343261,-0.005219510353
1.9,0.07988332308,-0.01202393431
1.91,0.07742462298,-0.01858449259
1.92,0.07442361137,-0.02485291127
1.93,0.0709108029,-0.03078357729
1.94,0.06692068369,-0.03633393167
1.95,0.06249140759,-0.04146483628
1.96,0.0576644555,-0.04614090984
1.97,0.05248426105,-0.05033082889
1.98,0.04699780642,-0.05400759005
1.99,0.04125419266,-0.05714873024
2,0.03530418909,-0.05973650217
2.01,0.02919976684,-0.06175800268
2.02,0.0229936218,-0.06320525264
2.03,0.01673869238,-0.06407522709
2.04,0.01048767768,-0.06436983569
2.05,0.00429256158,-0.06409585351
2.06,-0.001795851827,-0.06326480348
2.07,-0.007728386077,-0.06189279203
2.08,-0.01345791852,-0.06000030033
2.09,-0.01893978011,-0.05761193389
2.1,-0.02413212441,-0.05475613415
2.11,-0.02899626223,-0.05146485578
2.12,-0.03349695823,-0.04777321413
2.13,-0.0376026871,-0.04371910731
2.14,-0.04128584696,-0.03934281807
2.15,-0.04452292852,-0.03468660016
2.16,-0.04729463915,-0.02979425468
2.17,-0.04958598154,-0.02471070131
2.18,-0.05138628747,-0.01948154971
2.19,-0.05268920737,-0.01415267573
2.2,-0.05349265754,-0.008769807421
2.21,-0.05379872673,-0.003378124999
2.22,-0.05361354492,0.001978121073
2.23,-0.0529471168,0.007255970333
2.24,-0.05181312367,0.01241408765
2.25,-0.05022869681,0.01741307096
2.26,-0.04821416645,0.02221572918
2.27,-0.04579278986,0.02678732865
2.28,-0.04299046279,0.03109580666
2.29,-0.03983541795,0.03511195165
2.3,-0.03635791447,0.03880954964
2.31,-0.0325899222,0.04216549704
2.32,-0.02856480427,0.04515988069
2.33,-0.02431700129,0.04777602564
2.34,-0.01988172051,0.05000051254
2.35,-0.0152946325,0.05182316579
2.36,-0.0105915781,0.05323701439
2.37,-0.005808287869,0.0542382276
2.38,-0.0009801158395,0.05482602736
2.39,0.003858210627,0.05500257987
2.4,0.008672823695,0.05477286849
2.41,0.01343092952,0.05414455037
2.42,0.01810100361,0.05312779906
2.43,0.0226529665,0.05173513532
2.44,0.0270583396,0.04998124829
2.45,0.03129038101,0.04788280926
2.46,0.03532420149,0.04545827984
2.47,0.03913686091,0.0427277165
2.48,0.04270744548,0.03971257328
2.49,0.0460171264,0.03643550427
2.5,0.04904920058,0.03292016744
2.51,0.05178911403,0.02919103114
2.52,0.05422446894,0.02527318474
2.53,0.05634501506,0.02119215443
2.54,0.05814262652,0.01697372544
2.55,0.05961126495,0.01264377156
2.56,0.06074692989,0.008228092903
2.57,0.06154759762,0.003752262763
2.58,0.06201314942,-0.0007585158262
2.59,0.06214529046,-0.005279543095
2.6,0.06194746034,-0.009786744654
2.61,0.06142473656,-0.01425678226
2.62,0.06058373212,-0.01866715294
2.63,0.05943248838,-0.02299627617
2.64,0.05798036443,-0.02722356911
2.65,0.05623792429,-0.03132950981
2.66,0.054216823,-0.03529568851
2.67,0.05192969288,-0.03910484731
2.68,0.04939003117,-0.04274090853
2.69,0.04661209007,-0.04618899223
2.7,0.04361077032,-0.04943542349
2.71,0.0404015193,-0.05246773026
2.72,0.03700023447,-0.05527463235
2.73,0.03342317313,-0.05784602276
2.74,0.02968686895,-0.06017294218
2.75,0.02580805601,-0.06224754778
2.76,0.02180360071,-0.06406307746
2.77,0.01769044173,-0.06561381071
2.78,0.01348553827,-0.06689502734
2.79,0.009205826401,-0.06790296515
2.8,0.004868183451,-0.06863477796
2.81,0.0004893998472,-0.06908849491
2.82,-0.003913841923,-0.06926298224
2.83,-0.008324982043,-0.06915790856
2.84,-0.01272759255,-0.06877371445
2.85,-0.01710538191,-0.06811158716
2.86,-0.0214421961,-0.06717344107
2.87,-0.02572201719,-0.06596190438
2.88,-0.02992896075,-0.06448031236
2.89,-0.03404727328,-0.06273270719
2.9,-0.03806133089,-0.06072384444
2.91,-0.0419556405,-0.05845920598
2.92,-0.04571484477,-0.0559450188
2.93,-0.04932373199,-0.05318827915
2.94,-0.05276725185,-0.0501967814
2.95,-0.05603053831,-0.04697915039
2.96,-0.0590989402,-0.04354487649
2.97,-0.06195806037,-0.03990435192
2.98,-0.06459380398,-0.03606890709
2.99,-0.06699243618,-0.03205084553
3,-0.06914064945,-0.02786347584
3.01,-0.07102564051,-0.02352113916
3.02,-0.07263519658,-0.01903923047
3.03,-0.07395779044,-0.01443421226
3.04,-0.07498268373,-0.009723618921
3.05,-0.07570003736,-0.004926050334
3.06,-0.07610102807,-6.115337316E-05
3.07,-0.07617796963,0.004850410096
3.08,-0.07592443714,0.009787009784
3.09,-0.07533539273,0.01472610908
3.1,-0.07440731059,0.01964434344
3.11,-0.07313829939,0.02451761557
3.12,-0.07152821981,0.02932120758
3.13,-0.0695787949,0.03402991024
3.14,-0.06729371093,0.03861816875
3.15,-0.06467870647,0.04306024465
3.16,-0.06174164721,0.04733039265
3.17,-0.05849258447,0.05140305123
3.18,-0.05494379511,0.05525304541
3.19,-0.05110980101,0.05885579956
3.2,-0.04700736631,0.06218755836
3.21,-0.04265547083,0.06522561303
3.22,-0.03807525867,0.06794853044
3.23,-0.03328996098,0.07033638191
3.24,-0.02832479233,0.07237096872
3.25,-0.0232068208,0.07403604101
3.26,-0.01796481188,0.07531750691
3.27,-0.01262904706,0.07620362845
3.28,-0.007231118203,0.07668520113
3.29,-0.001803699369,0.07675571392
3.3,0.003619701874,0.07641148679
3.31,0.009005011249,0.07565178303
3.32,0.01431786982,0.07447889387
3.33,0.01952392813,0.0728981934
3.34,0.02458914902,0.07091816198
3.35,0.02948011543,0.068550377
3.36,0.03416433917,0.06580947008
3.37,0.03861056696,0.06271305049
3.38,0.0427890794,0.05928159497
3.39,0.04667197905,0.05553830469
3.4,0.05023346359,0.05150893069
3.41,0.05345008041,0.04722156939
3.42,0.05630095899,0.04270643061
3.43,0.05876801791,0.03799558056
3.44,0.06083614373,0.03312266317
3.45,0.06249333901,0.0281226029
3.46,0.06373083783,0.02303129294
3.47,0.06454318705,0.01788527271
3.48,0.06492829238,0.01272139877
3.49,0.06488742898,0.00757651324
3.5,0.06442521645,0.00248711405
3.51,0.06354955898,-0.002510968922
3.52,0.06227155176,-0.007382887847
3.53,0.06060535528,-0.01209507728
3.54,0.05856803962,-0.01661553729
3.55,0.05617940123,-0.02091409632
3.56,0.05346175489,-0.02496265077
3.57,0.05043970429,-0.02873537919
3.58,0.04713989424,-0.03220892881
3.59,0.04359074835,-0.03536257325
3.6,0.03982219559,-0.03817834026
3.61,0.03586538949,-0.04064110886
3.62,0.03175242366,-0.04273867619
3.63,0.02751604694,-0.04446179405
3.64,0.02318938181,-0.04580417634
3.65,0.01880564905,-0.04676247838
3.66,0.01439790158,-0.04733624981
3.67,0.00999877005,-0.04752786294
3.68,0.005640222589,-0.04734241869
3.69,0.001353340439,-0.04678763241
3.7,-0.002831888836,-0.04587370218
3.71,-0.006886759428,-0.04461316201
3.72,-0.01078401585,-0.04302072274
3.73,-0.0144980015,-0.04111310305
3.74,-0.01800478717,-0.03890885324
3.75,-0.02128227968,-0.03642817415
3.76,-0.0243103111,-0.03369273349
3.77,-0.02707070942,-0.03072548161
3.78,-0.02954735154,-0.02755046875
3.79,-0.03172619981,-0.02419266518
3.8,-0.03359532336,-0.02067778576
3.81,-0.03514490559,-0.01703212009
3.82,-0.03636723936,-0.01328236895
3.83,-0.03725671115,-0.009455487912
3.84,-0.03780977575,-0.005578538296
3.85,-0.03802492277,-0.001678545796
3.86,-0.03790263622,0.002217633303
3.87,-0.03744534834,0.006083438494
3.88,-0.03665738873,0.009892724321
3.89,-0.03554492946,0.01361987301
3.9,-0.03411592716,0.017239901
3.91,-0.03238006233,0.02072855984
3.92,-0.03034867642,0.02406243227
3.93,-0.02803470693,0.02721902377
3.94,-0.02545262043,0.03017685038
3.95,-0.02261834374,0.03291552319
3.96,-0.01954919278,0.03541582985
3.97,-0.01626379914,0.03765981355
3.98,-0.01278203393,0.03963084962
3.99,-0.009124928441,0.04131371991
4,-0.005314591445,0.04269468484
4.01,-0.001374122559,0.04376155324
4.02,0.002672478647,0.04450374953
4.03,0.006800408143,0.044912378
4.04,0.01098415787,0.04498028385
4.05,0.01519762131,0.04470211043
4.06,0.01941420446,0.04407435203
4.07,0.02360694217,0.04309540182
4.08,0.02774861991,0.041765594
4.09,0.03181190095,0.04008723967
4.1,0.03576945864,0.0380646556
4.11,0.03959411358,0.03570418515
4.12,0.04325897524,0.03301421076
4.13,0.04673758769,0.03000515709
4.14,0.05000407872,0.0266894844
4.15,0.05303331176,0.02308167124
4.16,0.05580103992,0.01919818615
4.17,0.05828406128,0.01505744759
4.18,0.06046037446,0.01067977178
4.19,0.0623093337,0.006087307939
4.2,0.06381180223,0.001303960699
4.21,0.06495030298,-0.003644700691
4.22,0.06570916531,-0.008731546422
4.23,0.06607466676,-0.01392800356
4.24,0.06603516845,-0.01920418681
4.25,0.06558124276,-0.02452904242
4.26,0.06470579224,-0.02987050499
4.27,0.06340415812,-0.03519566677
4.28,0.06167421724,-0.04047095883
4.29,0.05951646605,-0.04566234354
4.3,0.05693409034,-0.05073551731
4.31,0.05393301939,-0.0556561229
4.32,0.05052196341,-0.06038996976
4.33,0.04671243304,-0.06490326138
4.34,0.0425187399,-0.06916282811
4.35,0.03795797733,-0.07313636369
4.36,0.03304998042,-0.07679266395
4.37,0.02781726479,-0.08010186556
4.38,0.02228494369,-0.08303568306
4.39,0.01648062315,-0.08556764191
4.4,0.01043427522,-0.08767330544
4.41,0.004178089439,-0.08933049354
4.42,-0.002253696912,-0.09051949085
4.43,-0.008824989147,-0.09122324216
4.44,-0.01549804509,-0.09142753298
4.45,-0.02223370339,-0.09112115313
4.46,-0.02899162875,-0.09029604134
4.47,-0.0357305725,-0.08894740902
4.48,-0.04240864644,-0.08707384161
4.49,-0.0489836081,-0.08467737591
4.5,-0.05541315493,-0.08176355211
4.51,-0.06165522524,-0.07834143961
4.52,-0.06766830316,-0.07442363572
4.53,-0.07341172525,-0.07002623681
4.54,-0.0788459859,-0.06516878151
4.55,-0.08393303895,-0.05987416625
4.56,-0.08863659287,-0.05416853317
4.57,-0.09292239681,-0.04808113116
4.58,-0.09675851507,-0.04164415077
4.59,-0.1001155874,-0.03489253419
4.6,-0.1029670727,-0.02786376146
4.61,-0.1052894746,-0.02059761463
4.62,-0.1070625458,-0.01313592154
4.63,-0.10826947,-0.005522281134
4.64,-0.1088970202,0.002198227546
4.65,-0.1089356907,0.009979350487
4.66,-0.1083798027,0.01777397561
4.67,-0.1072275821,0.025534459
4.68,-0.1054812082,0.03321295794
4.69,-0.1031468344,0.04076176822
4.7,-0.1002345782,0.04813366312
4.71,-0.09675848265,0.05528223144
4.72,-0.09273644787,0.06216221202
4.73,-0.088190134,0.06872982219
4.74,-0.08314483557,0.07494307762
4.75,-0.0776293284,0.08076210117
4.76,-0.07167568989,0.08614941825
4.77,-0.06531909403,0.09107023665
4.78,-0.05859758238,0.09549270837
4.79,-0.05155181277,0.09938817176
4.8,-0.04422478727,0.1027313718
4.81,-0.03666156147,0.1055006567
4.82,-0.02890893705,0.1076781501
4.83,-0.02101513974,0.1092498954
4.84,-0.01302948511,0.1102059743
4.85,-0.005002034387,0.1105405944
4.86,0.003016757028,0.1102521491
4.87,0.01097639602,0.1093432459
4.88,0.0188267104,0.1078207049
4.89,0.02651820724,0.105695526
4.9,0.03400242811,0.1029828254
4.91,0.04123229868,0.09970174144
4.92,0.04816247001,0.09587531071
4.93,0.05474964883,0.09153031417
4.94,0.06095291437,0.08669709537
4.95,0.06673401927,0.08140935108
4.96,0.07205767203,0.07570389608
4.97,0.07689179892,0.06962040368
4.98,0.08120778311,0.06320112359
4.99,0.08498067903,0.05649057929
5,0.08818940019,0.04953524705
5.01,0.09081687881,0.04238321879
5.02,0.09285019582,0.03508385141
5.03,0.09428068003,0.02768740514
5.04,0.09510397549,0.02024467359
5.05,0.09532007637,0.01280660842
5.06,0.0949333287,0.005423941396
5.07,0.09395239892,-0.001853193107
5.08,0.09239020923,-0.008975632334
5.09,0.09026383992,-0.01589555301
5.1,0.08759439945,-0.02256682996
5.11,0.08440686292,-0.02894538265
5.12,0.08072988019,-0.03498950663
5.13,0.07659555484,-0.04066018745
5.14,0.07203919576,-0.04592139412
5.15,0.06709904307,-0.05074034991
5.16,0.06181597044,-0.05508777798
5.17,0.05623316625,-0.05893811993
5.18,0.05039579588,-0.06226972512
5.19,0.04435064788,-0.06506500932
5.2,0.03814576692,-0.067310581
5.21,0.03183007626,-0.06899733432
5.22,0.02545299309,-0.07012050768
5.23,0.01906403969,-0.07067970739
5.24,0.01271245371,-0.07067889597
5.25,0.006446800836,-0.07012634517
5.26,0.0003145931839,-0.06903455394
5.27,-0.005638083512,-0.06742013188
5.28,-0.01136693054,-0.06530364918
5.29,-0.01682978164,-0.06270945417
5.3,-0.02198693027,-0.05966546003
5.31,-0.02680143575,-0.05620290236
5.32,-0.03123940569,-0.05235606987
5.33,-0.03527025216,-0.04816201027
5.34,-0.0388669194,-0.04366021419
5.35,-0.04200608106,-0.0388922797
5.36,-0.04466830522,-0.03390156057
5.37,-0.04683818583,-0.0287328014
5.38,-0.0485044394,-0.02343176279
5.39,-0.04965996623,-0.0180448401
5.4,-0.0503018758,-0.01261867921
5.41,-0.05043147606,-0.007199792659
5.42,-0.05005422716,-0.00183417979
5.43,-0.04917966005,0.003433045729
5.44,-0.04782126105,0.008558017677
5.45,-0.04599632367,0.0134984651
5.46,-0.04372576929,0.01821404308
5.47,-0.04103393878,0.02266664367
5.48,-0.03794835709,0.02682068424
5.49,-0.0344994735,0.03064337093
5.5,-0.03072038006,0.03410493504
5.51,-0.02664651124,0.03717884064
5.52,-0.02231532772,0.03984196186
5.53,-0.0177659876,0.04207472872
5.54,-0.01303900813,0.04386124075
5.55,-0.008175921319,0.04518934792
5.56,-0.003218926589,0.0460506988
5.57,0.00178945625,0.04644075618
5.58,0.006806730641,0.04635878069
5.59,0.01179076052,0.04580778339
5.6,0.01670009833,0.04479444831
5.61,0.02149430111,0.04332902657
5.62,0.02613423226,0.04142520359
5.63,0.03058234674,0.03909994131
5.64,0.03480295764,0.03637329746
5.65,0.03876248261,0.03326822404
5.66,0.04242966833,0.0298103473
5.67,0.04577579222,0.02602773161
5.68,0.04877484008,0.02195062953
5.69,0.05140365922,0.01761122062
5.7,0.05364208647,0.0130433413
5.71,0.05547305096,0.008282208244
5.72,0.05688265161,0.003364137405
5.73,0.0578602095,-0.001673738799
5.74,0.05839829555,-0.006793754238
5.75,0.0584927341,-0.01195798958
5.76,0.05814258292,-0.0171285487
5.77,0.05735009064,-0.02226782907
5.78,0.05612063244,-0.02733878455
5.79,0.05446262504,-0.03230517894
5.8,0.05238742211,-0.03713182877
5.81,0.04990919131,-0.04178483411
5.82,0.04704477418,-0.04623179609
5.83,0.04381353016,-0.05044201999
5.84,0.04023716612,-0.05438670298
5.85,0.0363395528,-0.05803910546
5.86,0.03214652956,-0.06137470535
5.87,0.02768569892,-0.0643713345
5.88,0.02298621236,-0.06700929668
5.89,0.01807854896,-0.06927146661
5.9,0.01299428843,-0.07114336964
5.91,0.00776588009,-0.07261324179
5.92,0.002426409409,-0.07367206999
5.93,-0.002990636182,-0.07431361236
5.94,-0.008451600641,-0.07453439873
5.95,-0.01392289013,-0.07433371145
5.96,-0.01937119963,-0.07371354698
5.97,-0.02476373377,-0.07267855848
5.98,-0.03006842013,-0.07123598032
5.99,-0.03525411361,-0.06939553505
6,-0.04029079022,-0.06716932377
