"Freq [GHz]","re(S(Tx_p1,Tx_p1)) []","im(S(Tx_p1,Tx_p1)) []"
1,0.05196819042,0.04828859388
1.01,0.056038546,0.04373773553
1.02,0.05971087627,0.0388660421
1.03,0.06295997986,0.03370694024
1.04,0.06576336398,0.0282959952
1.05,0.06810145571,0.02267069324
1.06,0.06995779453,0.01687019892
1.07,0.07131920285,0.01093508968
1.08,0.07217593132,0.004907069853
1.09,0.07252177641,-0.001171332692
1.1,0.07235416788,-0.00725708413
1.11,0.07167422447,-0.01330697287
1.12,0.07048677648,-0.01927794471
1.13,0.06880035474,-0.0251274408
1.14,0.0666271454,-0.03081373504
1.15,0.06398291109,-0.03629626654
1.16,0.06088687924,-0.04153596374
1.17,0.0573615985,-0.04649555663
1.18,0.05343276517,-0.05113987353
1.19,0.04912902141,-0.05543611962
1.2,0.04448172757,-0.05935413437
1.21,0.03952471101,-0.06286662535
1.22,0.03429399436,-0.06594937648
1.23,0.02882750573,-0.06858142885
1.24,0.02316477423,-0.0707452327
1.25,0.01734661348,-0.07242676949
1.26,0.01141479636,-0.07361564334
1.27,0.005411724059,-0.07430514126
1.28,-0.0006199075606,-0.07449226215
1.29,-0.006637441336,-0.07417771456
1.3,-0.01259858885,-0.07336588369
1.31,-0.0184617544,-0.07206476828
1.32,-0.02418635002,-0.07028588818
1.33,-0.02973309902,-0.06804416387
1.34,-0.03506432535,-0.06535776922
1.35,-0.04014422656,-0.06224795903
1.36,-0.0449391279,-0.0587388733
1.37,-0.0494177157,-0.05485732012
1.38,-0.05355124807,-0.05063253942
1.39,-0.05731374118,-0.04609595002
1.4,-0.06068212993,-0.04128088247
1.41,-0.06363640167,-0.03622230056
1.42,-0.06615970223,-0.03095651405
1.43,-0.06823841381,-0.02552088581
1.44,-0.06986220431,-0.01995353624
1.45,-0.07102404859,-0.01429304788
1.46,-0.0717202218,-0.008578173203
1.47,-0.07195026603,-0.002847548447
1.48,-0.07171693103,0.002860583809
1.49,-0.07102609095,0.008508640856
1.5,-0.0698866387,0.01405995256
1.51,-0.06831035992,0.01947899854
1.52,-0.06631178909,0.02473162815
1.53,-0.06390804998,0.02978526205
1.54,-0.06111868317,0.03460907422
1.55,-0.05796546305,0.0391741541
1.56,-0.05447220709,0.04345364848
1.57,-0.0506645795,0.04742288348
1.58,-0.046569892,0.05105946711
1.59,-0.04221690342,0.05434337325
1.6,-0.03763562021,0.05725700823
1.61,-0.03285709929,0.05978526136
1.62,-0.02791325442,0.06191554077
1.63,-0.02283666704,0.06363779625
1.64,-0.01766040197,0.06494453058
1.65,-0.01241782814,0.06583080084
1.66,-0.007142444272,0.0662942111
1.67,-0.001867709014,0.06633489761
1.68,0.003373125129,0.06595550734
1.69,0.008547174864,0.06516117072
1.7,0.01362208709,0.06395946852
1.71,0.01856619876,0.06236039316
1.72,0.02334869639,0.06037630389
1.73,0.02793977611,0.05802187521
1.74,0.03231080467,0.05531403755
1.75,0.03643448164,0.05227190905
1.76,0.04028500284,0.04891671689
1.77,0.04383822452,0.04527170696
1.78,0.04707182737,0.04136204014
1.79,0.04996547926,0.03721467375
1.8,0.05250099506,0.03285822709
1.81,0.0546624914,0.02832282971
1.82,0.0564365342,0.02363995192
1.83,0.05781227635,0.01884221702
1.84,0.05878158257,0.01396319547
1.85,0.05933913878,0.009037181454
1.86,0.05948254286,0.004098953035
1.87,0.05921237398,-0.0008164824191
1.88,0.05853223794,-0.005674155477
1.89,0.05744878591,-0.01043941178
1.9,0.05597170471,-0.01507819602
1.91,0.05411367706,-0.01955733913
1.92,0.05189031056,-0.02384484508
1.93,0.04932003526,-0.02791017293
1.94,0.04642396968,-0.03172451028
1.95,0.04322575629,-0.03526103381
1.96,0.03975136783,-0.03849515278
1.97,0.03602888653,-0.04140473188
1.98,0.03208825893,-0.04397028969
1.99,0.02796102943,-0.04617516973
2,0.02368005622,-0.04800568158
2.01,0.01927921352,-0.04945120984
2.02,0.01479308437,-0.05050428975
2.03,0.01025664833,-0.05116064845
2.04,0.005704968519,-0.051419212
2.05,0.001172882171,-0.05128207848
2.06,-0.003305300954,-0.05075445845
2.07,-0.007696088621,-0.04984458447
2.08,-0.0119670811,-0.04856359184
2.09,-0.01608722796,-0.04692537325
2.1,-0.02002706426,-0.04494641036
2.11,-0.02375892402,-0.04264558541
2.12,-0.02725712941,-0.04004397631
2.13,-0.030498155,-0.0371646387
2.14,-0.03346076627,-0.03403237812
2.15,-0.03612613282,-0.03067351579
2.16,-0.03847791654,-0.02711565076
2.17,-0.04050233578,-0.02338742144
2.18,-0.04218820654,-0.01951826869
2.19,-0.04352696236,-0.0155382028
2.2,-0.04451265418,-0.01147757588
2.21,-0.04514193202,-0.007366861194
2.22,-0.04541401008,-0.003236440406
2.23,-0.0453306167,0.000883600583
2.24,-0.0448959309,0.004963666653
2.25,-0.04411650656,0.008974839163
2.26,-0.04300118547,0.01288905221
2.27,-0.04156100029,0.01667925948
2.28,-0.03980906784,0.02031959167
2.29,-0.03776047371,0.0237855047
2.3,-0.03543214809,0.02705391826
2.31,-0.03284273386,0.0301033455
2.32,-0.03001244585,0.03291401187
2.33,-0.02696292317,0.03546796478
2.34,-0.02371707342,0.03774917201
2.35,-0.02029890985,0.03974360869
2.36,-0.01673338162,0.04143933206
2.37,-0.01304619789,0.042826543
2.38,-0.009263646526,0.04389763342
2.39,-0.005412408422,0.04464721856
2.4,-0.00151936878,0.04507215339
2.41,0.002388573229,0.04517153231
2.42,0.006284694688,0.04494667163
2.43,0.01014263719,0.04440107448
2.44,0.01393659113,0.04354037809
2.45,0.01764147395,0.04237228379
2.46,0.02123310027,0.04090647015
2.47,0.02468834184,0.03915449033
2.48,0.02798527543,0.03712965484
2.49,0.03110331692,0.03484690134
2.5,0.03402334004,0.03232265317
2.51,0.03672777869,0.02957466895
2.52,0.03920071189,0.02662188533
2.53,0.04142793091,0.02348425529
2.54,0.04339698863,0.0201825845
2.55,0.04509723121,0.01673836795
2.56,0.04651981305,0.01317362932
2.57,0.04765769594,0.009510764986
2.58,0.04850563373,0.005772394557
2.59,0.04906014442,0.001981219505
2.6,0.04931947115,-0.001840108985
2.61,0.04928353434,-0.005669112122
2.62,0.04895387688,-0.00948359517
2.63,0.04833360423,-0.01326174864
2.64,0.04742732152,-0.01698223933
2.65,0.0462410691,-0.02062429201
2.66,0.04478225814,-0.02416776249
2.67,0.04305960737,-0.02759320359
2.68,0.04108308173,-0.03088192507
2.69,0.03886383339,-0.03401604922
2.7,0.03641414538,-0.03697856334
2.71,0.03374737731,-0.03975337071
2.72,0.03087791283,-0.04232534111
2.73,0.02782110777,-0.04468036207
2.74,0.02459323807,-0.04680539148
2.75,0.02121144594,-0.04868851212
2.76,0.01769368315,-0.05031898815
2.77,0.01405864987,-0.05168732336
2.78,0.010325728,-0.05278532051
2.79,0.006514907144,-0.0536061409
2.8,0.002646703251,-0.05414436291
2.81,-0.001257931673,-0.05439603798
2.82,-0.00517770879,-0.05435874242
2.83,-0.009091110663,-0.05403162318
2.84,-0.0129765082,-0.05341543582
2.85,-0.01681228559,-0.05251257283
2.86,-0.02057697201,-0.05132708079
2.87,-0.02424937914,-0.04986466365
2.88,-0.02780874167,-0.04813267413
2.89,-0.0312348602,-0.04614008799
2.9,-0.03450824335,-0.04389746374
2.91,-0.03761024716,-0.04141688665
2.92,-0.0405232095,-0.03871189714
2.93,-0.04323057713,-0.03579740457
2.94,-0.04571702346,-0.03268958724
2.95,-0.047968555,-0.02940578015
2.96,-0.04997260496,-0.02596435224
2.97,-0.05171811267,-0.02238457504
2.98,-0.05319558794,-0.01868648489
2.99,-0.05439715992,-0.014890741
3,-0.05531661022,-0.01101848174
3.01,-0.05594939073,-0.007091181082
3.02,-0.05629262679,-0.003130507639
3.03,-0.05634510666,0.0008418121111
3.04,-0.05610725877,0.004804124667
3.05,-0.05558111804,0.008734973167
3.06,-0.05477028326,0.01261321294
3.07,-0.05367986702,0.01641811835
3.08,-0.05231644017,0.02012948082
3.09,-0.05068797229,0.02372769805
3.1,-0.04880376998,0.0271938551
3.11,-0.04667441401,0.03050979795
3.12,-0.04431169653,0.03365820071
3.13,-0.04172855917,0.03662262743
3.14,-0.03893903223,0.03938759005
3.15,-0.03595817523,0.04193860348
3.16,-0.03280201851,0.04426223922
3.17,-0.02948750526,0.04634617851
3.18,-0.0260324332,0.048179266
3.19,-0.0224553949,0.04975156438
3.2,-0.01877571532,0.05105441048
3.21,-0.01501338552,0.05208047279
3.22,-0.01118899103,0.05282381002
3.23,-0.007323633628,0.05327993002
3.24,-0.003438845447,0.05344584809
3.25,0.0004435055429,0.05332014334
3.26,0.0043013194,0.05290301149
3.27,0.008112377729,0.05219631248
3.28,0.01185446687,0.05120361085
3.29,0.01550551041,0.04993020711
3.3,0.0190437102,0.04838315801
3.31,0.0224476948,0.04657128415
3.32,0.02569667385,0.04450516299
3.33,0.02877059652,0.04219710617
3.34,0.03165031195,0.03966111979
3.35,0.0343177295,0.03691284711
3.36,0.03675597625,0.03396949318
3.37,0.03894954931,0.03084973156
3.38,0.04088446048,0.02757359343
3.39,0.04254837085,0.02416234019
3.4,0.04393071306,0.02063832052
3.41,0.04502279929,0.01702481366
3.42,0.04581791316,0.01334586075
3.43,0.04631138409,0.009626086235
3.44,0.04650064316,0.005890511693
3.45,0.04638525967,0.002164364433
3.46,0.04596695808,-0.001527116749
3.47,0.04524961534,-0.005158876278
3.48,0.04423923902,-0.008706234692
3.49,0.04294392682,-0.0121450776
3.5,0.04137380849,-0.01545203874
3.51,0.03954097114,-0.01860467549
3.52,0.03745936941,-0.02158163527
3.53,0.03514472178,-0.02436281172
3.54,0.0326143945,-0.02692948962
3.55,0.02988727458,-0.02926447792
3.56,0.02698363328,-0.03135223029
3.57,0.0239249814,-0.033178953
3.58,0.0207339176,-0.03473269981
3.59,0.01743397087,-0.03600345404
3.6,0.01404943816,-0.03698319761
3.61,0.01060521789,-0.03766596728
3.62,0.007126640343,-0.0380478981
3.63,0.003639295365,-0.03812725397
3.64,0.0001688581468,-0.03790444547
3.65,-0.003259086377,-0.03738203464
3.66,-0.006619219888,-0.03656472669
3.67,-0.009886667127,-0.03545934828
3.68,-0.01303717171,-0.03407481205
3.69,-0.01604727042,-0.03242206724
3.7,-0.018894465,-0.0305140358
3.71,-0.02155739026,-0.02836553397
3.72,-0.02401597736,-0.02599317893
3.73,-0.02625161061,-0.02341528057
3.74,-0.02824727644,-0.02065171847
3.75,-0.02998770268,-0.01772380429
3.76,-0.03145948664,-0.01465413025
3.77,-0.0326512101,-0.01146640446
3.78,-0.03355353978,-0.008185274258
3.79,-0.03415931027,-0.004836138326
3.8,-0.03446359147,-0.001444950922
3.81,-0.03446373455,0.001961982209
3.82,-0.03415939899,0.005358212295
3.83,-0.03355255846,0.008717358789
3.84,-0.03264748538,0.01201332083
3.85,-0.03145071427,0.01522048641
3.86,-0.029970984,0.01831393659
3.87,-0.02821915979,0.02126964249
3.88,-0.02620813602,0.0240646524
3.89,-0.02395272114,0.02667726709
3.9,-0.02146950657,0.02908720112
3.91,-0.01877672143,0.03127572872
3.92,-0.01589407526,0.03322581269
3.93,-0.01284259121,0.03492221553
3.94,-0.009644431834,0.03635159204
3.95,-0.006322720122,0.03750256331
3.96,-0.002901357926,0.03836577214
3.97,0.0005951559517,0.03893392037
3.98,0.004141905985,0.03920178899
3.99,0.00771373672,0.03916624202
4,0.01128542459,0.03882621538
4.01,0.01483184357,0.03818269222
4.02,0.01832812369,0.03723866611
4.03,0.02174980196,0.03599909364
4.04,0.02507296511,0.03447083785
4.05,0.0282743845,0.03266260377
4.06,0.03133164296,0.03058486737
4.07,0.03422325426,0.02824979889
4.08,0.0369287755,0.02567118118
4.09,0.03942891312,0.02286432385
4.1,0.04170562296,0.01984597335
4.11,0.04374220504,0.01663421901
4.12,0.04552339343,0.01324839519
4.13,0.04703544149,0.009708978859
4.14,0.04826620254,0.006037482542
4.15,0.04920520593,0.002256341826
4.16,0.04984372812,-0.001611202887
4.17,0.0501748581,-0.005541230976
4.18,0.05019355656,-0.009509272902
4.19,0.04989670754,-0.01349044845
4.2,0.04928316156,-0.01745961196
4.21,0.04835376893,-0.02139150436
4.22,0.04711140179,-0.02526091143
4.23,0.04556096355,-0.0290428277
4.24,0.04370938442,-0.03271262468
4.25,0.04156560187,-0.03624622232
4.26,0.03914052485,-0.03962026177
4.27,0.03644698116,-0.04281227785
4.28,0.03349964739,-0.04580086897
4.29,0.03031496119,-0.04856586225
4.3,0.02691101619,-0.05108847181
4.31,0.02330744007,-0.05335144753
4.32,0.01952525662,-0.05533921242
4.33,0.0155867333,-0.05703798609
4.34,0.01151521569,-0.05843589274
4.35,0.007334950999,-0.05952305169
4.36,0.003070902709,-0.06029164928
4.37,-0.001251441189,-0.06073599088
4.38,-0.005606263833,-0.06085253265
4.39,-0.009967616379,-0.0606398925
4.4,-0.01430961353,-0.06009884053
4.41,-0.01860662514,-0.05923226951
4.42,-0.02283346154,-0.05804514622
4.43,-0.02696555032,-0.05654444493
4.44,-0.03097910261,-0.05473906461
4.45,-0.03485126725,-0.05263973155
4.46,-0.03856027143,-0.05025888938
4.47,-0.0420855469,-0.04761057871
4.48,-0.04540784102,-0.04471030831
4.49,-0.04850931239,-0.04157492009
4.5,-0.05137361112,-0.03822245003
4.51,-0.05398594403,-0.03467198675
4.52,-0.05633312544,-0.0309435298
4.53,-0.05840361432,-0.02705784906
4.54,-0.06018753886,-0.02303634658
4.55,-0.06167670955,-0.01890092211
4.56,-0.06286462199,-0.01467384299
4.57,-0.06374645061,-0.01037761906
4.58,-0.06431903456,-0.006034882939
4.59,-0.06458085679,-0.001668275791
4.6,-0.06453201742,0.002699661488
4.61,-0.06417420222,0.007046591855
4.62,-0.06351064694,0.0113504808
4.63,-0.06254609813,0.01558969053
4.64,-0.06128677069,0.01974307006
4.65,-0.05974030254,0.02379004164
4.66,-0.05791570647,0.02771068394
4.67,-0.05582331916,0.03148581229
4.68,-0.05347474716,0.03509705616
4.69,-0.05088280987,0.03852693415
4.7,-0.04806147903,0.0417589264
4.71,-0.04502581475,0.04477754434
4.72,-0.04179189765,0.04756839769
4.73,-0.03837675715,0.05011825835
4.74,-0.03479829564,0.05241512083
4.75,-0.03107520861,0.05444825885
4.76,-0.02722690079,0.05620827771
4.77,-0.02327339846,0.05768716187
4.78,-0.01923525812,0.05887831741
4.79,-0.01513347192,0.05977660897
4.8,-0.01098937023,0.06037839079
4.81,-0.006824521736,0.06068153164
4.82,-0.002660631531,0.06068543337
4.83,0.001480562219,0.060391043
4.84,0.005577392722,0.05980085833
4.85,0.009608369575,0.05891892702
4.86,0.01355228402,0.05775083925
4.87,0.01738831408,0.05630371406
4.88,0.02109612934,0.05458617948
4.89,0.02465599514,0.05260834652
4.9,0.02804887607,0.05038177714
4.91,0.03125653865,0.04791944621
4.92,0.03426165316,0.04523569739
4.93,0.03704789454,0.04234619283
4.94,0.03960004232,0.03926785646
4.95,0.04190407941,0.03601881052
4.96,0.04394728969,0.03261830504
4.97,0.04571835393,0.02908663963
4.98,0.04720744379,0.02544507722
4.99,0.04840631319,0.02171574909
5,0.04930838644,0.01792155064
5.01,0.04990884199,0.01408602747
5.02,0.050204691,0.01023325126
5.03,0.05019484907,0.006387685192
5.04,0.04988019997,0.002574038811
5.05,0.04926364956,-0.001182887644
5.06,0.0483501683,-0.004858369025
5.07,0.04714682053,-0.008427930596
5.08,0.04566277869,-0.01186753194
5.09,0.04390932073,-0.01515375816
5.1,0.04189980912,-0.01826401685
5.11,0.03964964984,-0.02117673882
5.12,0.03717623005,-0.02387158039
5.13,0.03449883361,-0.02632962471
5.14,0.03163853359,-0.02853357944
5.15,0.02861806153,-0.0304679677
5.16,0.02546165364,-0.03211930926
5.17,0.02219487456,-0.03347628895
5.18,0.01884441958,-0.03452990895
5.19,0.01543789712,-0.0352736221
5.2,0.01200359323,-0.0357034433
5.21,0.008570220824,-0.0358180363
5.22,0.005166656282,-0.03561877374
5.23,0.001821666882,-0.03510976836
5.24,-0.001436367545,-0.03429787408
5.25,-0.004579734898,-0.03319265582
5.26,-0.007581669105,-0.03180632778
5.27,-0.01041662246,-0.03015366017
5.28,-0.01306052798,-0.02825185522
5.29,-0.015491048,-0.02612039362
5.3,-0.01768780518,-0.02378085322
5.31,-0.0196325927,-0.0212567023
5.32,-0.02130956044,-0.01857307011
5.33,-0.02270537465,-0.01575649789
5.34,-0.02380934877,-0.01283467383
5.35,-0.02461354395,-0.00983615556
5.36,-0.02511283798,-0.006790084237
5.37,-0.02530496218,-0.00372589407
5.38,-0.02519050613,-0.0006730212239
5.39,-0.02477289089,0.002339384
5.4,-0.02405831154,0.005282738048
5.41,-0.0230556507,0.008129294614
5.42,-0.02177636485,0.0108524016
5.43,-0.02023434553,0.01342674178
5.44,-0.01844575827,0.01582855466
5.45,-0.01642886164,0.01803583771
5.46,-0.01420380944,0.02002852526
5.47,-0.01179243901,0.0217886439
5.48,-0.009218048517,0.0233004438
5.49,-0.006505166092,0.02455050545
5.5,-0.0036793137,0.02552782195
5.51,-0.0007667682562,0.02622385704
5.52,0.002205677524,0.02663257968
5.53,0.00521095232,0.02675047573
5.54,0.008221939465,0.02657653796
5.55,0.01121170448,0.02611223542
5.56,0.01415371534,0.02536146337
5.57,0.01702205416,0.02433047496
5.58,0.01979161912,0.02302779612
5.59,0.02243831564,0.02146412463
5.6,0.02493923597,0.01965221481
5.61,0.02727282647,0.01760674882
5.62,0.02941904188,0.01534419582
5.63,0.03135948595,0.01288266002
5.64,0.03307753786,0.01024171862
5.65,0.03455846397,0.007442250802
5.66,0.03578951404,0.004506258774
5.67,0.03676000176,0.001456681907
5.68,0.0374613687,-0.001682794774
5.69,0.03788723133,-0.004887936593
5.7,0.0380334106,-0.008134158376
5.71,0.03789794358,-0.01139672532
5.72,0.03748107697,-0.01465095405
5.73,0.03678524215,-0.01787241222
5.74,0.03581501179,-0.02103711489
5.75,0.03457703812,-0.0241217159
5.76,0.03307997328,-0.02710369232
5.77,0.03133437222,-0.0299615201
5.78,0.02935257909,-0.03267483903
5.79,0.02714859819,-0.03522460517
5.8,0.0247379507,-0.03759322909
5.81,0.02213751906,-0.03976469822
5.82,0.01936538049,-0.04172468207
5.83,0.01644063195,-0.04346061908
5.84,0.01338320856,-0.04496178424
5.85,0.01021369788,-0.04621933697
5.86,0.006953152409,-0.04722634887
5.87,0.003622902642,-0.04797781154
5.88,0.0002443731908,-0.0484706248
5.89,-0.003161095882,-0.04870356611
5.9,-0.006572420306,-0.04867724214
5.91,-0.009968933492,-0.04839402393
5.92,-0.01333053734,-0.04785796703
5.93,-0.01663784053,-0.04707471865
5.94,-0.01987228308,-0.0460514134
5.95,-0.02301624642,-0.04479655994
5.96,-0.02605314831,-0.04331992043
5.97,-0.02896752247,-0.04163238482
5.98,-0.03174508291,-0.03974584212
5.99,-0.03437277339,-0.03767305038
6,-0.03683880251,-0.03542750722
