"Freq [GHz]","re(S(Tx_p1,Tx_p1)) []","im(S(Tx_p1,Tx_p1)) []"
1,0.07093285396,0.0573666335
1.01,0.07519495852,0.05145932633
1.02,0.07896498348,0.04526023655
1.03,0.08222454389,0.03880979519
1.04,0.08495851554,0.03214945982
1.05,0.08715508411,0.02532145456
1.06,0.08880577226,0.01836850648
1.07,0.08990544363,0.01133358112
1.08,0.0904522834,0.00425961992
1.09,0.09044775559,-0.002810717238
1.1,0.08989653787,-0.009835301402
1.11,0.08880643546,-0.0167727729
1.12,0.08718827608,-0.0235827663
1.13,0.08505578872,-0.03022611953
1.14,0.08242546884,-0.0366650663
1.15,0.07931643332,-0.0428634104
1.16,0.07575026821,-0.04878668209
1.17,0.07175087263,-0.0544022775
1.18,0.06734430103,-0.05967958162
1.19,0.06255860659,-0.06459007767
1.2,0.05742368665,-0.06910744323
1.21,0.05197113273,-0.07320763987
1.22,0.04623408306,-0.07686899363
1.23,0.04024707883,-0.08007227297
1.24,0.03404592192,-0.08280076493
1.25,0.02766753232,-0.08504035169
1.26,0.02114980248,-0.08677958849
1.27,0.01453144583,-0.08800978365
1.28,0.007851835885,-0.08872507975
1.29,0.00115083334,-0.0889225349
1.3,-0.005531402025,-0.08860220144
1.31,-0.01215461684,-0.08776719897
1.32,-0.01867868857,-0.08642377753
1.33,-0.02506386953,-0.08458136658
1.34,-0.03127104999,-0.08225260459
1.35,-0.03726203894,-0.0794533444
1.36,-0.04299985943,-0.07620262937
1.37,-0.04844905482,-0.07252263589
1.38,-0.05357600064,-0.06843857857
1.39,-0.05834921628,-0.06397857521
1.4,-0.06273966969,-0.05917347019
1.41,-0.06672106794,-0.05405661558
1.42,-0.0702701263,-0.04866361151
1.43,-0.07336680857,-0.04303200814
1.44,-0.0759945319,-0.03720097343
1.45,-0.07814032986,-0.03121093205
1.46,-0.0797949689,-0.02510318214
1.47,-0.08095301419,-0.01891949748
1.48,-0.08161284267,-0.01270172348
1.49,-0.08177660244,-0.006491375692
1.5,-0.08145011956,-0.0003292498048
1.51,-0.08064275481,0.005744948396
1.52,-0.0793672149,0.01169294507
1.53,-0.07763932346,0.01747820519
1.54,-0.07547775938,0.0230661988
1.55,-0.07290377004,0.02842462181
1.56,-0.06994086838,0.03352356903
1.57,-0.06661452283,0.03833565867
1.58,-0.06295184883,0.04283610883
1.59,-0.05898131073,0.04700276888
1.6,-0.05473244157,0.05081611022
1.61,-0.0502355874,0.05425918213
1.62,-0.04552168127,0.05731753951
1.63,-0.04062205044,0.05997915068
1.64,-0.03556825853,0.06223429322
1.65,-0.03039198248,0.06407544648
1.66,-0.02512492242,0.06549718884
1.67,-0.01979874076,0.06649610706
1.68,-0.01444502528,0.06707072429
1.69,-0.009095269728,0.06722145155
1.7,-0.003780864458,0.06695056642
1.71,0.001466911074,0.06626222031
1.72,0.006616902179,0.06516247436
1.73,0.0116381074,0.06365936171
1.74,0.01649972911,0.0617629723
1.75,0.02117125288,0.05948555449
1.76,0.0256225609,0.05684162659
1.77,0.02982408326,0.05384808999
1.78,0.03374698887,0.05052433494
1.79,0.03736341621,0.04689232946
1.8,0.04064674164,0.04297668204
1.81,0.04357188134,0.038804669
1.82,0.04611562097,0.03440621832
1.83,0.04825696527,0.02981384289
1.84,0.04997749869,0.02506251752
1.85,0.05126174652,0.02018949624
1.86,0.05209752589,0.01523406776
1.87,0.05247627482,0.01023724989
1.88,0.05239334835,0.005241425047
1.89,0.05184827078,0.0002899219743
1.9,0.05084493388,-0.004573449931
1.91,0.04939173266,-0.009304904913
1.92,0.04750163133,-0.01386121372
1.93,0.04519215439,-0.01820025363
1.94,0.04248529949,-0.02228156334
1.95,0.03940737139,-0.02606689005
1.96,0.03598873803,-0.02952071584
1.97,0.03226351249,-0.03261075101
1.98,0.02826916655,-0.03530838264
1.99,0.02404608329,-0.03758906795
2,0.01963705843,-0.03943266334
2.01,0.01508676077,-0.04082368202
2.02,0.01044116391,-0.04175147479
2.03,0.005746961437,-0.04221033104
2.04,0.001050978442,-0.04219949907
2.05,-0.003600408239,-0.04172312684
2.06,-0.008161828901,-0.04079012657
2.07,-0.01258944816,-0.03941396904
2.08,-0.01684145021,-0.03761241358
2.09,-0.02087847446,-0.03540718354
2.1,-0.02466399426,-0.03282359585
2.11,-0.02816463516,-0.02989015582
2.12,-0.03135042881,-0.02663812723
2.13,-0.03419500265,-0.02310108921
2.14,-0.03667570643,-0.01931448973
2.15,-0.03877367822,-0.01531520591
2.16,-0.04047385497,-0.0111411196
2.17,-0.04176493305,-0.00683071564
2.18,-0.04263928593,-0.00242270908
2.19,-0.04309284637,0.002044294521
2.2,-0.0431249613,0.00653210297
2.21,-0.04273822714,0.01100320425
2.22,-0.04193831323,0.015420997
2.23,-0.04073378046,0.01974998665
2.24,-0.03913590109,0.02395595041
2.25,-0.03715848474,0.02800607552
2.26,-0.03481771432,0.03186907582
2.27,-0.03213199396,0.03551529201
2.28,-0.02912181006,0.03891678153
2.29,-0.0258096046,0.04204740313
2.3,-0.022219659,0.04488290124
2.31,-0.01837798553,0.0474009944
2.32,-0.01431222214,0.04958147061
2.33,-0.01005152628,0.05140629183
2.34,-0.00562646251,0.05285970818
2.35,-0.001068878894,0.0539283811
2.36,0.003588232696,0.05460151353
2.37,0.008310896779,0.0548709837
2.38,0.01306433844,0.05473147817
2.39,0.01781319398,0.05418061876
2.4,0.02252174935,0.05321907725
2.41,0.02715420608,0.05185067155
2.42,0.03167497332,0.05008243681
2.43,0.03604898285,0.04792466501
2.44,0.04024202258,0.04539090764
2.45,0.04422108295,0.04249793614
2.46,0.0479547094,0.03926565663
2.47,0.05141335317,0.03571697629
2.48,0.05456971243,0.03187762034
2.49,0.05739905499,0.02777590029
2.5,0.0598795145,0.02344243558
2.51,0.06199235172,0.01890983252
2.52,0.06372217394,0.01421232574
2.53,0.06505710593,0.009385388938
2.54,0.06598890744,0.004465322616
2.55,0.06651303371,-0.0005111723037
2.56,0.06662863689,-0.00550742587
2.57,0.06633850818,-0.01048722583
2.58,0.065648962,-0.01541523027
2.59,0.06456966546,-0.020257357
2.6,0.06311341767,-0.02498114141
2.61,0.06129588509,-0.02955605537
2.62,0.05913530015,-0.03395378099
2.63,0.05665213131,-0.0381484347
2.64,0.05386873343,-0.0421167383
2.65,0.05080898748,-0.04583813576
2.66,0.04749793877,-0.04929485578
2.67,0.04396144246,-0.05247192198
2.68,0.0402258245,-0.05535711402
2.69,0.03631756527,-0.0579408843
2.7,0.03226301215,-0.06021623591
2.71,0.02808812589,-0.06217856865
2.72,0.02381826426,-0.06382550013
2.73,0.01947800508,-0.06515666978
2.74,0.01509100921,-0.06617353313
2.75,0.01067992256,-0.06687915389
2.76,0.006266315141,-0.06727800063
2.77,0.001870653631,-0.06737575407
2.78,-0.00248769665,-0.06717913036
2.79,-0.006790445557,-0.06669572423
2.8,-0.01102033322,-0.06593387505
2.81,-0.01516107226,-0.06490255747
2.82,-0.01919728301,-0.06361129692
2.83,-0.02311442725,-0.06207010951
2.84,-0.02689874565,-0.06028946418
2.85,-0.0305372034,-0.05828026462
2.86,-0.03401744763,-0.05605384725
2.87,-0.03732777934,-0.05362199114
2.88,-0.04045714161,-0.0509969356
2.89,-0.04339512462,-0.04819140068
2.9,-0.04613198715,-0.04521860614
2.91,-0.04865869333,-0.04209228482
2.92,-0.05096696224,-0.03882668659
2.93,-0.05304932764,-0.03543656995
2.94,-0.05489920429,-0.03193717899
2.95,-0.05651095699,-0.02834420431
2.96,-0.05787996841,-0.02467372755
2.97,-0.05900270182,-0.02094214979
2.98,-0.05987675478,-0.0171661053
2.99,-0.06050090068,-0.01336236266
3,-0.06087511532,-0.009547716137
3.01,-0.0610005864,-0.005738870552
3.02,-0.06087970476,-0.001952323431
3.03,-0.06051603685,0.00179575172
3.04,-0.05991427911,0.005489616993
3.05,-0.05908019525,0.009114072851
3.06,-0.05802053861,0.0126545491
3.07,-0.05674296294,0.01609718007
3.08,-0.05525592397,0.01942886342
3.09,-0.05356857641,0.02263729991
3.1,-0.05169066999,0.02571101416
3.11,-0.0496324487,0.02863935653
3.12,-0.04740455726,0.03141248739
3.13,-0.04501795834,0.03402134575
3.14,-0.04248386373,0.03645760525
3.15,-0.03981368197,0.03871362068
3.16,-0.03701898408,0.04078236915
3.17,-0.03411148839,0.04265739021
3.18,-0.03110306418,0.04433272923
3.19,-0.02800575335,0.04580288855
3.2,-0.02483180791,0.04706279042
3.21,-0.02159374065,0.04810775547
3.22,-0.01830438531,0.04893349984
3.23,-0.01497696204,0.04953615317
3.24,-0.01162514333,0.04991229891
3.25,-0.008263115641,0.05005903751
3.26,-0.004905631416,0.04997407167
3.27,-0.001568046585,0.04965581231
3.28,0.001733661039,0.04910350235
3.29,0.00498289666,0.04831735496
3.3,0.008162480112,0.04729870182
3.31,0.01125470674,0.04605014636
3.32,0.01424143919,0.04457571637
3.33,0.0171042306,0.04288101027
3.34,0.0198244787,0.04097333088
3.35,0.02238360906,0.03886180113
3.36,0.02476328489,0.03655745582
3.37,0.0269456394,0.03407330479
3.38,0.02891352639,0.03142436292
3.39,0.03065078342,0.02862764358
3.4,0.03214250171,0.02570211308
3.41,0.03337529644,0.02266860457
3.42,0.0343375708,0.01954969121
3.43,0.03501976734,0.01636951917
3.44,0.03541460009,0.01315360262
3.45,0.03551726176,0.009928583403
3.46,0.0353256004,0.006721959485
3.47,0.03484026093,0.003561786642
3.48,0.03406478769,0.0004763589646
3.49,0.03300568524,-0.002506126029
3.5,0.03167243524,-0.005357911328
3.51,0.03007746874,-0.008052027568
3.52,0.02823609402,-0.01056263559
3.53,0.02616638089,-0.01286536013
3.54,0.02388900371,-0.01493760729
3.55,0.02142704577,-0.01675886113
3.56,0.01880576869,-0.01831095432
3.57,0.01605235088,-0.01957830886
3.58,0.01319559972,-0.02054814352
3.59,0.01026564219,-0.02121064523
3.6,0.00729359907,-0.02155910286
3.61,0.004311247746,-0.02159000214
3.62,0.001350678564,-0.02130308145
3.63,-0.001556050471,-0.02070134882
3.64,-0.004377256166,-0.01979106108
3.65,-0.007081965625,-0.01858166649
3.66,-0.009640240999,-0.01708571281
3.67,-0.01202349017,-0.01531872285
3.68,-0.01420476043,-0.01329903999
3.69,-0.01615901277,-0.01104764619
3.7,-0.01786337451,-0.008587955056
3.71,-0.01929736874,-0.005945582741
3.72,-0.02044311902,-0.003148099239
3.73,-0.02128552832,-0.0002247626546
3.74,-0.02181243114,0.002793761023
3.75,-0.02201471827,0.005875690224
3.76,-0.02188643345,0.00898842983
3.77,-0.02142484143,0.01209888063
3.78,-0.0206304672,0.01517375391
3.79,-0.01950710575,0.01817988896
3.8,-0.01806180241,0.02108457108
3.81,-0.0163048032,0.02385584785
3.82,-0.0142494754,0.02646284104
3.83,-0.01191219814,0.02887605167
3.84,-0.009312223252,0.03106765553
3.85,-0.006471506849,0.0330117861
3.86,-0.003414512179,0.03468480223
3.87,-0.000167984843,0.03606553713
3.88,0.003239298305,0.037135526
3.89,0.006776804846,0.03787920871
3.9,0.01041254483,0.0382841049
3.91,0.01411338855,0.03834095831
3.92,0.01784540086,0.03804384775
3.93,0.02157418865,0.03739026248
3.94,0.02526525731,0.03638113969
3.95,0.02888437197,0.03502086284
3.96,0.03239791884,0.03331721981
3.97,0.03577326173,0.03128132044
3.98,0.03897908889,0.02892747386
3.99,0.04198574493,0.02627302656
4,0.04476554304,0.02333816291
4.01,0.04729305264,0.0201456706
4.02,0.04954535812,0.01672067405
4.03,0.05150228448,0.0130903396
4.04,0.05314658656,0.00928355681
4.05,0.0544640988,0.005330600649
4.06,0.05544384347,0.001262779864
4.07,0.0560780958,-0.002887922963
4.08,0.05636240559,-0.007089213982
4.09,0.05629557525,-0.01130884755
4.1,0.0558795955,-0.0155149769
4.11,0.05511954029,-0.01967649071
4.12,0.05402342391,-0.0237633303
4.13,0.05260202311,-0.02774678302
4.14,0.05086866838,-0.03159974756
4.15,0.04883900863,-0.03529696792
4.16,0.04653075417,-0.03881523315
4.17,0.0439634029,-0.04213354099
4.18,0.04115795501,-0.04523322408
4.19,0.03813662147,-0.0480980384
4.2,0.03492253132,-0.05071421431
4.21,0.0315394429,-0.05307047104
4.22,0.02801146349,-0.05515799661
4.23,0.02436278176,-0.05697039533
4.24,0.02061741668,-0.0585036058
4.25,0.01679898618,-0.05975579274
4.26,0.01293049821,-0.06072721616
4.27,0.009034166155,-0.06142008176
4.28,0.00513125009,-0.06183837666
4.29,0.00124192465,-0.06198769423
4.3,-0.002614826357,-0.06187505223
4.31,-0.00642128892,-0.06150870791
4.32,-0.01016107229,-0.06089797364
4.33,-0.01381913826,-0.06005303646
4.34,-0.01738180815,-0.05898478441
4.35,-0.02083674932,-0.0577046422
4.36,-0.0241729438,-0.0562244183
4.37,-0.02738064142,-0.0545561653
4.38,-0.03045130003,-0.05271205449
4.39,-0.03337751551,-0.05070426579
4.4,-0.03615294408,-0.04854489316
4.41,-0.03877221956,-0.04624586562
4.42,-0.04123086773,-0.04381888351
4.43,-0.0435252201,-0.04127536932
4.44,-0.04565232891,-0.03862643213
4.45,-0.04760988505,-0.03588284456
4.46,-0.04939614026,-0.03305503104
4.47,-0.05100983467,-0.03015306587
4.48,-0.05245013061,-0.02718667971
4.49,-0.05371655306,-0.02416527319
4.5,-0.05480893724,-0.02109793608
4.51,-0.05572738326,-0.01799347092
4.52,-0.05647221785,-0.01486041975
4.53,-0.05704396292,-0.01170709315
4.54,-0.05744331056,-0.008541600433
4.55,-0.05767110407,-0.005371880475
4.56,-0.05772832472,-0.002205732521
4.57,-0.05761608352,0.0009491535046
4.58,-0.057335618,0.00408516743
4.59,-0.05688829328,0.007194750298
4.6,-0.05627560745,0.01027036698
4.61,-0.05549920099,0.01330448006
4.62,-0.0545608702,0.01628952521
4.63,-0.05346258457,0.01921788803
4.64,-0.05220650833,0.02208188274
4.65,-0.0507950262,0.02487373306
4.66,-0.04923077354,0.02758555549
4.67,-0.04751667108,0.03020934582
4.68,-0.04565596418,0.03273696936
4.69,-0.04365226687,0.03516015583
4.7,-0.04150961024,0.03747049983
4.71,-0.03923249508,0.03965946779
4.72,-0.03682594814,0.04171841277
4.73,-0.03429558127,0.0436385979
4.74,-0.03164765243,0.04541122982
4.75,-0.02888912721,0.04702750288
4.76,-0.02602773947,0.04847865509
4.77,-0.02307204903,0.04975603643
4.78,-0.02003149466,0.05085118977
4.79,-0.01691644003,0.05175594458
4.8,-0.01373821023,0.05246252298
4.81,-0.01050911667,0.05296365745
4.82,-0.007242467865,0.05325271899
4.83,-0.003952563832,0.05332385404
4.84,-0.0006546721634,0.0531721283
4.85,0.002635016168,0.05279367463
4.86,0.005899452643,0.05218584256
4.87,0.009120819724,0.05134734592
4.88,0.0122806426,0.05027840525
4.89,0.01535992413,0.04898088156
4.9,0.01833930249,0.04745839739
4.91,0.02119923015,0.0457164419
4.92,0.02392017261,0.04376245617
4.93,0.02648282441,0.04160589543
4.94,0.02886833946,0.03925826541
4.95,0.03105857233,0.03673312994
4.96,0.03303632666,0.03404608793
4.97,0.03478560637,0.03121471815
4.98,0.03629186532,0.02825849089
4.99,0.03754225071,0.02519864639
5,0.03852583559,0.02205804034
5.01,0.03923383587,0.01886095785
5.02,0.03965980734,0.01563289756
5.03,0.03979981859,0.01240032841
5.04,0.03965259608,0.009190422236
5.05,0.03921963788,0.006030765777
5.06,0.0385052934,0.002949056068
5.07,0.037516807,-2.721622849E-05
5.08,0.03626432364,-0.002871090946
5.09,0.0347608559,-0.005556465119
5.1,0.03302221209,-0.008058417345
5.11,0.03106688573,-0.01035352495
5.12,0.0289159077,-0.01242016917
5.13,0.02659266239,-0.01423882383
5.14,0.02412267048,-0.01579232329
5.15,0.02153334061,-0.01706610572
5.16,0.01885369347,-0.01804842821
5.17,0.01611406149,-0.01873055079
5.18,0.01334576822,-0.01910688659
5.19,0.01058079112,-0.01917511632
5.2,0.00785141217,-0.01893626524
5.21,0.005189860457,-0.01839474184
5.22,0.002627950998,-0.01755833737
5.23,0.0001967241631,-0.01643818633
5.24,-0.002073910155,-0.0150486881
5.25,-0.004155519512,-0.01340739057
5.26,-0.006021483068,-0.01153483697
5.27,-0.007647309129,-0.009454377229
5.28,-0.009010932495,-0.007191945976
5.29,-0.01009298822,-0.004775809281
5.3,-0.01087705866,-0.002236282602
5.31,-0.01134989082,0.000394577213
5.32,-0.01150158151,0.003083302859
5.33,-0.01132572776,0.00579536714
5.34,-0.01081954065,0.008495549651
5.35,-0.009983920552,0.01114831583
5.36,-0.008823492618,0.01371820443
5.37,-0.007346601359,0.01617021938
5.38,-0.005565263685,0.0184702216
5.39,-0.003495080214,0.02058531662
5.4,-0.001155105066,0.02248423328
5.41,0.001432325132,0.02413768923
5.42,0.004241801853,0.02551873854
5.43,0.007245093128,0.02660309711
5.44,0.01041142765,0.02736944145
5.45,0.01370781169,0.02779967683
5.46,0.01709937563,0.0278791708
5.47,0.02054974617,0.02759694872
5.48,0.02402144008,0.026945848
5.49,0.02747627471,0.02592262865
5.5,0.03087579024,0.02452803793
5.51,0.03418167833,0.02276682762
5.52,0.03735621146,0.0206477233
5.53,0.04036266736,0.01818334536
5.54,0.04316574281,0.01539008255
5.55,0.04573195089,0.01228791938
5.56,0.04802999656,0.00890021962
5.57,0.05003112488,0.005253468617
5.58,0.05170943753,0.001376978136
5.59,0.05304217285,-0.002697442197
5.6,0.05400994596,-0.006935842084
5.61,0.05459694571,-0.01130251119
5.62,0.05479108607,-0.01576037768
5.63,0.0545841105,-0.02027141877
5.64,0.05397164828,-0.02479707745
5.65,0.05295322311,-0.02929867934
5.66,0.05153221447,-0.03373784374
5.67,0.04971577365,-0.03807688339
5.68,0.04751469655,-0.0422791875
5.69,0.04494325643,-0.04630958316
5.7,0.04201899999,-0.05013467097
5.71,0.03876251105,-0.05372313086
5.72,0.03519714609,-0.05704599524
5.73,0.03134874657,-0.060076887
5.74,0.02724533264,-0.06279222069
5.75,0.02291678347,-0.06517136589
5.76,0.01839450884,-0.06719677254
5.77,0.01371111669,-0.06885405857
5.78,0.008900081193,-0.07013206082
5.79,0.003995415285,-0.07102285078
5.8,-0.0009686485833,-0.07152171701
5.81,-0.005957966264,-0.07162711668
5.82,-0.01093877555,-0.07134059869
5.83,-0.01587797335,-0.07066670125
5.84,-0.02074337466,-0.06961282666
5.85,-0.02550395197,-0.06818909629
5.86,-0.0301300543,-0.06640818842
5.87,-0.03459360522,-0.06428516172
5.88,-0.0388682799,-0.06183726681
5.89,-0.04292966101,-0.05908374823
5.9,-0.04675537409,-0.05604563875
5.91,-0.05032520243,-0.05274554802
5.92,-0.05362118232,-0.04920744693
5.93,-0.05662767898,-0.04545644914
5.94,-0.05933144367,-0.041518591
5.95,-0.06172165249,-0.0374206107
5.96,-0.06378992715,-0.03318972784
5.97,-0.06553033787,-0.02885342412
5.98,-0.06693938869,-0.02443922616
5.99,-0.06801598499,-0.01997449131
6,-0.06876138345,-0.01548619767
