"Freq [GHz]","re(S(Tx_p1,Tx_p1)) []","im(S(Tx_p1,Tx_p1)) []"
1,0.05157429191,-0.00339518074
1.01,0.05203668425,-0.0062030523
1.02,0.0522411823,-0.009086863842
1.03,0.05218140648,-0.01202087484
1.04,0.05185356264,-0.01497877962
1.05,0.05125651254,-0.01793398618
1.06,0.05039181122,-0.02085990447
1.07,0.0492637085,-0.02373024166
1.08,0.04787911362,-0.02651930025
1.09,0.04624752489,-0.02920226811
1.1,0.04438092094,-0.03175550558
1.11,0.04229361857,-0.03415681466
1.12,0.04000209697,-0.03638569155
1.13,0.03752479161,-0.03842355614
1.14,0.03488186105,-0.04025395474
1.15,0.03209493083,-0.04186273252
1.16,0.0291868156,-0.04323817291
1.17,0.0261812322,-0.04437110123
1.18,0.02310249759,-0.04525495175
1.19,0.01997522522,-0.04588579667
1.2,0.01682402116,-0.04626233705
1.21,0.01367318604,-0.04638585638
1.22,0.0105464274,-0.04626013804
1.23,0.007466587318,-0.04589134844
1.24,0.004455389418,-0.04528788878
1.25,0.001533209249,-0.04446021795
1.26,-0.001281128618,-0.04342065083
1.27,-0.003970523891,-0.04218313568
1.28,-0.006519742275,-0.04076301481
1.29,-0.008915523765,-0.03917677339
1.3,-0.01114665675,-0.03744178087
1.31,-0.01320401762,-0.03557602994
1.32,-0.01508057636,-0.03359787754
1.33,-0.0167713691,-0.03152579259
1.34,-0.01827343935,-0.02937811465
1.35,-0.01958574995,-0.02717282739
1.36,-0.02070906975,-0.02492735172
1.37,-0.02164583524,-0.02265835857
1.38,-0.0223999944,-0.02038160789
1.39,-0.02297683454,-0.0181118135
1.4,-0.02338279776,-0.01586253546
1.41,-0.02362529117,-0.01364610202
1.42,-0.02371249235,-0.01147355964
1.43,-0.02365315722,-0.009354652095
1.44,-0.02345643312,-0.007297826803
1.45,-0.02313168137,-0.00531026709
1.46,-0.02268831268,-0.003397948031
1.47,-0.0221356386,-0.001565713259
1.48,-0.02148274179,0.0001826303947
1.49,-0.02073836701,0.00184420384
1.5,-0.01991083462,0.003416936061
1.51,-0.01900797738,0.004899437558
1.52,-0.01803710087,0.006290871015
1.53,-0.01700496722,0.007590822954
1.54,-0.01591780127,0.008799180224
1.55,-0.01478131745,0.009916014832
1.56,-0.01360076549,0.01094148031
1.57,-0.01238099227,0.01187572246
1.58,-0.01112651692,0.01271880667
1.59,-0.009841615796,0.01347066373
1.6,-0.008530413999,0.0141310552
1.61,-0.007196979586,0.01469955896
1.62,-0.005845417005,0.01517557483
1.63,-0.004479956106,0.01555834968
1.64,-0.003105033473,0.0158470206
1.65,-0.001725362453,0.01604067475
1.66,-0.0003459904888,0.01613842269
1.67,0.001027660241,0.01613948363
1.68,0.002389769365,0.01604327868
1.69,0.003734113731,0.01584952917
1.7,0.005054082235,0.01555835654
1.71,0.006342710086,0.01517038033
1.72,0.007592731924,0.01468681089
1.73,0.008796652668,0.01410953344
1.74,0.009946834429,0.0134411807
1.75,0.01103559722,0.01268519124
1.76,0.01205533129,0.01184585128
1.77,0.01299861758,0.01092831835
1.78,0.01385835377,0.009938625354
1.79,0.01462788223,0.008883664324
1.8,0.01530111679,0.007771149783
1.81,0.01587266474,0.006609561958
1.82,0.01633794113,0.005408070831
1.83,0.01669327211,0.004176442372
1.84,0.01693598482,0.002924928909
1.85,0.0170644812,0.001664145748
1.86,0.01707829398,0.0004049367898
1.87,0.01697812312,-0.0008417680844
1.88,0.01676585171,-0.002065100759
1.89,0.01644454074,-0.003254404611
1.9,0.01601840272,-0.004399383011
1.91,0.01549275438,-0.005490243436
1.92,0.01487394955,-0.006517834152
1.93,0.01416929342,-0.007473770612
1.94,0.01338693994,-0.008350548952
1.95,0.0125357744,-0.009141644279
1.96,0.01162528375,-0.009841591786
1.97,0.01066541699,-0.01044604912
1.98,0.009666438994,-0.01095183883
1.99,0.00863878009,-0.01135697024
2,0.007592884949,-0.01166064028
2.01,0.006539063528,-0.01186321372
2.02,0.005487347105,-0.01196618308
2.03,0.004447352218,-0.01197210953
2.04,0.003428155144,-0.01188454602
2.05,0.002438179313,-0.0117079444
2.06,0.001485097768,-0.01144754879
2.07,0.0005757524379,-0.0111092774
2.08,-0.0002839083604,-0.01069959555
2.09,-0.001088873194,-0.01022538254
2.1,-0.001835090961,-0.009693795384
2.11,-0.00251947435,-0.009112132295
2.12,-0.003139883603,-0.008487698863
2.13,-0.00369509127,-0.007827679793
2.14,-0.004184729089,-0.007139018946
2.15,-0.004609218498,-0.006428310189
2.16,-0.004969686668,-0.005701701368
2.17,-0.005267870244,-0.004964813334
2.18,-0.005506009274,-0.004222675683
2.19,-0.005686734007,-0.003479680412
2.2,-0.005812947428,-0.002739554319
2.21,-0.005887706437,-0.002005350505
2.22,-0.00591410469,-0.001279458882
2.23,-0.005895159956,-0.0005636351725
2.24,-0.005833708861,0.0001409525989
2.25,-0.005732311592,0.0008336615399
2.26,-0.005593168933,0.00151429699
2.27,-0.005418053794,0.002183023519
2.28,-0.005208258803,0.002840266158
2.29,-0.004964561382,0.0034866046
2.3,-0.004687207166,0.004122663201
2.31,-0.00437591218,0.004748999715
2.32,-0.004029883764,0.005365995757
2.33,-0.003647859745,0.005973751916
2.34,-0.003228164912,0.006571990353
2.35,-0.002768783438,0.007159967496
2.36,-0.002267445496,0.007736399256
2.37,-0.001721725959,0.008299400822
2.38,-0.001129152819,0.008846442804
2.39,-0.0004873226756,0.009374325043
2.4,0.0002059794769,0.009879169045
2.41,0.0009526590597,0.01035642952
2.42,0.001754192248,0.01080092506
2.43,0.002611510716,0.01120688762
2.44,0.003524893594,0.01156802991
2.45,0.00449386924,0.01187762951
2.46,0.005517129238,0.01212862819
2.47,0.006592456828,0.01231374434
2.48,0.007716671397,0.01242559651
2.49,0.008885590759,0.01245683549
2.5,0.01009401214,0.01240028232
2.51,0.01133571266,0.01224906962
2.52,0.01260346955,0.0119967833
2.53,0.01388910011,0.01163760193
2.54,0.01518352087,0.01116643109
2.55,0.01647682504,0.01057902993
2.56,0.01775837709,0.00987212766
2.57,0.019016923,0.009043527519
2.58,0.02024071413,0.008092196352
2.59,0.0214176429,0.007018338005
2.6,0.02253538774,0.005823449121
2.61,0.02358156506,0.004510356271
2.62,0.02454388556,0.003083233603
2.63,0.0254103123,0.001547600868
2.64,0.02616921788,-8.969853012E-05
2.65,0.0268095382,-0.00182053883
2.66,0.02732092019,-0.003635571993
2.67,0.02769386121,-0.005524305492
2.68,0.0279198379,-0.007475196494
2.69,0.0279914225,-0.009475760813
2.7,0.02790238497,-0.01151269478
2.71,0.02764777941,-0.01357200794
2.72,0.0272240137,-0.01563916445
2.73,0.02662890156,-0.01769923069
2.74,0.02586169662,-0.01973702686
2.75,0.02492310834,-0.02173728003
2.76,0.02381530006,-0.02368477639
2.77,0.0225418697,-0.02556451035
2.78,0.02110781408,-0.02736182836
2.79,0.01951947795,-0.02906256567
2.8,0.01778448905,-0.03065317404
2.81,0.01591168101,-0.03212083923
2.82,0.01391100564,-0.03345358689
2.83,0.01179343662,-0.03464037609
2.84,0.009570866495,-0.03567117993
2.85,0.007255998769,-0.03653705301
2.86,0.004862237156,-0.03723018572
2.87,0.002403573636,-0.03774394582
2.88,-0.0001055230269,-0.03807290791
2.89,-0.002650216872,-0.03821287155
2.9,-0.005215411221,-0.03816086909
2.91,-0.007785851094,-0.03791516439
2.92,-0.01034622084,-0.0374752436
2.93,-0.01288123656,-0.03684179933
2.94,-0.01537573315,-0.03601670936
2.95,-0.01781474598,-0.03500301124
2.96,-0.02018358764,-0.03380487363
2.97,-0.02246792001,-0.03242756548
2.98,-0.02465382259,-0.03087742356
2.99,-0.02672785757,-0.02916181908
3,-0.02867713259,-0.02728912349
3.01,-0.03048936198,-0.02526867355
3.02,-0.03215292724,-0.02311073554
3.03,-0.03365693748,-0.02082646811
3.04,-0.03499129032,-0.01842788328
3.05,-0.03614673368,-0.01592780469
3.06,-0.03711492859,-0.01333982245
3.07,-0.03788851304,-0.0106782434
3.08,-0.0384611665,-0.007958035998
3.09,-0.0388276746,-0.005194768798
3.1,-0.03898399328,-0.002404541658
3.11,-0.03892731129,0.0003960910448
3.12,-0.03865610989,0.003190205786
3.13,-0.03817021847,0.005960604233
3.14,-0.03747086444,0.00868991667
3.15,-0.03656071605,0.01136071439
3.16,-0.03544391626,0.01395563067
3.17,-0.03412610636,0.01645748953
3.18,-0.03261443758,0.0188494415
3.19,-0.03091756947,0.02111510497
3.2,-0.02904565371,0.0232387116
3.21,-0.02701030232,0.02520525433
3.22,-0.02482453962,0.02700063571
3.23,-0.02250273717,0.02861181483
3.24,-0.02006053172,0.03002695039
3.25,-0.01751472611,0.03123553791
3.26,-0.0148831737,0.03222853871
3.27,-0.01218464669,0.03299849847
3.28,-0.009438689846,0.03353965329
3.29,-0.006665460699,0.03384802125
3.3,-0.003885557818,0.03392147763
3.31,-0.001119839142,0.03375981216
3.32,0.001610767609,0.03336476703
3.33,0.004285460165,0.03274005443
3.34,0.006883760166,0.03189135295
3.35,0.009385712315,0.03082628224
3.36,0.01177208166,0.02955435584
3.37,0.0140245464,0.02808691234
3.38,0.01612588362,0.02643702529
3.39,0.01806014549,0.02461939278
3.4,0.01981282348,0.02265020775
3.41,0.02137099838,0.02054701051
3.42,0.02272347402,0.01832852517
3.43,0.0238608929,0.01601448181
3.44,0.02477583215,0.01362542685
3.45,0.02546287838,0.01118252367
3.46,0.02591868072,0.00870734625
3.47,0.02614198092,0.006221668246
3.48,0.02613362068,0.003747250375
3.49,0.02589652582,0.001305628676
3.5,0.02543566777,-0.0010820936
3.51,0.02475800316,-0.003395447882
3.52,0.02387239232,-0.005614793466
3.53,0.02278949812,-0.007721499659
3.54,0.02152166675,-0.009698114773
3.55,0.0200827922,-0.01152852006
3.56,0.01848816652,-0.013198067
3.57,0.0167543181,-0.01469369656
3.58,0.01489884023,-0.01600403957
3.59,0.01294021246,-0.01711949732
3.6,0.01089761702,-0.01803230226
3.61,0.008790752962,-0.0187365586
3.62,0.006639650037,-0.01922826325
3.63,0.004464484826,-0.01950530764
3.64,0.002285400972,-0.01956746119
3.65,0.0001223354721,-0.01941633771
3.66,-0.002005147354,-0.01905534583
3.67,-0.004078012834,-0.01848962505
3.68,-0.006077902698,-0.01772596887
3.69,-0.007987270753,-0.01677273658
3.7,-0.009789506849,-0.01563975548
3.71,-0.01146904877,-0.01433821498
3.72,-0.01301148191,-0.01288055415
3.73,-0.01440362675,-0.01128034425
3.74,-0.01563361441,-0.00955216744
3.75,-0.01669095063,-0.007711492859
3.76,-0.01756656857,-0.005774551163
3.77,-0.01825287106,-0.003758208275
3.78,-0.01874376275,-0.001679839088
3.79,-0.01903467277,0.0004427983312
3.8,-0.01912256834,0.002591687646
3.81,-0.01900595988,0.004748677918
3.82,-0.01868489782,0.00689560585
3.83,-0.0181609616,0.009014416395
3.84,-0.01743724084,0.01108728161
3.85,-0.01651830898,0.01309671756
3.86,-0.0154101892,0.01502569915
3.87,-0.01412031279,0.01685777252
3.88,-0.01265746973,0.01857716486
3.89,-0.01103175143,0.02016889103
3.9,-0.009254485591,0.02161885676
3.91,-0.007338162969,0.0229139575
3.92,-0.005296356239,0.02404217258
3.93,-0.003143630806,0.02499265359
3.94,-0.0008954480815,0.02575580665
3.95,0.001431938895,0.02632336717
3.96,0.003821596712,0.02668846655
3.97,0.006256029324,0.02684569003
3.98,0.008717301482,0.02679112462
3.99,0.01118716706,0.02652239668
4,0.0136472013,0.02603869826
4.01,0.01607893592,0.02534080174
4.02,0.01846399594,0.02443106247
4.03,0.02078423697,0.02331340897
4.04,0.02302188182,0.02199332074
4.05,0.02515965501,0.0204777936
4.06,0.02718091412,0.01877529285
4.07,0.02906977658,0.01689569456
4.08,0.03081124089,0.01485021548
4.09,0.03239130106,0.01265133219
4.1,0.03379705339,0.01031269016
4.11,0.03501679459,0.007849003637
4.12,0.03604011045,0.005275947114
4.13,0.03685795445,0.002610039467
4.14,0.03746271559,-0.0001314783606
4.15,0.03784827508,-0.002930771029
4.16,0.03801005143,-0.005769540825
4.17,0.03794503368,-0.008629162958
4.18,0.03765180255,-0.01149082308
4.19,0.03713053945,-0.014335656
4.2,0.03638302319,-0.01714488442
4.21,0.03541261463,-0.01989995687
4.22,0.03422422917,-0.02258268349
4.23,0.03282429748,-0.02517536893
4.24,0.03122071451,-0.02766094102
4.25,0.02942277748,-0.03002307453
4.26,0.02744111289,-0.03224630862
4.27,0.0252875935,-0.03431615739
4.28,0.02297524565,-0.03621921221
4.29,0.02051814776,-0.03794323525
4.3,0.01793132092,-0.03947724304
4.31,0.01523061246,-0.04081157957
4.32,0.01243257362,-0.04193797809
4.33,0.009554332365,-0.04284961098
4.34,0.00661346275,-0.04354112751
4.35,0.003627851964,-0.04400867881
4.36,0.0006155664792,-0.04424993032
4.37,-0.002405281367,-0.04426406135
4.38,-0.005416664998,-0.04405175227
4.39,-0.008400772121,-0.04361515945
4.4,-0.01134012889,-0.04295787868
4.41,-0.01421771853,-0.04208489765
4.42,-0.01701709338,-0.04100253825
4.43,-0.01972247945,-0.03971838993
4.44,-0.02231887262,-0.03824123482
4.45,-0.02479212609,-0.03658096603
4.46,-0.02712902838,-0.0347485001
4.47,-0.02931737186,-0.03275568493
4.48,-0.03134601162,-0.03061520426
4.49,-0.03320491476,-0.02834047979
4.5,-0.0348852004,-0.02594557206
4.51,-0.03637917064,-0.02344508106
4.52,-0.03768033307,-0.0208540472
4.53,-0.03878341526,-0.01818785347
4.54,-0.03968437188,-0.01546212958
4.55,-0.04038038501,-0.01269265797
4.56,-0.04086985818,-0.009895282531
4.57,-0.0411524049,-0.007085819918
4.58,-0.04122883188,-0.004279973669
4.59,-0.0411011177,-0.001493251093
4.6,-0.04077238701,0.001259117095
4.61,-0.04024688077,0.00396225449
4.62,-0.0395299225,0.006601714155
4.63,-0.03862788075,0.009163551292
4.64,-0.03754812786,0.01163439349
4.65,-0.03629899484,0.01400150853
4.66,-0.0348897224,0.01625286972
4.67,-0.03333040797,0.01837721853
4.68,-0.0316319487,0.0203641245
4.69,-0.02980598024,0.0222040419
4.7,-0.02786481128,0.02388836302
4.71,-0.02582135397,0.02540946748
4.72,-0.02368905017,0.02676076729
4.73,-0.0214817937,0.027936747
4.74,-0.01921384887,0.02893299866
4.75,-0.01689976563,0.02974625087
4.76,-0.0145542917,0.03037439163
4.77,-0.01219228211,0.03081648457
4.78,-0.009828606892,0.03107277809
4.79,-0.00747805728,0.0311447072
4.8,-0.00515525129,0.0310348879
4.81,-0.002874539188,0.03074710378
4.82,-0.0006499096285,0.03028628503
4.83,0.001505102905,0.02965847963
4.84,0.003577508659,0.028870817
4.85,0.005554950508,0.02793146422
4.86,0.007425788778,0.026849575
4.87,0.009179181902,0.02563523163
4.88,0.01080516306,0.02429938029
4.89,0.01229471171,0.02285376008
4.9,0.01363981993,0.02131082594
4.91,0.0148335528,0.01968366596
4.92,0.01587010263,0.01798591344
4.93,0.01674483653,0.016231654
4.94,0.0174543368,0.01443532836
4.95,0.01799643391,0.01261163086
4.96,0.01837023147,0.0107754046
4.97,0.01857612297,0.008941533322
4.98,0.01861579959,0.007124830878
4.99,0.01849224891,0.005339928719
5,0.01820974403,0.003601162163
5.01,0.01777382272,0.001922456187
5.02,0.01719125623,0.0003172115888
5.03,0.01647000765,-0.001201807556
5.04,0.01561917947,-0.002622584127
5.05,0.01464895034,-0.003933954809
5.06,0.01357050109,-0.005125712399
5.07,0.01239593015,-0.006188702386
5.08,0.01113815864,-0.007114912568
5.09,0.009810825752,-0.007897554486
5.1,0.008428174972,-0.008531135445
5.11,0.007004931989,-0.009011519967
5.12,0.00555617533,-0.009335979565
5.13,0.004097200839,-0.009503229854
5.14,0.002643381348,-0.009513454117
5.15,0.001210022956,-0.009368312605
5.16,-0.0001877804861,-0.009070937047
5.17,-0.001535293071,-0.008625909975
5.18,-0.00281828096,-0.008039228762
5.19,-0.004023153216,-0.007318254397
5.2,-0.005137097582,-0.006471645305
5.21,-0.006148209482,-0.005509276714
5.22,-0.007045612583,-0.00444214628
5.23,-0.007819569329,-0.003282266909
5.24,-0.008461579989,-0.002042547898
5.25,-0.008964468878,-0.0007366656594
5.26,-0.00932245659,0.0006210744552
5.27,-0.009531217233,0.002015883714
5.28,-0.009587919881,0.003432641067
5.29,-0.009491253618,0.004856048279
5.3,-0.00924143581,0.006270786793
5.31,-0.008840203437,0.007661674772
5.32,-0.008290787522,0.009013822262
5.33,-0.007597870967,0.0103127826
5.34,-0.006767530263,0.0115446982
5.35,-0.005807161825,0.01269643886
5.36,-0.004725393861,0.01375573102
5.37,-0.003531984905,0.0147112761
5.38,-0.002237710341,0.01555285678
5.39,-0.000854238404,0.01627142963
5.4,0.0006060026892,0.01685920307
5.41,0.002129964726,0.01730969977
5.42,0.003704124617,0.0176178027
5.43,0.005314632789,0.01777978443
5.44,0.006947462717,0.01779331932
5.45,0.008588559572,0.01765747884
5.46,0.01022398593,0.01737271015
5.47,0.01184006254,0.01694079855
5.48,0.0134235022,0.0163648147
5.49,0.01496153499,0.01564904753
5.5,0.01644202322,0.01479892436
5.51,0.01785356456,0.01382091957
5.52,0.01918558225,0.01272245363
5.53,0.02042840133,0.01151178434
5.54,0.02157331031,0.01019789218
5.55,0.02261260765,0.008790361948
5.56,0.02353963326,0.00729926258
5.57,0.02434878495,0.005735027332
5.58,0.02503552046,0.004108336193
5.59,0.02559634581,0.002430002431
5.6,0.02602879098,0.0007108649197
5.61,0.02633137415,-0.00103831225
5.62,0.02650355604,-0.002806931633
5.63,0.02654568574,-0.004584644774
5.64,0.02645893993,-0.006361424334
5.65,0.02624525695,-0.008127625543
5.66,0.02590726771,-0.00987403687
5.67,0.02544822482,-0.01159192002
5.68,0.02487193184,-0.01327303967
5.69,0.02418267366,-0.0149096835
5.7,0.02338514964,-0.01649467346
5.71,0.02248441036,-0.0180213691
5.72,0.02148579885,-0.01948366414
5.73,0.02039489682,-0.02087597739
5.74,0.01921747649,-0.02219323925
5.75,0.01795945785,-0.02343087485
5.76,0.01662687152,-0.02458478503
5.77,0.01522582688,-0.02565132601
5.78,0.01376248505,-0.02662728884
5.79,0.01224303625,-0.0275098791
5.8,0.01067368094,-0.02829669753
5.81,0.009060614019,-0.02898572203
5.82,0.007410011629,-0.02957529116
5.83,0.005728019706,-0.03006408928
5.84,0.004020743927,-0.03045113321
5.85,0.002294240487,-0.03073576033
5.86,0.000554507363,-0.03091761783
5.87,-0.001192524177,-0.03099665278
5.88,-0.002940997962,-0.0309731028
5.89,-0.004685141213,-0.03084748695
5.9,-0.006419272688,-0.0306205966
5.91,-0.00813781048,-0.0302934861
5.92,-0.009835279279,-0.02986746323
5.93,-0.01150631683,-0.02934407917
5.94,-0.01314567933,-0.02872511846
5.95,-0.01474824552,-0.02801258876
5.96,-0.0163090194,-0.02720871096
5.97,-0.01782313123,-0.02631590996
5.98,-0.01928583716,-0.02533680642
5.99,-0.02069251735,-0.02427421001
6,-0.02203867289,-0.02313111465
