"Freq [GHz]","re(S(Tx_p1,Tx_p1)) []","im(S(Tx_p1,Tx_p1)) []"
1,0.09122409318,0.1115128606
1.01,0.0997090171,0.1041561242
1.02,0.1076042444,0.09617734415
1.03,0.1148655508,0.0876228778
1.04,0.121452244,0.07854211231
1.05,0.1273273634,0.06898720869
1.06,0.1324578626,0.05901283184
1.07,0.136814772,0.04867586794
1.08,0.1403733418,0.03803513079
1.09,0.1431131628,0.0271510593
1.1,0.1450182656,0.01608540812
1.11,0.146077197,0.004900933677
1.12,0.1462830742,-0.006338922193
1.13,0.1456336182,-0.01757034902
1.14,0.1441311653,-0.02872948324
1.15,0.1417826603,-0.03975272104
1.16,0.1385996304,-0.05057702737
1.17,0.1345981431,-0.06114024108
1.18,0.1297987483,-0.07138137533
1.19,0.1242264055,-0.08124091434
1.2,0.1179103973,-0.09066110518
1.21,0.1108842297,-0.09958624959
1.22,0.1031855178,-0.1079629912
1.23,0.09485585778,-0.1157406033
1.24,0.08594068267,-0.1228712759
1.25,0.07648910047,-0.1293104029
1.26,0.06655371278,-0.1350168693
1.27,0.05619041113,-0.1399533378
1.28,0.04545814822,-0.1440865322
1.29,0.03441868192,-0.1473875174
1.3,0.02313628919,-0.1498319707
1.31,0.01167744819,-0.1514004419
1.32,0.0001104870696,-0.1520785971
1.33,-0.01149480096,-0.1518574411
1.34,-0.02306757597,-0.1507335125
1.35,-0.03453640153,-0.1487090459
1.36,-0.04582972407,-0.1457920948
1.37,-0.0568763776,-0.1419966107
1.38,-0.06760610876,-0.1373424712
1.39,-0.07795011609,-0.1318554552
1.4,-0.08784159651,-0.1255671591
1.41,-0.09721629122,-0.1185148536
1.42,-0.1060130228,-0.1107412795
1.43,-0.1141742147,-0.102294382
1.44,-0.121646385,-0.09322698679
1.45,-0.1283806055,-0.08359642038
1.46,-0.1343329189,-0.07346407905
1.47,-0.1394647072,-0.06289495346
1.48,-0.143743005,-0.05195711524
1.49,-0.1471407536,-0.04072117388
1.5,-0.1496369925,-0.02925971251
1.51,-0.1512169872,-0.01764671172
1.52,-0.1518722927,-0.005956970379
1.53,-0.1516007548,0.005734467625
1.54,-0.1504064517,0.01735287266
1.55,-0.1482995811,0.02882436702
1.56,-0.1452962975,0.04007643484
1.57,-0.1414185062,0.05103839932
1.58,-0.1366936217,0.06164186347
1.59,-0.1311542964,0.07182111243
1.6,-0.1248381278,0.0815134767
1.61,-0.1177873497,0.09065965711
1.62,-0.1100485151,0.09920401351
1.63,-0.1016721738,0.1070948204
1.64,-0.09271255082,0.1142844931
1.65,-0.08322722596,0.1207297896
1.66,-0.07327681839,0.1263919919
1.67,-0.06292467428,0.1312370719
1.68,-0.05223655742,0.1352358459
1.69,-0.04128033993,0.1383641216
1.7,-0.03012569019,0.1406028386
1.71,-0.01884375378,0.1419382063
1.72,-0.007506823236,0.1423618369
1.73,0.003812007825,0.1418708742
1.74,0.0150392105,0.140468114
1.75,0.02610120988,0.1381621139
1.76,0.03692480078,0.1349672863
1.77,0.04743759155,0.130903969
1.78,0.0575684766,0.1259984667
1.79,0.06724813631,0.1202830565
1.8,0.07640956204,0.1137959493
1.81,0.08498860163,0.1065812012
1.82,0.09292451977,0.09868856685
1.83,0.1001605657,0.09017329079
1.84,0.1066445399,0.08109583056
1.85,0.1123293491,0.07152151004
1.86,0.1171735402,0.06152010073
1.87,0.1211418009,0.051165332
1.88,0.1242054167,0.0405343326
1.89,0.1263426719,0.02970700797
1.9,0.1275391863,0.01876535982
1.91,0.1277881752,0.007792756209
1.92,0.1270906277,-0.00312683793
1.93,0.1254553943,-0.01390965841
1.94,0.1228991796,-0.02447295511
1.95,0.1194464386,-0.03473580774
1.96,0.115129174,-0.04461993016
1.97,0.109986638,-0.05405044982
1.98,0.1040649416,-0.0629566485
1.99,0.09741657642,-0.071272652
2,0.09009985918,-0.07893805702
2.01,0.08217830637,-0.08589848492
2.02,0.07371995125,-0.0921060541
2.03,0.06479661522,-0.09751976404
2.04,0.05548314655,-0.1021057867
2.05,0.04585663996,-0.1058376626
2.06,0.03599565068,-0.1086964017
2.07,0.02597941598,-0.1106704904
2.08,0.01588709697,-0.1117558093
2.09,0.005797051837,-0.1119554663
2.1,-0.004213848911,-0.1112795545
2.11,-0.01407085686,-0.1097448404
2.12,-0.02370192264,-0.1073743959
2.13,-0.03303821034,-0.1041971811
2.14,-0.04201454631,-0.1002475909
2.15,-0.05056980098,-0.09556497538
2.16,-0.05864720422,-0.09019314437
2.17,-0.06619459665,-0.08417986563
2.18,-0.07316462034,-0.07757636619
2.19,-0.07951485405,-0.07043684387
2.2,-0.08520789907,-0.06281799518
2.21,-0.09021142193,-0.05477856463
2.22,-0.09449816117,-0.04637891841
2.23,-0.09804590519,-0.03768064416
2.24,-0.1008374476,-0.0287461768
2.25,-0.1028605263,-0.01963844962
2.26,-0.1041077519,-0.01042056791
2.27,-0.1045765288,-0.001155502146
2.28,-0.1042689732,0.00809420332
2.29,-0.1031918292,0.01726671016
2.3,-0.1013563831,0.02630115902
2.31,-0.09877837633,0.03513793961
2.32,-0.09547791442,0.04371896141
2.33,-0.0914793692,0.05198792808
2.34,-0.08681127104,0.05989061735
2.35,-0.08150618667,0.06737516726
2.36,-0.0756005785,0.07439236858
2.37,-0.06913464075,0.0808959616
2.38,-0.0621521086,0.08684293477
2.39,-0.05470003676,0.09219382124
2.4,-0.04682854466,0.09691298854
2.41,-0.03859052679,0.1009689157
2.42,-0.03004132745,0.1043344521
2.43,-0.02123838093,0.1069870505
2.44,-0.01224081904,0.1089089701
2.45,-0.003109049606,0.1100874409
2.46,0.006095689447,0.1105147855
2.47,0.01531179461,0.1101884936
2.48,0.02447777303,0.1091112449
2.49,0.03353272314,0.1072908787
2.5,0.04241681156,0.1047403085
2.51,0.05107173839,0.1014773832
2.52,0.05944118273,0.09752469539
2.53,0.06747122106,0.09290934155
2.54,0.0751107115,0.08766263792
2.55,0.08231163824,0.08181979804
2.56,0.08902941122,0.07541957904
2.57,0.09522311782,0.06850390375
2.58,0.1008557245,0.06111746686
2.59,0.105894228,0.05330733281
2.6,0.1103097567,0.04512253352
2.61,0.1140776253,0.0366136731
2.62,0.117177345,0.02783254635
2.63,0.1195925956,0.01883177674
2.64,0.1213111634,0.009664478386
2.65,0.1223248523,0.0003839454783
2.66,0.1226293738,-0.008956628884
2.67,0.1222242223,-0.01830440381
2.68,0.1211125427,-0.02760711234
2.69,0.1193009955,-0.03681325561
2.7,0.1167996246,-0.04587227252
2.71,0.1136217321,-0.05473468871
2.72,0.109783763,-0.06335224941
2.73,0.1053052022,-0.07167804118
2.74,0.1002084831,-0.07966660762
2.75,0.09451891009,-0.08727406427
2.76,0.08826458964,-0.09445821735
2.77,0.08147637027,-0.1011786904
2.78,0.07418778616,-0.1073970626
2.79,0.06643500044,-0.1130770207
2.8,0.05825674334,-0.118184526
2.81,0.04969423993,-0.1226879973
2.82,0.04079112243,-0.1265585078
2.83,0.03159332212,-0.1297699941
2.84,0.02214893635,-0.1322994745
2.85,0.01250806712,-0.1341272719
2.86,0.0027226282,-0.135237236
2.87,-0.007153880982,-0.1356169604
2.88,-0.01706663521,-0.1352579866
2.89,-0.02695977676,-0.1341559902
2.9,-0.03677674014,-0.1323109429
2.91,-0.04646060559,-0.1297272437
2.92,-0.05595447703,-0.1264138155
2.93,-0.06520187976,-0.1223841607
2.94,-0.07414717195,-0.1176563742
2.95,-0.08273596368,-0.11225311
2.96,-0.09091553664,-0.1062015004
2.97,-0.09863525773,-0.09953302796
2.98,-0.1058469797,-0.0922833509
2.99,-0.1125054221,-0.08449208429
3,-0.1185685272,-0.07620254046
3.01,-0.1239977846,-0.06746143276
3.02,-0.1287585209,-0.05831854768
3.03,-0.1328201512,-0.04882639101
3.04,-0.136156389,-0.03903981406
3.05,-0.1387454148,-0.02901562616
3.06,-0.1405700015,-0.01881219903
3.07,-0.1416176,-0.00848907013
3.08,-0.1418803841,0.001893451277
3.09,-0.1413552603,0.01227466951
3.1,-0.1400438433,0.02259387581
3.11,-0.1379524035,0.0327907066
3.12,-0.1350917889,0.04280548458
3.13,-0.131477327,0.05257954176
3.14,-0.1271287096,0.06205552413
3.15,-0.1220698657,0.07117767899
3.16,-0.1163288237,0.07989212631
3.17,-0.1099375677,0.08814711652
3.18,-0.1029318879,0.09589327718
3.19,-0.09535122649,0.1030838516
3.2,-0.08723851888,0.1096749319
3.21,-0.07864002928,0.1156256901
3.22,-0.06960517858,0.1208986083
3.23,-0.06018636193,0.1254597106
3.24,-0.05043875287,0.1292787973
3.25,-0.04042009016,0.1323296816
3.26,-0.03019044365,0.1345904272
3.27,-0.01981195521,0.1360435855
3.28,-0.00934855122,0.1366764292
3.29,0.001134376576,0.1364811769
3.3,0.01157032404,0.1354552057
3.31,0.02189206298,0.1336012442
3.32,0.0320320652,0.1309275404
3.33,0.04192296128,0.1274479976
3.34,0.05149803187,0.1231822708
3.35,0.06069172798,0.1181558182
3.36,0.06944021532,0.1123998994
3.37,0.07768193645,0.1059515171
3.38,0.08535818336,0.09885329511
3.39,0.09241367232,0.09115329081
3.4,0.09879711169,0.08290473917
3.41,0.1044617531,0.07416572733
3.42,0.1093659161,0.06499880084
3.43,0.1134734765,0.05547050373
3.44,0.1167543086,0.04565085663
3.45,0.1191846722,0.03561277825
3.46,0.1207475372,0.02543145745
3.47,0.1214328367,0.01518368394
3.48,0.1212376454,0.004947147068
3.49,0.1201662774,-0.005200287107
3.5,0.1182303005,-0.01518130979
3.51,0.1154484676,-0.0249199039
3.52,0.1118465642,-0.03434206657
3.53,0.1074571752,-0.04337651099
3.54,0.1023193748,-0.05195533583
3.55,0.0964783442,-0.06001465353
3.56,0.08998492437,-0.06749516903
3.57,0.08289511108,-0.07434270157
3.58,0.07526950039,-0.08050864386
3.59,0.06717269388,-0.085950354
3.6,0.05867267252,-0.09063147705
3.61,0.0498401488,-0.09452219472
3.62,0.04074790599,-0.09759940265
3.63,0.03147013349,-0.09984681647
3.64,0.0220817664,-0.1012550085
3.65,0.01265783687,-0.1018213782
3.66,0.003272843902,-0.1015500609
3.67,-0.005999852623,-0.1004517775
3.68,-0.01508860877,-0.09854363278
3.69,-0.02392404036,-0.09584886523
3.7,-0.03243953073,-0.09239655453
3.71,-0.04057170026,-0.08822129236
3.72,-0.04826083622,-0.08336282079
3.73,-0.05545128225,-0.07786564353
3.74,-0.0620917871,-0.07177861406
3.75,-0.06813581285,-0.06515450483
3.76,-0.073541803,-0.05804956081
3.77,-0.07827341102,-0.05052304061
3.78,-0.08229968997,-0.04263674787
3.79,-0.08559524373,-0.03445455522
3.8,-0.08814034036,-0.02604192299
3.81,-0.08992098791,-0.01746541469
3.82,-0.09092897281,-0.008792211155
3.83,-0.09116186083,-8.962534684E-05
3.84,-0.09062296062,0.008575380196
3.85,-0.0893212494,0.01713667091
3.86,-0.08727126093,0.02552941037
3.87,-0.08449293538,0.03369052019
3.88,-0.08101143137,0.04155912681
3.89,-0.07685690045,0.04907699171
3.9,-0.07206422477,0.05618892166
3.91,-0.06667271909,0.0628431553
3.92,-0.06072579876,0.06899172221
3.93,-0.05427061589,0.074590771
3.94,-0.04735766651,0.07960086248
3.95,-0.04004037213,0.08398722477
3.96,-0.03237463947,0.08771996726
3.97,-0.02441840296,0.09077425089
3.98,-0.01623115472,0.09313041275
3.99,-0.007873467371,0.09477404371
4,0.000593485093,0.09569601853
4.01,0.009108402661,0.0958924785
4.02,0.01761032552,0.09536476778
4.03,0.02603908575,0.09411932506
4.04,0.03433573958,0.09216753311
4.05,0.04244297549,0.08952552953
4.06,0.05030549434,0.08621398238
4.07,0.05787035806,0.08225783519
4.08,0.06508730431,0.07768602599
4.09,0.07190902539,0.0725311853
4.1,0.07829141026,0.06682931831
4.11,0.08419374946,0.0606194761
4.12,0.08957890388,0.05394342075
4.13,0.09441343806,0.04684528901
4.14,0.09866772052,0.03937125838
4.15,0.1023159933,0.03156921921
4.16,0.1053364135,0.02348845579
4.17,0.1077110705,0.01517933845
4.18,0.1094259811,0.006693028466
4.19,0.110471067,-0.001918803608
4.2,0.1108401173,-0.01060424582
4.21,0.1105307379,-0.01931139937
4.22,0.1095442926,-0.02798862071
4.23,0.1078858351,-0.03658475245
4.24,0.105564036,-0.04504934474
4.25,0.1025911042,-0.05333286874
4.26,0.09898270356,-0.06138692416
4.27,0.09475786466,-0.06916444241
4.28,0.0899388916,-0.07661988698
4.29,0.08455126183,-0.08370945222
4.3,0.07862351834,-0.09039126142
4.31,0.07218715221,-0.09662556439
4.32,0.0652764739,-0.1023749346
4.33,0.0579284713,-0.107604465
4.34,0.05018265288,-0.1122819619
4.35,0.04208087445,-0.1163781339
4.36,0.03366714822,-0.1198667756
4.37,0.02498743339,-0.1227249423
4.38,0.01608940802,-0.1249331129
4.39,0.007022222247,-0.1264753391
4.4,-0.002163766195,-0.1273393767
4.41,-0.01141727293,-0.1275167969
4.42,-0.02068638232,-0.1270030744
4.43,-0.02991885488,-0.1257976501
4.44,-0.03906244375,-0.1239039663
4.45,-0.04806521698,-0.1213294722
4.46,-0.05687588198,-0.1180855997
4.47,-0.06544410836,-0.1141877085
4.48,-0.07372084542,-0.1096550004
4.49,-0.08165863041,-0.1045104038
4.5,-0.08921188411,-0.0987804305
4.51,-0.09633719028,-0.0924950056
4.52,-0.1029935562,-0.08568727353
4.53,-0.1091426516,-0.07839338325
4.54,-0.1147490249,-0.07065225535
4.55,-0.1197802938,-0.06250533465
4.56,-0.1242073112,-0.05399633162
4.57,-0.1280043056,-0.04517095613
4.58,-0.1311489958,-0.03607664668
4.59,-0.133622682,-0.02676229813
4.6,-0.1354103137,-0.01727799069
4.61,-0.136500537,-0.007674722211
4.62,-0.1368857223,0.001995854308
4.63,-0.136561976,0.0116816868
4.64,-0.1355291368,0.02133057318
4.65,-0.1337907602,0.03089040305
4.66,-0.1313540925,0.04030939253
4.67,-0.1282300356,0.0495363128
4.68,-0.1244331055,0.05852071364
4.69,-0.1199813834,0.06721314318
4.7,-0.1148964617,0.07556536561
4.71,-0.1092033833,0.08353057832
4.72,-0.1029305744,0.09106363014
4.73,-0.09610977056,0.09812124208
4.74,-0.08877593188,0.1046622316
4.75,-0.08096714826,0.1106477413
4.76,-0.07272453047,0.1160414721
4.77,-0.06409208539,0.1208099212
4.78,-0.05511657253,0.1249226226
4.79,-0.04584733923,0.1283523908
4.8,-0.03633613207,0.1310755636
4.81,-0.02663688233,0.1330722421
4.82,-0.0168054635,0.1343265252
4.83,-0.006899419691,0.1348267331
4.84,0.003022335917,0.1345656181
4.85,0.01289985265,0.1335405554
4.86,0.0226725032,0.1317537114
4.87,0.03227937229,0.1292121843
4.88,0.04165967096,0.1259281106
4.89,0.05075317336,0.1219187363
4.9,0.05950067225,0.1172064452
4.91,0.06784444867,0.1118187441
4.92,0.07572875071,0.1057881987
4.93,0.08310027581,0.09915232105
4.94,0.0899086504,0.09195340416
4.95,0.09610690071,0.08423830569
4.96,0.1016519083,0.07605817926
4.97,0.1065048441,0.06746815527
4.98,0.1106315739,0.05852697322
4.99,0.1140030305,0.04929656836
5,0.1165955464,0.03984161635
5.01,0.118391141,0.03022904048
5.02,0.1193777601,0.02052748635
5.03,0.1195494614,0.01080676982
5.04,0.1189065448,0.001137303951
5.05,0.1174556253,-0.008410488478
5.06,0.1152096452,-0.01776677059
5.07,0.1121878274,-0.02686288855
5.08,0.1084155691,-0.03563196374
5.09,0.1039242758,-0.04400947365
5.1,0.09875113891,-0.05193381542
5.11,0.09293885869,-0.05934684619
5.12,0.08653531457,-0.06619439501
5.13,0.07959318751,-0.07242674116
5.14,0.07216953727,-0.07799905464
5.15,0.06432533915,-0.08287179462
5.16,0.05612498442,-0.08701106242
5.17,0.04763574919,-0.09038890608
5.18,0.03892723642,-0.09298357379
5.19,0.03007079607,-0.09477971429
5.2,0.02113892832,-0.09576852248
5.21,0.01220467492,-0.09594782907
5.22,0.003341003795,-0.09532213336
5.23,-0.00537980807,-0.09390257897
5.24,-0.01388678827,-0.09170687211
5.25,-0.02211087409,-0.08875914313
5.26,-0.02998550393,-0.08508975173
5.27,-0.03744718997,-0.08073503726
5.28,-0.04443606703,-0.07573701539
5.29,-0.0508964125,-0.07014302338
5.3,-0.05677713264,-0.0640053162
5.31,-0.0620322101,-0.05738061656
5.32,-0.0666211084,-0.05032962221
5.33,-0.07050912865,-0.04291647448
5.34,-0.07366771463,-0.03520819255
5.35,-0.07607470243,-0.02727407832
5.36,-0.07771451126,-0.01918509749
5.37,-0.07857827295,-0.01101324263
5.38,-0.07866389772,-0.002830884612
5.39,-0.07797607498,0.005289880926
5.4,-0.07652620838,0.01327788521
5.41,-0.07433228516,0.02106352894
5.42,-0.07141868088,0.02857940884
5.43,-0.06781590121,0.0357609209
5.44,-0.06356026356,0.04254683365
5.45,-0.05869352198,0.04887982473
5.46,-0.05326243988,0.05470697466
5.47,-0.04731831541,0.05998021221
5.48,-0.04091646563,0.06465670643
5.49,-0.03411567559,0.06869920123
5.5,-0.02697761937,0.07207628901
5.51,-0.01956626021,0.07476262117
5.52,-0.01194723726,0.07673905376
5.53,-0.004187246412,0.07799272794
5.54,0.003646577294,0.0785170856
5.55,0.0114872684,0.07831182164
5.56,0.01926862401,0.07738277511
5.57,0.02692577448,0.0757417623
5.58,0.03439572595,0.07340635574
5.59,0.04161786936,0.07039961357
5.6,0.04853445154,0.06674976413
5.61,0.05509100439,0.06248985145
5.62,0.06123672939,0.0576573471
5.63,0.06692483509,0.05229373443
5.64,0.07211282633,0.04644407093
5.65,0.07676274458,0.04015653459
5.66,0.08084135942,0.0334819599
5.67,0.08432031212,0.02647336869
5.68,0.08717621251,0.01918550093
5.69,0.08939069119,0.01167434995
5.7,0.09095040913,0.003996706149
5.71,0.09184702752,-0.003790287141
5.72,0.09207714051,-0.01162956266
5.73,0.09164217384,-0.01946454041
5.74,0.09054825248,-0.027239519
5.75,0.08880604022,-0.03490004546
5.76,0.0864305541,-0.04239326229
5.77,0.08344095668,-0.04966823089
5.78,0.07986032861,-0.05667623073
5.79,0.07571542408,-0.063371034
5.8,0.07103641144,-0.06970915554
5.81,0.06585660102,-0.07565007806
5.82,0.060212162,-0.08115645274
5.83,0.05414183025,-0.08619427538
5.84,0.0476866084,-0.09073303811
5.85,0.04088945996,-0.0947458569
5.86,0.03379499863,-0.09820957484
5.87,0.02644917433,-0.1011048413
5.88,0.01889895723,-0.103416167
5.89,0.01119202125,-0.1051319545
5.9,0.003376428498,-0.1062445052
5.91,-0.004499683819,-0.1067500014
5.92,-0.01238841228,-0.1066484639
5.93,-0.02024239019,-0.1059436867
5.94,-0.0280150826,-0.1046431465
5.95,-0.03566107156,-0.1027578893
5.96,-0.04313632928,-0.1003023944
5.97,-0.05039847737,-0.09729441612
5.98,-0.05740702978,-0.09375480482
5.99,-0.06412361757,-0.08970730866
6,-0.07051219329,-0.08517835765
