"Freq [GHz]","re(S(Tx_p1,Tx_p1)) []","im(S(Tx_p1,Tx_p1)) []"
1,0.1302169942,0.02819971426
1.01,0.1333723735,0.01948127714
1.02,0.1357614213,0.01046912406
1.03,0.13736143,0.001234846196
1.04,0.1381565491,-0.008148236385
1.05,0.1381379316,-0.01760576795
1.06,0.1373038045,-0.02706306426
1.07,0.1356594615,-0.03644582504
1.08,0.1332171786,-0.04568084211
1.09,0.1299960521,-0.05469669433
1.1,0.1260217628,-0.06342442003
1.11,0.1213262676,-0.07179815846
1.12,0.1159474242,-0.07975575178
1.13,0.1099285536,-0.08723930012
1.14,0.1033179466,-0.09419566267
1.15,0.09616832164,-0.1005768988
1.16,0.08853624111,-0.1063406443
1.17,0.08048149504,-0.1114504183
1.18,0.0720664604,-0.1158758584
1.19,0.06335544501,-0.1195928816
1.2,0.0544140253,-0.1225837717
1.21,0.04530838665,-0.1248371916
1.22,0.03610467516,-0.1263481242
1.23,0.02686836936,-0.1271177437
1.24,0.01766367947,-0.1271532212
1.25,0.008552981734,-0.1264674693
1.26,-0.0004037058264,-0.1250788316
1.27,-0.009149200676,-0.1230107235
1.28,-0.01762958125,-0.1202912303
1.29,-0.02579455711,-0.1169526711
1.3,-0.03359778112,-0.1130311359
1.31,-0.04099710217,-0.1085660027
1.32,-0.04795475798,-0.1035994438
1.33,-0.05443750855,-0.09817592839
1.34,-0.06041671201,-0.09234172839
1.35,-0.06586834521,-0.08614443463
1.36,-0.07077297258,-0.07963249017
1.37,-0.07511566738,-0.07285474571
1.38,-0.07888589008,-0.06586004246
1.39,-0.08207732902,-0.05869682631
1.4,-0.08468770926,-0.05141279649
1.41,-0.08671857512,-0.0440545911
1.42,-0.08817505257,-0.03666751075
1.43,-0.08906559729,-0.02929528088
1.44,-0.08940173406,-0.02197985222
1.45,-0.08919779282,-0.01476123835
1.46,-0.08847064648,-0.007677388301
1.47,-0.08723945477,-0.0007640916579
1.48,-0.08552541807,0.00594508696
1.49,-0.08335154426,0.0124188476
1.5,-0.08074243122,0.01862817272
1.51,-0.07772406644,0.02454632706
1.52,-0.07432364495,0.03014884376
1.53,-0.07056940562,0.0354135007
1.54,-0.06649048539,0.04032029117
1.55,-0.06211679042,0.04485139222
1.56,-0.05747888226,0.04899113407
1.57,-0.05260787704,0.05272597329
1.58,-0.04753535486,0.05604447197
1.59,-0.0422932767,0.05893728443
1.6,-0.03691390548,0.06139715251
1.61,-0.03142972834,0.06341890973
1.62,-0.02587337687,0.06499949403
1.63,-0.02027754227,0.06613796809
1.64,-0.01467488288,0.06683554572
1.65,-0.009097921489,0.0670956223
1.66,-0.003578930748,0.06692380667
1.67,0.001850194945,0.06632795168
1.68,0.007158081754,0.06531818011
1.69,0.01231403319,0.06390690281
1.7,0.01728820094,0.06210882554
1.71,0.02205176869,0.05994094122
1.72,0.02657714716,0.05742250445
1.73,0.03083817829,0.05457498536
1.74,0.03481034551,0.05142200036
1.75,0.03847098691,0.04798921755
1.76,0.04179950776,0.04430423538
1.77,0.04477758808,0.04039643362
1.78,0.04738938137,0.0362967962
1.79,0.04962169996,0.03203770646
1.8,0.0514641829,0.02765271574
1.81,0.05290944195,0.02317628707
1.82,0.05395318198,0.01864351644
1.83,0.05459429193,0.01408983456
1.84,0.05483490323,0.009550692869
1.85,0.05468041297,0.005061237699
1.86,0.05413946967,0.0006559774005
1.87,0.0532239202,-0.003631552884
1.88,0.05194871711,-0.007769123562
1.89,0.05033178635,-0.01172613479
1.9,0.04839385602,-0.01547392725
1.91,0.0461582479,-0.01898607425
1.92,0.04365063362,-0.02223865015
1.93,0.04089875885,-0.0252104704
1.94,0.03793213878,-0.02788329891
1.95,0.03478172939,-0.03024201891
1.96,0.03147957914,-0.03227476411
1.97,0.02805846634,-0.0339730077
1.98,0.02455152772,-0.03533160738
1.99,0.02099188411,-0.03634880531
2,0.01741226892,-0.03702618296
2.01,0.01384466558,-0.03736857134
2.02,0.01031995959,-0.03738391814
2.03,0.006867610726,-0.03708311405
2.04,0.003515350691,-0.03647978119
2.05,0.0002889109325,-0.03559002738
2.06,-0.002788215226,-0.03443217072
2.07,-0.005694972536,-0.03302643919
2.08,-0.008412903048,-0.0313946507
2.09,-0.01092626254,-0.02955987927
2.1,-0.01322209293,-0.02754611326
2.11,-0.0152902502,-0.02537791153
2.12,-0.01712338837,-0.02308006374
2.13,-0.01871690074,-0.02067726046
2.14,-0.02006882041,-0.01819377869
2.15,-0.02117968313,-0.0156531882
2.16,-0.02205235571,-0.01307808316
2.17,-0.02269183437,-0.01048984349
2.18,-0.02310501765,-0.007908429267
2.19,-0.0233004588,-0.005352211145
2.2,-0.02328810335,-0.002837838698
2.21,-0.02307901718,-0.0003801480141
2.22,-0.02268511095,0.002007891085
2.23,-0.02211886639,0.004315188596
2.24,-0.02139307004,0.006532509845
2.25,-0.02052055954,0.008652414934
2.26,-0.01951398729,0.01066916476
2.27,-0.01838560579,0.01257859695
2.28,-0.01714707857,0.0143779755
2.29,-0.01580931955,0.01606581852
2.3,-0.01438236357,0.01764170866
2.31,-0.01287526961,0.01910609128
2.32,-0.01129605768,0.02046006525
2.33,-0.009651679736,0.02170517166
2.34,-0.007948023847,0.02284318526
2.35,-0.006189950624,0.02387591362
2.36,-0.004381359807,0.02480500843
2.37,-0.002525284603,0.02563179306
2.38,-0.0006240107045,0.02635711022
2.39,0.001320783588,0.02698119271
2.4,0.003307869925,0.02750355996
2.41,0.005336299396,0.02792294225
2.42,0.007405223249,0.02823723408
2.43,0.00951370931,0.02844347717
2.44,0.01166055851,0.02853787335
2.45,0.01384412591,0.02851582654
2.46,0.01606215027,0.02837201281
2.47,0.01831159621,0.02810047664
2.48,0.02058851247,0.02769475127
2.49,0.02288790931,0.02714800027
2.5,0.02520365808,0.02645317742
2.51,0.02752841493,0.02560320136
2.52,0.02985357053,0.02459114151
2.53,0.032169227,0.02341041136
2.54,0.03446420266,0.02205496536
2.55,0.03672606482,0.02051949534
2.56,0.03894119001,0.01879962291
2.57,0.04109485094,0.01689208388
2.58,0.0431713287,0.01479490135
2.59,0.04515404826,0.01250754425
2.6,0.04702573528,0.01003106834
2.61,0.04876859141,0.007368237136
2.62,0.05036448536,0.004523620661
2.63,0.05179515669,0.001503670163
2.64,0.05304242888,-0.001683232382
2.65,0.05408842866,-0.005026750878
2.66,0.05491580788,-0.008514598196
2.67,0.05550796486,-0.01213256568
2.68,0.05584926187,-0.01586457858
2.69,0.05592523566,-0.01969277648
2.7,0.05572279807,-0.02359761752
2.71,0.05523042429,-0.02755800474
2.72,0.05443832614,-0.03155143271
2.73,0.05333860852,-0.03555415232
2.74,0.0519254072,-0.03954135134
2.75,0.05019500662,-0.04348734849
2.76,0.04814593665,-0.04736579831
2.77,0.04577904764,-0.05114990438
2.78,0.04309756341,-0.05481263841
2.79,0.04010711209,-0.05832696266
2.8,0.03681573508,-0.06166605335
2.81,0.03323387472,-0.06480352297
2.82,0.02937434116,-0.06771363925
2.83,0.02525225961,-0.07037153914
2.84,0.02088499872,-0.07275343605
2.85,0.01629208153,-0.07483681882
2.86,0.01149507995,-0.07660064145
2.87,0.006517494164,-0.07802550215
2.88,0.001384618134,-0.07909381131
2.89,-0.003876607517,-0.07978994724
2.9,-0.009237754173,-0.08010039954
2.91,-0.01466907427,-0.08001389931
2.92,-0.02013967975,-0.0795215361
2.93,-0.02561772897,-0.07861686122
2.94,-0.03107062119,-0.07729597711
2.95,-0.03646519797,-0.07555761261
2.96,-0.04176795059,-0.07340318376
2.97,-0.04694523296,-0.07083683992
2.98,-0.0519634793,-0.06786549477
2.99,-0.05678942593,-0.0644988418
3,-0.06139033647,-0.06074935384
3.01,-0.0657342297,-0.056632266
3.02,-0.06979010924,-0.05216554148
3.03,-0.07352819407,-0.04736981966
3.04,-0.07692014873,-0.0422683457
3.05,-0.07993931215,-0.03688688114
3.06,-0.08256092338,-0.03125359481
3.07,-0.08476234295,-0.02539893372
3.08,-0.08652326782,-0.01935547326
3.09,-0.08782593819,-0.01315774675
3.1,-0.08865533393,-0.006842054134
3.11,-0.08899935859,-0.0004462500701
3.12,-0.0888490085,0.00599048821
3.13,-0.08819852464,0.01242791247
3.14,-0.087045525,0.01882497349
3.15,-0.08539111481,0.02514010815
3.16,-0.08323997249,0.03133154194
3.17,-0.08060040903,0.03735760475
3.18,-0.07748439881,0.04317705776
3.19,-0.07390757991,0.04874942862
3.2,-0.06988922248,0.05403535198
3.21,-0.06545216381,0.05899691216
3.22,-0.06062270926,0.06359798459
3.23,-0.05543049846,0.06780457212
3.24,-0.04990833678,0.07158513275
3.25,-0.04409199232,0.07491089459
3.26,-0.03801995929,0.07775615438
3.27,-0.03173318915,0.0800985556
3.28,-0.0252747911,0.08191934244
3.29,-0.01868970437,0.08320358599
3.3,-0.0120243449,0.0839403792
3.31,-0.005326229515,0.08412299774
3.32,0.001356418703,0.08374902363
3.33,0.007975080124,0.08282042961
3.34,0.01448135902,0.08134362206
3.35,0.02082741035,0.07932944127
3.36,0.02696636812,0.07679311788
3.37,0.03285277068,0.07375418541
3.38,0.03844297784,0.07023634885
3.39,0.04369557519,0.06626731022
3.4,0.04857176075,0.06187855252
3.41,0.0530357093,0.05710508384
3.42,0.05705491013,0.05198514431
3.43,0.06060047407,0.04655987874
3.44,0.06364740608,0.04087297854
3.45,0.0661748403,0.03497029674
3.46,0.06816623448,0.02889944044
3.47,0.0696095219,0.02270934527
3.48,0.07049721877,0.01644983658
3.49,0.07082648621,0.01017118244
3.5,0.07059914616,0.003923643425
3.51,0.06982165142,-0.002242975742
3.52,0.06850501047,-0.008279767755
3.53,0.06666466828,-0.01413915261
3.54,0.06432034498,-0.01977529128
3.55,0.06149583471,-0.02514447876
3.56,0.05821876737,-0.03020551266
3.57,0.05452033648,-0.03492003363
3.58,0.05043499668,-0.03925283456
3.59,0.04600013475,-0.04317213582
3.6,0.04125571804,-0.04664982447
3.61,0.03624392467,-0.04966165566
3.62,0.03100875963,-0.05218741518
3.63,0.02559566114,-0.05421104243
3.64,0.0200511015,-0.05572071369
3.65,0.0144221866,-0.05670888604
3.66,0.008756257951,-0.05717230265
3.67,0.003100501226,-0.05711196063
3.68,-0.002498435366,-0.05653304304
3.69,-0.00799480949,-0.05544481676
3.7,-0.01334413697,-0.05386049861
3.71,-0.0185035253,-0.05179709182
3.72,-0.02343198618,-0.04927519566
3.73,-0.02809072496,-0.04631879078
3.74,-0.03244340554,-0.04295500304
3.75,-0.03645638944,-0.03921384884
3.76,-0.04009894802,-0.0351279646
3.77,-0.04334344725,-0.03073232338
3.78,-0.04616550476,-0.02606394135
3.79,-0.048544119,-0.02116157684
3.8,-0.05046177081,-0.01606542459
3.81,-0.05190449768,-0.01081680759
3.82,-0.05286194149,-0.005457868966
3.83,-0.05332737039,-3.126599645E-05
3.84,-0.05329767583,0.005420131704
3.85,-0.05277334588,0.01085353797
3.86,-0.05175841595,0.01622653818
3.87,-0.05026039827,0.02149736824
3.88,-0.04829019144,0.026625183
3.89,-0.04586197148,0.03157031315
3.9,-0.04299306574,0.03629450952
3.91,-0.03970381115,0.04076117401
3.92,-0.03601739814,0.0449355766
3.93,-0.03195970166,0.04878505777
3.94,-0.02755910049,0.05227921622
3.95,-0.02284628629,0.05539008141
3.96,-0.01785406331,0.05809227096
3.97,-0.01261713997,0.06036313275
3.98,-0.007171913343,0.06218287174
3.99,-0.001556247278,0.06353466159
4,0.004190754898,0.06440474107
4.01,0.01002898247,0.0647824954
4.02,0.01591755358,0.06466052242
4.03,0.02181505496,0.06403468367
4.04,0.02767978481,0.06290414031
4.05,0.03346999812,0.06127137363
4.06,0.03914415409,0.05914219007
4.07,0.04466116497,0.05652571028
4.08,0.04998064591,0.05343434201
4.09,0.05506316502,0.04988373625
4.1,0.05987049292,0.04589272615
4.11,0.06436585093,0.0414832482
4.12,0.06851415682,0.03668024515
4.13,0.07228226687,0.03151155002
4.14,0.07563921305,0.02600775086
4.15,0.07855643356,0.02020203577
4.16,0.08100799519,0.01413001796
4.17,0.08297080552,0.007829540772
4.18,0.08442481306,0.001340462676
4.19,0.08535319313,-0.005295577342
4.2,0.08574251724,-0.01203541346
4.21,0.08558290388,-0.01883462486
4.22,0.08486814829,-0.02564782458
4.23,0.08359582915,-0.03242896383
4.24,0.08176738989,-0.03913164997
4.25,0.07938819297,-0.04570947605
4.26,0.07646754493,-0.05211635934
4.27,0.07301869112,-0.05830688631
4.28,0.06905877852,-0.06423666089
4.29,0.06460878598,-0.06986265297
4.3,0.05969342121,-0.07514354364
4.31,0.05434098442,-0.08004006379
4.32,0.04858319889,-0.08451532243
4.33,0.04245500917,-0.08853512116
4.34,0.03599434804,-0.0920682513
4.35,0.02924187376,-0.09508677022
4.36,0.02224067977,-0.09756625363
4.37,0.01503597892,-0.09948602071
4.38,0.007674765291,-0.1008293295
4.39,0.0002054564647,-0.1015835396
4.4,-0.00732248024,-0.101740241
4.41,-0.01485891407,-0.1012953463
4.42,-0.0223534458,-0.1002491454
4.43,-0.02975580749,-0.09860632248
4.44,-0.03701626291,-0.09637593368
4.45,-0.0440860048,-0.09357134647
4.46,-0.05091754478,-0.09021014088
4.47,-0.05746509206,-0.08631397354
4.48,-0.06368491732,-0.081908406
4.49,-0.06953569793,-0.07702269912
4.5,-0.07497884153,-0.07168957563
4.51,-0.07997878455,-0.06594495346
4.52,-0.08450326326,-0.05982765262
4.53,-0.08852355477,-0.05337907862
4.54,-0.092014686,-0.04664288591
4.55,-0.09495560903,-0.03966462456
4.56,-0.09732934156,-0.03249137391
4.57,-0.09912307167,-0.02517136685
4.58,-0.1003282265,-0.01775360817
4.59,-0.1009405045,-0.01028749095
4.6,-0.1009598724,-0.002822414274
4.61,-0.1003905265,0.004592594158
4.62,-0.09924082049,0.01190924719
4.63,-0.09752315995,0.01908035613
4.64,-0.09525386675,0.02606017441
4.65,-0.09245301374,0.03280472454
4.66,-0.0891442328,0.03927210568
4.67,-0.08535449828,0.04542278007
4.68,-0.0811138883,0.05121983624
4.69,-0.07645532646,0.05662922765
4.7,-0.07141430655,0.06161998548
4.71,-0.06602860307,0.06616440469
4.72,-0.06033796986,0.07023820261
4.73,-0.05438382979,0.0738206498
4.74,-0.04820895779,0.07689467298
4.75,-0.04185715985,0.07944693
4.76,-0.03537295011,0.08146785736
4.77,-0.02880122853,0.08295169045
4.78,-0.02218696107,0.08389645737
4.79,-0.01557486437,0.08430394684
4.8,-0.009009096868,0.08417965114
4.81,-0.002532958017,0.08353268505
4.82,0.003811402706,0.08237568152
4.83,0.009983265595,0.0807246655
4.84,0.01594360779,0.0785989066
4.85,0.02165535635,0.07602075211
4.86,0.02708362606,0.0730154412
4.87,0.03219594071,0.06961090173
4.88,0.03696243688,0.06583753092
4.89,0.04135604894,0.06172796106
4.9,0.04535267435,0.05731681176
4.91,0.04893131837,0.05264043014
4.92,0.05207421706,0.04773662041
4.93,0.05476693795,0.04264436458
4.94,0.05699845751,0.03740353581
4.95,0.05876121476,0.03205460636
4.96,0.0600511406,0.02663835183
4.97,0.06086766228,0.02119555382
4.98,0.06121368284,0.01576670284
4.99,0.06109553551,0.0103917038
5,0.06052291299,0.005109586057
5.01,0.05950877203,-4.177973549E-05
5.02,0.05806921373,-0.005025955745
5.03,0.05622334036,-0.009808199919
5.04,0.05399308959,-0.01435571561
5.05,0.05140304725,-0.01863788578
5.06,0.0484802401,-0.02262648988
5.07,0.0452539101,-0.02629590147
5.08,0.04175527202,-0.02962326486
5.09,0.03801725636,-0.03258864944
5.1,0.03407423958,-0.03517518007
5.11,0.02996176407,-0.03736914269
5.12,0.02571625004,-0.03916006409
5.13,0.02137470187,-0.04054076529
5.14,0.01697441139,-0.04150738803
5.15,0.01255266052,-0.04205939433
5.16,0.00814642589,-0.0421995391
5.17,0.00379208789,-0.04193381616
5.18,-0.0004748535172,-0.04127137832
5.19,-0.004620053715,-0.04022443207
5.2,-0.008610586915,-0.03880810813
5.21,-0.012415196,-0.03704030886
5.22,-0.01600452669,-0.03494153405
5.23,-0.01935134412,-0.03253468643
5.24,-0.0224307301,-0.0298448589
5.25,-0.02522025932,-0.02689910508
5.26,-0.02770015327,-0.0237261953
5.27,-0.02985341037,-0.02035636015
5.28,-0.03166591137,-0.01682102388
5.29,-0.03312649907,-0.0131525299
5.3,-0.03422703171,-0.009383860925
5.31,-0.03496240953,-0.005548356286
5.32,-0.03533057432,-0.00167942899
5.33,-0.03533248193,0.002189714814
5.34,-0.03497204813,0.006026351276
5.35,-0.03425606825,0.009798506525
5.36,-0.03319411162,0.01347521394
5.37,-0.03179839179,0.01702675842
5.38,-0.0300836141,0.02042490523
5.39,-0.02806680228,0.02364311092
5.4,-0.02576710617,0.02665671438
5.41,-0.02320559267,0.02944310594
5.42,-0.02040502273,0.03198187276
5.43,-0.01738961689,0.03425491945
5.44,-0.01418481246,0.03624656241
5.45,-0.01081701526,0.03794359771
5.46,-0.00731334931,0.03933534184
5.47,-0.003701407303,0.04041364566
5.48,-9.005359064E-06,0.04117288206
5.49,0.003736055122,0.04160990826
5.5,0.007506215508,0.04172400407
5.51,0.01127437521,0.041516788
5.52,0.01501409177,0.04099211312
5.53,0.01869976368,0.04015594519
5.54,0.02230679418,0.03901622563
5.55,0.02581173476,0.03758272225
5.56,0.02919240739,0.03586687061
5.57,0.03242800516,0.03388160912
5.58,0.03549917119,0.03164121086
5.59,0.0383880564,0.02916111513
5.6,0.04107835689,0.02645776143
5.61,0.04355533232,0.02354842852
5.62,0.04580580672,0.02045108088
5.63,0.04781815386,0.01718422453
5.64,0.04958226919,0.01376677385
5.65,0.0510895307,0.0102179307
5.66,0.05233275116,0.006557076505
5.67,0.05330612428,0.002803677932
5.68,0.05400516709,-0.001022794057
5.69,0.05442666105,-0.004902932045
5.7,0.05456859391,-0.008817447732
5.71,0.05443010449,-0.01274721636
5.72,0.05401143188,-0.01667331134
5.73,0.05331387058,-0.02057703083
5.74,0.05233973257,-0.02443991789
5.75,0.05109231703,-0.02824377635
5.76,0.04957588802,-0.03197068428
5.77,0.04779566011,-0.03560300694
5.78,0.04575779147,-0.03912341124
5.79,0.0434693839,-0.04251488349
5.8,0.04093848848,-0.04576075179
5.81,0.03817411588,-0.04884471474
5.82,0.03518624959,-0.05175087725
5.83,0.03198586053,-0.05446379452
5.84,0.02858492125,-0.05696852442
5.85,0.02499641788,-0.05925068861
5.86,0.02123435801,-0.06129654215
5.87,0.01731377271,-0.06309305123
5.88,0.01325071109,-0.06462797798
5.89,0.009062225723,-0.06588997173
5.9,0.004766347752,-0.06686866497
5.91,0.0003820504448,-0.06755477285
5.92,-0.004070799607,-0.0679401944
5.93,-0.008571504277,-0.06801811365
5.94,-0.01309860899,-0.06778309886
5.95,-0.01762999116,-0.06723119784
5.96,-0.02214296164,-0.0663600276
5.97,-0.0266143788,-0.06516885629
5.98,-0.03102077432,-0.0636586758
5.99,-0.03533848966,-0.06183226338
6,-0.03954382203,-0.05969423069
