"Freq [GHz]","re(S(Tx_p1,Tx_p1)) []","im(S(Tx_p1,Tx_p1)) []"
1,0.09577982561,0.07752139241
1.01,0.1020094222,0.0691308995
1.02,0.1075126644,0.06027326405
1.03,0.1122556711,0.05101059621
1.04,0.1162098355,0.04140741858
1.05,0.1193519933,0.03153022053
1.06,0.1216645551,0.02144700068
1.07,0.123135599,0.01122680099
1.08,0.1237589261,0.000939235187
1.09,0.123534076,-0.009345984946
1.1,0.1224663032,-0.01955952255
1.11,0.1205665151,-0.02963288448
1.12,0.117851171,-0.03949888287
1.13,0.1143421434,-0.04909208621
1.14,0.1100665424,-0.05834925683
1.15,0.1050565047,-0.06720977187
1.16,0.0993489481,-0.07561602457
1.17,0.09298529337,-0.0835138032
1.18,0.08601115623,-0.0908526449
1.19,0.07847601043,-0.09758616181
1.2,0.07043282518,-0.1036723372
1.21,0.06193767932,-0.1090737894
1.22,0.05304935501,-0.1137580015
1.23,0.04382891419,-0.1176975153
1.24,0.03433926078,-0.120870088
1.25,0.02464469212,-0.1232588102
1.26,0.01481044306,-0.1248521852
1.27,0.004902226306,-0.1256441678
1.28,-0.005014227466,-0.1256341639
1.29,-0.01487362594,-0.12482699
1.3,-0.02461156452,-0.1232327939
1.31,-0.03416496492,-0.1208669365
1.32,-0.04347249992,-0.1177498377
1.33,-0.05247500059,-0.1139067859
1.34,-0.06111584318,-0.1093677153
1.35,-0.06934131263,-0.1041669508
1.36,-0.07710094032,-0.09834292592
1.37,-0.08434781346,-0.09193787339
1.38,-0.09103885443,-0.08499749411
1.39,-0.09713506834,-0.07757060584
1.4,-0.1026017571,-0.06970877598
1.41,-0.1074087012,-0.0614659402
1.42,-0.1115303038,-0.05289801297
1.43,-0.1149457038,-0.04406249016
1.44,-0.1176388517,-0.03501804903
1.45,-0.1195985534,-0.0258241479
1.46,-0.1208184795,-0.01654062865
1.47,-0.121297143,-0.00722732488
1.48,-0.1210378468,0.002056322201
1.49,-0.1200486014,0.01125163715
1.5,-0.1183420145,0.02030107144
1.51,-0.1159351562,0.02914855022
1.52,-0.1128493991,0.03773980382
1.53,-0.1091102365,0.04602268142
1.54,-0.104747081,0.0539474475
1.55,-0.09979304426,0.061467059
1.56,-0.09428470031,0.06853742325
1.57,-0.08826183396,0.075117636
1.58,-0.08176717591,0.08117019928
1.59,-0.07484612586,0.08666121922
1.6,-0.06754646503,0.09156058301
1.61,-0.05991805921,0.09584211592
1.62,-0.05201255331,0.09948371746
1.63,-0.04388305843,0.1024674771
1.64,-0.03558383225,0.1047797693
1.65,-0.02716995346,0.106411327
1.66,-0.01869699114,0.1073572948
1.67,-0.01022066966,0.1076172592
1.68,-0.001796530141,0.1071952573
1.69,0.006520410765,0.1060997624
1.7,0.01467600365,0.1043436453
1.71,0.02261730947,0.1019441119
1.72,0.03029294165,0.09892261494
1.73,0.03765340548,0.0953047397
1.74,0.04465143294,0.09112006283
1.75,0.05124231102,0.08640198369
1.76,0.05738420088,0.08118752767
1.77,0.06303844564,0.07551712124
1.78,0.06816986382,0.06943433878
1.79,0.07274702555,0.06298562147
1.8,0.07674250853,0.05621996891
1.81,0.08013313061,0.04918860459
1.82,0.08290015583,0.04194461654
1.83,0.08502947077,0.03454257531
1.84,0.08651172838,0.02703813136
1.85,0.08734245626,0.01948759488
1.86,0.08752212698,0.01194750111
1.87,0.08705618815,0.004474164872
1.88,0.08595505037,-0.002876771743
1.89,0.08423403151,-0.01005079421
1.9,0.08191325667,-0.01699496838
1.91,0.07901751302,-0.02365838639
1.92,0.07557606002,-0.02999260092
1.93,0.07162239556,-0.03595204264
1.94,0.0671939795,-0.04149441606
1.95,0.06233191666,-0.04658106879
1.96,0.05708060162,-0.05117732969
1.97,0.05148732888,-0.05525281137
1.98,0.04560187187,-0.05878167318
1.99,0.03947603515,-0.06174284092
2,0.03316318468,-0.06412018027
2.01,0.02671776112,-0.0659026214
2.02,0.02019478157,-0.06708423266
2.03,0.0136493365,-0.06766424297
2.04,0.007136085011,-0.06764701033
2.05,0.0007087580912,-0.06704193936
2.06,-0.005580327091,-0.06586334661
2.07,-0.01168073492,-0.06413027636
2.08,-0.01754435576,-0.06186626891
2.09,-0.02312582187,-0.05909908439
2.1,-0.02838288997,-0.05586038589
2.11,-0.03327678618,-0.05218538588
2.12,-0.03777250961,-0.04811246091
2.13,-0.04183909139,-0.04368273937
2.14,-0.04544980687,-0.03893966803
2.15,-0.04858233902,-0.03392856291
2.16,-0.05121889223,-0.02869615024
2.17,-0.05334625618,-0.02329010332
2.18,-0.05495582019,-0.01775858119
2.19,-0.05604353927,-0.01214977444
2.2,-0.05660985368,-0.006511463684
2.21,-0.05665956441,-0.0008905955257
2.22,-0.05620166774,0.004667119322
2.23,-0.05524915204,0.01011758179
2.24,-0.05381876111,0.01541865047
2.25,-0.05193072793,0.02053045502
2.26,-0.04960848345,0.0254156745
2.27,-0.04687834501,0.03003977903
2.28,-0.04376918899,0.0343712335
2.29,-0.04031211244,0.03838166293
2.3,-0.03654008804,0.04204597946
2.31,-0.03248761703,0.04534247164
2.32,-0.02819038403,0.04825285699
2.33,-0.02368491769,0.05076229952
2.34,-0.01900826062,0.05285939408
2.35,-0.01419765182,0.05453611975
2.36,-0.009290224199,0.05578776494
2.37,-0.00432271961,0.05661282681
2.38,0.0006687767919,0.0570128879
2.39,0.005649081385,0.05699247304
2.4,0.01058413505,0.05655888926
2.41,0.01544120364,0.05572205192
2.42,0.0201890556,0.05449429966
2.43,0.02479811684,0.052890201
2.44,0.02924060312,0.05092635519
2.45,0.03349063057,0.04862118946
2.46,0.0375243051,0.04599475517
2.47,0.04131979174,0.04306852451
2.48,0.04485736491,0.03986518951
2.49,0.0481194409,0.03640846507
2.5,0.05109059379,0.03272289689
2.51,0.05375755609,0.0288336758
2.52,0.05610920535,0.02476645892
2.53,0.05813653822,0.02054719866
2.54,0.05983263235,0.01620198015
2.55,0.06119259916,0.01175686686
2.56,0.06221352613,0.007237755636
2.57,0.06289441156,0.002670240655
2.58,0.06323609194,-0.001920513331
2.59,0.0632411629,-0.006509888456
2.6,0.06291389483,-0.01107392186
2.61,0.0622601436,-0.01558940456
2.62,0.06128725748,-0.02003397098
2.63,0.06000398068,-0.02438617942
2.64,0.05842035428,-0.02862558331
2.65,0.05654761532,-0.03273279354
2.66,0.05439809443,-0.0366895318
2.67,0.05198511286,-0.04047867523
2.68,0.04932287938,-0.04408429238
2.69,0.04642638774,-0.04749167076
2.7,0.04331131525,-0.05068733613
2.71,0.03999392314,-0.05365906378
2.72,0.03649095926,-0.05639588215
2.73,0.0328195637,-0.05888806896
2.74,0.02899717808,-0.06112714061
2.75,0.02504145862,-0.06310583469
2.76,0.02097019415,-0.06481808677
2.77,0.01680122896,-0.06625900156
2.78,0.0125523913,-0.06742481928
2.79,0.008241427725,-0.06831287787
2.8,0.00388594368,-0.06892157168
2.81,-0.0004966495193,-0.0692503076
2.82,-0.00488918108,-0.06929945926
2.83,-0.00927476051,-0.06907032021
2.84,-0.01363681081,-0.06856505703
2.85,-0.01795909528,-0.06778666299
2.86,-0.02222573813,-0.06673891342
2.87,-0.02642123944,-0.06542632333
2.88,-0.03053048478,-0.06385410826
2.89,-0.0345387504,-0.06202814896
2.9,-0.03843170438,-0.05995496062
2.91,-0.04219540487,-0.05764166713
2.92,-0.04581629627,-0.05509598084
2.93,-0.04928120424,-0.05232618807
2.94,-0.05257733077,-0.04934114063
2.95,-0.05569225039,-0.04615025316
2.96,-0.0586139085,-0.04276350633
2.97,-0.06133062322,-0.03919145539
2.98,-0.06383109157,-0.03544524359
2.99,-0.06610440125,-0.0315366198
3,-0.06814004882,-0.02747795943
3.01,-0.06992796522,-0.02328228756
3.02,-0.07145854926,-0.01896330313
3.03,-0.07272270973,-0.01453540283
3.04,-0.07371191633,-0.01001370322
3.05,-0.07441825968,-0.005414059564
3.06,-0.07483452037,-0.0007530797376
3.07,-0.07495424647,0.00395186847
3.08,-0.07477183925,0.008682658224
3.09,-0.07428264603,0.01342041436
3.1,-0.07348305908,0.01814553544
3.11,-0.07237061936,0.02283772859
3.12,-0.0709441233,0.02747605832
3.13,-0.06920373089,0.03203901044
3.14,-0.06715107309,0.03650457182
3.15,-0.06478935617,0.04085032666
3.16,-0.06212346088,0.04505356938
3.17,-0.05916003376,0.0490914341
3.18,-0.05590756828,0.05294104036
3.19,-0.05237647319,0.05657965413
3.2,-0.04857912576,0.05998486309
3.21,-0.04452990738,0.06313476454
3.22,-0.0402452196,0.06600816413
3.23,-0.03574347844,0.06858478306
3.24,-0.03104508542,0.07084547131
3.25,-0.02617237388,0.07277242402
3.26,-0.02114952967,0.07434939792
3.27,-0.01600248554,0.07556192455
3.28,-0.01075878919,0.07639751699
3.29,-0.005447445184,0.07684586648
3.3,-9.873162713E-05,0.07689902557
3.31,0.005256007212,0.07655157444
3.32,0.01058459053,0.07580076702
3.33,0.01585425071,0.07464665397
3.34,0.02103190046,0.07309217969
3.35,0.02608441441,0.07114325088
3.36,0.03097892175,0.06880877475
3.37,0.03568310633,0.06610066489
3.38,0.04016551013,0.06303381425
3.39,0.0443958364,0.05962603403
3.4,0.04834524799,0.0558979586
3.41,0.05198665697,0.05187291708
3.42,0.05529500125,0.04757677229
3.43,0.05824750442,0.04303772873
3.44,0.06082391496,0.03828611168
3.45,0.06300672138,0.03335411986
3.46,0.06478134024,0.02827555464
3.47,0.06613627422,0.0230855292
3.48,0.06706323813,0.01782016118
3.49,0.06755725091,0.01251625299
3.5,0.06761669263,0.007210963695
3.51,0.06724332557,0.001941476844
3.52,0.06644227941,-0.003255331466
3.53,0.06522200092,-0.008343220087
3.54,0.06359416908,-0.0132869017
3.55,0.06157357717,-0.01805234916
3.56,0.05917798381,-0.02260708553
3.57,0.05642793541,-0.02692045461
3.58,0.05334656269,-0.03096386873
3.59,0.04995935465,-0.03471103147
3.6,0.04629391313,-0.03813813306
3.61,0.04237969183,-0.04122401687
3.62,0.03824772323,-0.04395031593
3.63,0.03393033739,-0.04630155889
3.64,0.02946087619,-0.04826524517
3.65,0.02487340675,-0.04983188997
3.66,0.02020243746,-0.05099503972
3.67,0.01548263973,-0.05175125941
3.68,0.01074857861,-0.05210009336
3.69,0.006034454701,-0.05204400143
3.7,0.00137385977,-0.05158827288
3.71,-0.00320045222,-0.05074092033
3.72,-0.007656777068,-0.04951255625
3.73,-0.01196465429,-0.04791625487
3.74,-0.01609504239,-0.04596740179
3.75,-0.0200204752,-0.04368353418
3.76,-0.02371519936,-0.0410841738
3.77,-0.02715529326,-0.03819065534
3.78,-0.03031876835,-0.03502595202
3.79,-0.03318565347,-0.03161450036
3.8,-0.03573806355,-0.02798202576
3.81,-0.03796025385,-0.02415537021
3.82,-0.03983866099,-0.02016232307
3.83,-0.04136193234,-0.0160314558
3.84,-0.04252094496,-0.01179196097
3.85,-0.04330881542,-0.007473495847
3.86,-0.04372090177,-0.003106030563
3.87,-0.04375479853,0.001280299462
3.88,-0.04341032579,0.005655337147
3.89,-0.0426895129,0.00998904396
3.9,-0.04159657737,0.01425163733
3.91,-0.04013789911,0.01841372584
3.92,-0.03832199025,0.02244644291
3.93,-0.03615946012,0.02632157946
3.94,-0.03366297533,0.03001171611
3.95,-0.03084721424,0.03349035526
3.96,-0.02772881534,0.03673205335
3.97,-0.02432631869,0.03971255316
3.98,-0.02066009969,0.04240891633
3.99,-0.01675229436,0.04479965537
4,-0.01262671524,0.04686486499
4.01,-0.008308757333,0.04858635174
4.02,-0.00382529316,0.04994776111
4.03,0.0007954433254,0.05093470106
4.04,0.005523984549,0.05153486062
4.05,0.01032976895,0.05173812216
4.06,0.01518129247,0.05153666601
4.07,0.02004627158,0.05092506578
4.08,0.02489181758,0.04990037287
4.09,0.02968462116,0.04846218869
4.1,0.03439114664,0.04661272311
4.11,0.03897783447,0.0443568378
4.12,0.04341131086,0.04170207321
4.13,0.04765860281,0.03865865819
4.14,0.05168735704,0.03523950122
4.15,0.05546606098,0.03146016282
4.16,0.05896426379,0.02733880841
4.17,0.0621527957,0.02289614163
4.18,0.06500398347,0.01815531803
4.19,0.06749186017,0.01314183939
4.2,0.06959236726,0.007883429122
4.21,0.07128354722,0.002409889566
4.22,0.07254572483,-0.003247058106
4.23,0.07336167567,-0.009053950168
4.24,0.07371678019,-0.01497577165
4.25,0.07359916207,-0.02097616127
4.26,0.07299980978,-0.02701762861
4.27,0.07191268019,-0.03306178183
4.28,0.07033478348,-0.0390695645
4.29,0.06826624878,-0.04500149974
4.3,0.0657103698,-0.0508179401
4.31,0.06267363039,-0.05647932146
4.32,0.05916570957,-0.06194641934
4.33,0.05519946614,-0.06718060597
4.34,0.05079090279,-0.07214410649
4.35,0.04595911004,-0.07680025286
4.36,0.04072618998,-0.08111373382
4.37,0.03511716046,-0.08505083949
4.38,0.02915983991,-0.08857969931
4.39,0.02288471345,-0.0916705117
4.4,0.0163247807,-0.0942957643
4.41,0.009515386058,-0.09643044346
4.42,0.002494031948,-0.09805223156
4.43,-0.004699823966,-0.09914169101
4.44,-0.01202498699,-0.09968243375
4.45,-0.01943875798,-0.09966127489
4.46,-0.02689717945,-0.09906836944
4.47,-0.03435529392,-0.09789733095
4.48,-0.04176741354,-0.09614533081
4.49,-0.04908739963,-0.09381317745
4.5,-0.05626895069,-0.09090537401
4.51,-0.06326589743,-0.08743015394
4.52,-0.07003250333,-0.08339949339
4.53,-0.07652376873,-0.07882909966
4.54,-0.08269573689,-0.07373837528
4.55,-0.08850579995,-0.06815035681
4.56,-0.09391300269,-0.06209162841
4.57,-0.09887834216,-0.05559220964
4.58,-0.1033650608,-0.04868541765
4.59,-0.1073389309,-0.04140770389
4.6,-0.1107685281,-0.03379846563
4.61,-0.1136254916,-0.02589983304
4.62,-0.1158847689,-0.01775643251
4.63,-0.1175248426,-0.009415127283
4.64,-0.1185279374,-0.0009247366951
4.65,-0.1188802049,0.007664264466
4.66,-0.1185718839,0.01630006484
4.67,-0.1175974357,0.0249298516
4.68,-0.1159556505,0.03350015975
4.69,-0.1136497258,0.04195723316
4.7,-0.1106873126,0.05024739503
4.71,-0.1070805319,0.05831742496
4.72,-0.102845957,0.06611494004
4.73,-0.09800456361,0.07358877688
4.74,-0.09258164555,0.08068937184
4.75,-0.08660669769,0.08736913627
4.76,-0.08011326479,0.09358282379
4.77,-0.07313875749,0.09928788647
4.78,-0.06572423613,0.1044448171
4.79,-0.05791416322,0.109017474
4.8,-0.04975612602,0.1129733866
4.81,-0.0413005309,0.1162840371
4.82,-0.03260027105,0.1189251175
4.83,-0.02371037001,0.1208767586
4.84,-0.01468760317,0.1221237274
4.85,-0.005590099841,0.1226555935
4.86,0.003523071169,0.1224668598
4.87,0.0125923295,0.1215570571
4.88,0.02155802157,0.1199308011
4.89,0.03036086578,0.1175978104
4.9,0.03894240125,0.1145728845
4.91,0.0472454363,0.1108758417
4.92,0.05521449312,0.106531416
4.93,0.06279624472,0.1015691138
4.94,0.06993994049,0.09602303019
4.95,0.0765978165,0.08993162607
4.96,0.08272548682,0.08333746757
4.97,0.08828231225,0.07628692844
4.98,0.09323174273,0.06882985814
4.99,0.09754163034,0.06101921762
5,0.1011845093,0.05291068537
5.01,0.1041378405,0.04456223687
5.02,0.1063842171,0.03603370064
5.03,0.1079115298,0.02738629449
5.04,0.1087130888,0.01868214584
5.05,0.1087877016,0.009983800203
5.06,0.1081397043,0.001353722084
5.07,0.106778947,-0.007146207306
5.08,0.1047207317,-0.01545519092
5.09,0.1019857027,-0.02351401079
5.1,0.0985996918,-0.03126551242
5.11,0.09459351651,-0.03865507403
5.12,0.09000273536,-0.04563105627
5.13,0.08486736057,-0.05214522803
5.14,0.07923153115,-0.05815316435
5.15,0.07314314909,-0.06361461241
5.16,0.06665348178,-0.06849382216
5.17,0.05981673426,-0.07275983825
5.18,0.05268959517,-0.07638675051
5.19,0.04533076046,-0.07935390036
5.2,0.03780043948,-0.08164604122
5.21,0.03015984775,-0.08325345137
5.22,0.02247069136,-0.08417199802
5.23,0.01479464775,-0.0844031521
5.24,0.007192847681,-0.08395395362
5.25,-0.0002746366734,-0.08283692788
5.26,-0.007549292754,-0.08106995356
5.27,-0.01457465312,-0.07867608384
5.28,-0.02129676087,-0.07568332251
5.29,-0.02766461072,-0.07212435727
5.3,-0.0336305617,-0.06803625281
5.31,-0.03915071764,-0.06346010695
5.32,-0.0441852722,-0.05844067303
5.33,-0.04869881521,-0.05302595245
5.34,-0.05266059791,-0.04726676135
5.35,-0.05604475466,-0.04121627567
5.36,-0.05883047959,-0.03492955906
5.37,-0.06100215676,-0.0284630783
5.38,-0.06254944308,-0.02187421073
5.39,-0.06346730377,-0.01522074864
5.4,-0.06375600037,-0.008560405149
5.41,-0.06342103212,-0.00195032625
5.42,-0.06247303173,0.004553386409
5.43,-0.06092761717,0.01089613775
5.44,-0.05880520147,0.01702528235
5.45,-0.05613076287,0.02289054441
5.46,-0.05293357823,0.0284444113
5.47,-0.04924692257,0.03364249712
5.48,-0.04510773831,0.03844387363
5.49,-0.04055627761,0.0428113661
5.5,-0.03563572186,0.04671181175
5.51,-0.03039178197,0.05011627944
5.52,-0.02487228367,0.05300024913
5.53,-0.01912674197,0.0553437505
5.54,-0.01320592854,0.05713146018
5.55,-0.007161436462,0.05835275775
5.56,-0.001045245998,0.05900174088
5.57,0.005090704677,0.05907720039
5.58,0.01119494009,0.05858255644
5.59,0.01721685601,0.05752575732
5.6,0.02310711258,0.05591914261
5.61,0.02881800906,0.05377927278
5.62,0.03430383746,0.05112672754
5.63,0.03952121246,0.04798587539
5.64,0.04442937548,0.04438461718
5.65,0.04899047104,0.04035410632
5.66,0.05316979365,0.03592844881
5.67,0.05693600417,0.03114438585
5.68,0.06026131433,0.02604096236
5.69,0.06312163895,0.02065918439
5.7,0.06549671535,0.01504166853
5.71,0.06737018978,0.009232286411
5.72,0.06872967115,0.003275807404
5.73,0.06956675233,-0.002782457628
5.74,0.06987699982,-0.008897008581
5.75,0.06965991263,-0.01502250164
5.76,0.06891885159,-0.02111408544
5.77,0.06766094043,-0.02712772544
5.78,0.06589694012,-0.0330205141
5.79,0.06364109837,-0.03875096489
5.8,0.06091097606,-0.04427928808
5.81,0.05772725271,-0.04956764659
5.82,0.05411351314,-0.05458039056
5.83,0.05009601758,-0.05928426912
5.84,0.04570345758,-0.06364861856
5.85,0.0409667001,-0.06764552587
5.86,0.03591852225,-0.07124996724
5.87,0.03059333897,-0.07443992107
5.88,0.02502692628,-0.0771964555
5.89,0.01925614226,-0.0795037904
5.9,0.01331864826,-0.0813493343
5.91,0.007252632452,-0.08272369682
5.92,0.001096537939,-0.08362067718
5.93,-0.005111202598,-0.08403722994
5.94,-0.01133242375,-0.08397340882
5.95,-0.01752947405,-0.08343229015
5.96,-0.02366545079,-0.08241987704
5.97,-0.02970442163,-0.08094498606
5.98,-0.0356116317,-0.07901911782
5.99,-0.04135369514,-0.0766563133
6,-0.04689877022,-0.0738729976
