"Freq [GHz]","re(S(Tx_p1,Tx_p1)) []","im(S(Tx_p1,Tx_p1)) []"
1,0.09387647252,0.08972124917
1.01,0.101161739,0.08177424397
1.02,0.1077686163,0.07324476675
1.03,0.1136494386,0.06419123329
1.04,0.1187616807,0.05467617469
1.05,0.1230683392,0.04476576309
1.06,0.1265382673,0.03452930136
1.07,0.1291464587,0.02403867962
1.08,0.1308742774,0.01336780471
1.09,0.1317096307,0.002592008285
1.1,0.1316470836,-0.008212559939
1.11,0.1306879138,-0.01896954799
1.12,0.1288401071,-0.02960302018
1.13,0.1261182924,-0.04003807235
1.14,0.1225436181,-0.05020143786
1.15,0.1181435717,-0.06002207873
1.16,0.1129517423,-0.06943175622
1.17,0.1070075317,-0.07836557587
1.18,0.1003558139,-0.08676250196
1.19,0.09304654822,-0.0945658367
1.2,0.08513434818,-0.1017236599
1.21,0.07667801167,-0.1081892254
1.22,0.0677400152,-0.1139213096
1.23,0.05838597773,-0.1188845107
1.24,0.04868409888,-0.1230494934
1.25,0.03870457641,-0.1263931782
1.26,0.02851900914,-0.1288988737
1.27,0.01819979047,-0.1305563478
1.28,0.007819499039,-0.1313618401
1.29,-0.002549707425,-0.1313180128
1.3,-0.01283668862,-0.1304338416
1.31,-0.02297190203,-0.1287244467
1.32,-0.0328879607,-0.1262108673
1.33,-0.04252016206,-0.12291978
1.34,-0.05180698162,-0.1188831666
1.35,-0.06069052585,-0.1141379341
1.36,-0.06911693878,-0.1087254924
1.37,-0.07703675777,-0.1026912956
1.38,-0.08440521447,-0.09608435328
1.39,-0.09118247759,-0.08895671802
1.4,-0.09733383577,-0.08136295792
1.41,-0.1028298189,-0.07335962058
1.42,-0.1076462586,-0.06500469715
1.43,-0.1117642875,-0.05635709417
1.44,-0.1151702821,-0.04747612062
1.45,-0.1178557497,-0.03842099772
1.46,-0.1198171658,-0.02925039801
1.47,-0.1210557664,-0.02002201956
1.48,-0.1215773024,-0.01079220049
1.49,-0.1213917612,-0.001615577525
1.5,-0.1205130646,0.007455208398
1.51,-0.1189587502,0.01636975801
1.52,-0.1167496429,0.02508011081
1.53,-0.113909526,0.03354089396
1.54,-0.1104648174,0.04170942604
1.55,-0.1064442588,0.04954577789
1.56,-0.1018786235,0.05701279566
1.57,-0.09680044664,0.06407609117
1.58,-0.09124378469,0.07070400538
1.59,-0.0852440035,0.07686755181
1.6,-0.0788375991,0.08254034631
1.61,-0.07206205026,0.08769853044
1.62,-0.06495570203,0.09232069496
1.63,-0.05755767822,0.09638780989
1.64,-0.04990781922,0.0998831668
1.65,-0.04204664095,0.1027923385
1.66,-0.03401530971,0.10510316
1.67,-0.02585562698,0.1068057336
1.68,-0.01761001792,0.1078924603
1.69,-0.00932151701,0.1083580978
1.7,-0.001033744124,0.1081998437
1.71,0.007209135072,0.1074174433
1.72,0.01536247054,0.1060133175
1.73,0.02338121625,0.1039927071
1.74,0.03122004996,0.1013638281
1.75,0.03883352788,0.09813803243
1.76,0.04617627647,0.0943299659
1.77,0.05320322259,0.08995771838
1.78,0.0598698617,0.08504295712
1.79,0.06613256273,0.07961103685
1.8,0.07194890696,0.07369107917
1.81,0.07727805676,0.06731601476
1.82,0.0820811494,0.06052258249
1.83,0.08632170955,0.05335128
1.84,0.08996607377,0.04584626182
1.85,0.09298381922,0.03805518182
1.86,0.09534818849,0.03002897818
1.87,0.09703650212,0.02182160022
1.88,0.0980305502,0.01348967783
1.89,0.09831695474,0.005092135504
1.9,0.09788749448,-0.003310245826
1.91,0.09673938474,-0.01165531453
1.92,0.0948755052,-0.01988007617
1.93,0.09230456936,-0.02792125685
1.94,0.08904123083,-0.03571589468
1.95,0.08510612214,-0.04320195114
1.96,0.08052582312,-0.05031893378
1.97,0.07533275728,-0.05700852113
1.98,0.06956501561,-0.06321518084
1.99,0.06326610862,-0.06888677168
2,0.05648464865,-0.07397512058
2.01,0.04927396551,-0.07843656598
2.02,0.04169165994,-0.08223245946
2.03,0.03379909984,-0.0853296181
2.04,0.0256608658,-0.08770072095
2.05,0.0173441526,-0.08932464362
2.06,0.008918134409,-0.09018672625
2.07,0.0004533018635,-0.09027897089
2.08,-0.007979220701,-0.08960016549
2.09,-0.01630836885,-0.08815593251
2.1,-0.02446383402,-0.08595870221
2.11,-0.0323767528,-0.08302760995
2.12,-0.03998038104,-0.07938831978
2.13,-0.04721074451,-0.0750727764
2.14,-0.05400725819,-0.07011888894
2.15,-0.06031330673,-0.06457015081
2.16,-0.06607677944,-0.05847520065
2.17,-0.07125055348,-0.05188733022
2.18,-0.07579292014,-0.04486394559
2.19,-0.07966794943,-0.03746598852
2.2,-0.08284578945,-0.02975732552
2.21,-0.08530289768,-0.02180411207
2.22,-0.08702220227,-0.01367414018
2.23,-0.08799319254,-0.005436177016
2.24,-0.08821193853,0.00284069716
2.25,-0.08768104054,0.01108774393
2.26,-0.08640951067,0.01923720682
2.27,-0.08441258878,0.02722292915
2.28,-0.0817114967,0.03498094267
2.29,-0.0783331347,0.04245002056
2.3,-0.07430972554,0.04957218881
2.31,-0.06967841148,0.056293191
2.32,-0.06448081058,0.06256290185
2.33,-0.05876253883,0.0683356861
2.34,-0.05257270518,0.07357069986
2.35,-0.04596338646,0.0782321327
2.36,-0.03898908962,0.08228938952
2.37,-0.03170620841,0.08571721221
2.38,-0.02417248177,0.08849574211
2.39,-0.01644646045,0.090610525
2.4,-0.008586988639,0.0920524614
2.41,-0.0006527062149,0.09281770551
2.42,0.007298422884,0.09290751701
2.43,0.01520955161,0.09232807039
2.44,0.0230253563,0.09109022704
2.45,0.03069240562,0.08920927558
2.46,0.03815948986,0.08670464637
2.47,0.04537790936,0.08359960589
2.48,0.0523017216,0.07992093687
2.49,0.05888794748,0.07569860993
2.5,0.06509673802,0.07096545176
2.51,0.07089150348,0.06575681505
2.52,0.07623900747,0.06011025428
2.53,0.08110942922,0.05406521124
2.54,0.08547639749,0.04766271322
2.55,0.08931699997,0.04094508624
2.56,0.09261177209,0.0339556849
2.57,0.09534466913,0.02673863955
2.58,0.09750302559,0.01933862096
2.59,0.09907750515,0.01180062184
2.6,0.1000620446,0.004169754085
2.61,0.1004537946,-0.003508940062
2.62,0.1002530587,-0.01119066491
2.63,0.09946323352,-0.01883103879
2.64,0.09809074986,-0.02638625461
2.65,0.09614501568,-0.0338132361
2.66,0.09363836047,-0.04106979225
2.67,0.0905859803,-0.04811477231
2.68,0.0870058819,-0.05490822327
2.69,0.08291882413,-0.06141155152
2.7,0.0783482545,-0.06758768964
2.71,0.07332023832,-0.07340126901
2.72,0.06786337791,-0.07881879812
2.73,0.0620087191,-0.08380884597
2.74,0.05578964273,-0.08834222932
2.75,0.04924173862,-0.09239220203
2.76,0.04240266016,-0.09593464401
2.77,0.03531195786,-0.09894824729
2.78,0.0280108909,-0.1014146958
2.79,0.02054221596,-0.1033188356
2.8,0.01294995368,-0.104648832
2.81,0.005279133182,-0.1053963097
2.82,-0.002424483815,-0.105556473
2.83,-0.01011469739,-0.105128202
2.84,-0.01774517987,-0.1041141217
2.85,-0.0252697992,-0.1025206422
2.86,-0.03264295183,-0.1003579661
2.87,-0.03981990115,-0.09764006318
2.88,-0.04675711742,-0.09438460932
2.89,-0.05341261485,-0.09061289044
2.9,-0.05974628132,-0.08634967078
2.91,-0.06572019644,-0.08162302644
2.92,-0.07129893368,-0.07646414536
2.93,-0.07644984227,-0.0709070957
2.94,-0.08114330538,-0.06498856491
2.95,-0.0853529709,-0.05874757264
2.96,-0.08905595182,-0.05222516053
2.97,-0.09223299387,-0.04546406288
2.98,-0.09486860816,-0.0385083621
2.99,-0.0969511675,-0.03140313306
3,-0.0984729655,-0.02419408085
3.01,-0.09943023808,-0.01692717627
3.02,-0.09982314766,-0.009648293384
3.03,-0.09965573089,-0.002402853421
3.04,-0.09893581111,0.004764520842
3.05,-0.09767487756,0.01181033648
3.06,-0.09588793343,0.01869254402
3.07,-0.09359331554,0.02537083005
3.08,-0.09081248867,0.03180688613
3.09,-0.08756981782,0.03796465173
3.1,-0.08389232189,0.04381052918
3.11,-0.07980941263,0.04931356959
3.12,-0.07535262239,0.05444562865
3.13,-0.07055532471,0.05918149222
3.14,-0.06545245115,0.0634989718
3.15,-0.06008020829,0.06737897065
3.16,-0.05447579784,0.07080552174
3.17,-0.04867714335,0.07376579908
3.18,-0.04272262604,0.07625010446
3.19,-0.03665083198,0.07825183194
3.2,-0.030500313,0.07976741256
3.21,-0.02430936222,0.08079624206
3.22,-0.01811580567,0.08134059446
3.23,-0.01195681009,0.08140552437
3.24,-0.005868707116,0.0809987607
3.25,0.0001131666961,0.08013059468
3.26,0.005954614978,0.07881376421
3.27,0.01162271304,0.07706333706
3.28,0.01708592741,0.07489659431
3.29,0.02231422529,0.07233291547
3.3,0.02727917596,0.06939366618
3.31,0.03195404626,0.06610208864
3.32,0.03631389217,0.06248319484
3.33,0.04033564856,0.05856366178
3.34,0.04399821863,0.05437172762
3.35,0.04728256469,0.04993708732
3.36,0.05017180115,0.0452907859
3.37,0.05265129026,0.04046510711
3.38,0.05470874083,0.03549345547
3.39,0.05633430914,0.03041022912
3.4,0.05752070134,0.02525068131
3.41,0.0582632754,0.0200507684
3.42,0.05856014068,0.01484698255
3.43,0.05841225256,0.009676167425
3.44,0.05782349889,0.004575316228
3.45,0.05680077525,-0.0004186487566
3.46,0.05535404528,-0.00526911477
3.47,0.0534963825,-0.009940034611
3.48,0.05124399013,-0.01439619865
3.49,0.04861619516,-0.01860352066
3.5,0.04563541382,-0.02252933479
3.51,0.04232708527,-0.02614270006
3.52,0.03871957142,-0.02941470875
3.53,0.03484402089,-0.03231879403
3.54,0.03073419623,-0.0348310322
3.55,0.02642626375,-0.03693043445
3.56,0.02195854653,-0.0385992231
3.57,0.01737124156,-0.03982308704
3.58,0.0127061031,-0.04059141131
3.59,0.008006094798,-0.04089747613
3.6,0.003315013966,-0.04073862076
3.61,-0.001322907921,-0.04011636828
3.62,-0.005863423937,-0.03903650775
3.63,-0.01026270453,-0.03750913096
3.64,-0.01447777898,-0.03554862156
3.65,-0.01846697971,-0.03317359528
3.66,-0.02219038356,-0.03040679042
3.67,-0.02561024396,-0.02727490888
3.68,-0.02869140809,-0.02380840865
3.69,-0.03140171314,-0.02004124928
3.7,-0.03371235623,-0.01601059287
3.71,-0.03559823259,-0.01175646358
3.72,-0.03703823725,-0.007321369316
3.73,-0.03801552594,-0.002749889936
3.74,-0.03851773123,0.001911763432
3.75,-0.03853713092,0.006616212656
3.76,-0.03807076581,0.01131539507
3.77,-0.03712050518,0.01596105832
3.78,-0.0356930585,0.0205052617
3.79,-0.03379993298,0.02490087792
3.8,-0.03145733688,0.02910208914
3.81,-0.0286860296,0.03306487143
3.82,-0.02551111977,0.03674746158
3.83,-0.02196181373,0.04011080056
3.84,-0.01807111702,0.04311894832
3.85,-0.01387549216,0.0457394646
3.86,-0.009414476949,0.04794375118
3.87,-0.004730267414,0.04970735117
3.88,0.0001327294493,0.05101020173
3.89,0.005128367873,0.05183683683
3.9,0.01020925473,0.05217653765
3.91,0.0153272542,0.05202342865
3.92,0.02043399939,0.05137651799
3.93,0.0254814048,0.05023968198
3.94,0.03042217297,0.04862159371
3.95,0.03521028925,0.04653559682
3.96,0.03980149836,0.04399952631
3.97,0.04415375689,0.04103547864
3.98,0.04822765601,0.03766953456
3.99,0.05198680929,0.03393143826
4,0.0553982009,0.02985423747
4.01,0.05843249002,0.02547388943
4.02,0.06106426797,0.02082883811
4.03,0.06327226537,0.01595956869
4.04,0.06503950721,0.01090814519
4.05,0.06635341453,0.005717737715
4.06,0.06720585236,0.0004321456455
4.07,0.06759312419,-0.004904676945
4.08,0.06751591404,-0.01024908736
4.09,0.06697917803,-0.0155582059
4.1,0.06599198812,-0.02079034735
4.11,0.06456733099,-0.02590542718
4.12,0.06272186618,-0.0308653377
4.13,0.06047564757,-0.03563428988
4.14,0.05785181305,-0.04017911762
4.15,0.0548762474,-0.0444695412
4.16,0.05157722369,-0.04847838799
4.17,0.04798502868,-0.05218176885
4.18,0.0441315776,-0.05555920936
4.19,0.04005002386,-0.05859373582
4.2,0.0357743689,-0.06127191656
4.21,0.03133907733,-0.06358385971
4.22,0.02677870217,-0.06552316907
4.23,0.02212752461,-0.06708686047
4.24,0.01741921252,-0.06827524119
4.25,0.01268650113,-0.06909175555
4.26,0.007960899302,-0.06954280017
4.27,0.003272424027,-0.06963751243
4.28,-0.001350634732,-0.06938753622
4.29,-0.005881916992,-0.06880676876
4.3,-0.01029716237,-0.06791109276
4.31,-0.01457434559,-0.06671809797
4.32,-0.01869377768,-0.06524679621
4.33,-0.02263817301,-0.06351733382
4.34,-0.02639268277,-0.06155070552
4.35,-0.02994489606,-0.0593684733
4.36,-0.03328480983,-0.05699249382
4.37,-0.03640476963,-0.05444465771
4.38,-0.03929938309,-0.0517466436
4.39,-0.04196540861,-0.04891968974
4.4,-0.0444016219,-0.04598438551
4.41,-0.04660866313,-0.04296048484
4.42,-0.04858886775,-0.03986674329
4.43,-0.05034608423,-0.0367207801
4.44,-0.05188548179,-0.03353896604
4.45,-0.05321335158,-0.03033633767
4.46,-0.05433690459,-0.02712653813
4.47,-0.05526406948,-0.02392178417
4.48,-0.05600329359,-0.02073285874
4.49,-0.05656335021,-0.01756912816
4.5,-0.05695315478,-0.01443858239
4.51,-0.057181593,-0.01134789681
4.52,-0.0572573628,-0.008302513323
4.53,-0.05718883262,-0.005306738617
4.54,-0.05698391751,-0.002363857008
4.55,-0.05664997449,0.0005237447623
4.56,-0.05619371812,0.003354443635
4.57,-0.05562115702,0.006127240005
4.58,-0.05493755136,0.008841614143
4.59,-0.05414739132,0.011497382
4.6,-0.05325439591,0.01409455314
4.61,-0.05226153126,0.01663319344
4.62,-0.05117104731,0.01911329478
4.63,-0.04998453127,0.02153465406
4.64,-0.04870297628,0.02389676332
4.65,-0.04732686341,0.02619871261
4.66,-0.04585625491,0.02843910687
4.67,-0.04429089659,0.03061599792
4.68,-0.0426303274,0.03272683216
4.69,-0.04087399372,0.03476841448
4.7,-0.0390213666,0.03673688849
4.71,-0.0370720597,0.03862773293
4.72,-0.03502594612,0.04043577402
4.73,-0.03288327219,0.0421552131
4.74,-0.03064476669,0.04377966903
4.75,-0.02831174389,0.04530223439
4.76,-0.02588619903,0.04671554458
4.77,-0.02337089491,0.04801185889
4.78,-0.02076943863,0.04918315233
4.79,-0.01808634728,0.0502212172
4.8,-0.01532710183,0.05111777312
4.81,-0.01249818827,0.05186458443
4.82,-0.009607125316,0.05245358354
4.83,-0.006662478083,0.0528769991
4.84,-0.003673857036,0.05312748748
4.85,-0.0006519017657,0.05319826622
4.86,0.002391750837,0.0530832479
4.87,0.005444514355,0.05277717285
4.88,0.00849291676,0.05227573898
4.89,0.01152268053,0.05157572703
4.9,0.01451881886,0.05067511922
4.91,0.01746574768,0.04957320945
4.92,0.0203474129,0.04827070302
4.93,0.02314743211,0.04676980376
4.94,0.0258492496,0.04507428661
4.95,0.0284363034,0.04318955352
4.96,0.03089220251,0.0411226709
4.97,0.03320091235,0.03888238681
4.98,0.03534694607,0.03647912629
4.99,0.03731555914,0.0339249637
5,0.03909294414,0.03123357096
5.01,0.04066642285,0.02842014128
5.02,0.04202463219,0.02550128822
5.03,0.04315770069,0.02249492033
5.04,0.04405741211,0.01942009238
5.05,0.04471735275,0.01629683446
5.06,0.04513303939,0.01314596087
5.07,0.04530202477,0.009988861119
5.08,0.04522397802,0.006847276034
5.09,0.04490073774,0.003743062167
5.1,0.04433633598,0.0006979481823
5.11,0.04353699178,-0.002266712802
5.12,0.0425110738,-0.005130190777
5.13,0.04126903174,-0.007872622033
5.14,0.03982329733,-0.0104752437
5.15,0.03818815612,-0.01292061546
5.16,0.03637959181,-0.01519282439
5.17,0.03441510569,-0.01727766939
5.18,0.03231351419,-0.01916282164
5.19,0.03009472789,-0.02083795856
5.2,0.02777951597,-0.02229486881
5.21,0.02538926015,-0.02352752665
5.22,0.02294570253,-0.02453213475
5.23,0.02047069172,-0.02530713501
5.24,0.01798593169,-0.02585318768
5.25,0.01551273758,-0.02617311977
5.26,0.01307180261,-0.02627184431
5.27,0.0106829797,-0.02615625261
5.28,0.008365081245,-0.02583508212
5.29,0.006135699791,-0.02531876307
5.3,0.004011051978,-0.02461924711
5.31,0.002005847486,-0.02374982182
5.32,0.0001331841175,-0.02272491471
5.33,-0.001595530408,-0.0215598906
5.34,-0.003170629991,-0.02027084622
5.35,-0.004584215593,-0.0188744056
5.36,-0.005830155669,-0.01738751969
5.37,-0.006904063145,-0.01582727334
5.38,-0.007803250864,-0.01421070249
5.39,-0.008526667739,-0.01255462367
5.4,-0.009074818112,-0.01087547813
5.41,-0.009449666934,-0.009189191736
5.42,-0.009654533489,-0.007511051859
5.43,-0.009693976376,-0.005855601796
5.44,-0.009573672399,-0.00423655291
5.45,-0.009300291882,-0.00266671429
5.46,-0.00888137275,-0.00115793941
5.47,-0.008325195514,0.0002789110474
5.48,-0.007640661017,0.001633991227
5.49,-0.006837172573,0.002898478244
5.5,-0.005924523822,0.00406456777
5.51,-0.004912793386,0.005125458481
5.52,-0.00381224714,0.006075326814
5.53,-0.002633248683,0.006909293472
5.54,-0.001386178367,0.007623383034
5.55,-8.136110767E-05,0.008214478006
5.56,0.001270997014,0.008680268516
5.57,0.002660863403,0.009019198778
5.58,0.004078425039,0.009230411345
5.59,0.005514126201,0.009313690086
5.6,0.006958698122,0.009269402718
5.61,0.008403180831,0.009098443678
5.62,0.009838937504,0.00880217805
5.63,0.01125766163,0.008382387243
5.64,0.01265137734,0.007841217066
5.65,0.01401243316,0.007181128883
5.66,0.01533348976,0.006404854501
5.67,0.01660750187,0.005515355461
5.68,0.01782769505,0.004515787415
5.69,0.01898753787,0.003409470281
5.7,0.02008071013,0.00219986482
5.71,0.02110106783,0.0008905562987
5.72,0.02204260613,-0.0005147541937
5.73,0.02289942091,-0.002012250271
5.74,0.0236656705,-0.00359799223
5.75,0.02433553863,-0.005267900235
5.76,0.02490320012,-0.007017728654
5.77,0.02536279071,-0.008843031672
5.78,0.02570838262,-0.01073912054
5.79,0.0259339673,-0.01270101311
5.8,0.02603344696,-0.01472337648
5.81,0.02600063616,-0.01680046394
5.82,0.02582927488,-0.0189260476
5.83,0.02551305407,-0.02109334836
5.84,0.02504565465,-0.02329496513
5.85,0.02442080047,-0.0255228053
5.86,0.02363232567,-0.02776801877
5.87,0.02267425623,-0.03002093784
5.88,0.02154090551,-0.03227102534
5.89,0.02022698279,-0.03450683344
5.9,0.01872771384,-0.03671597529
5.91,0.0170389718,-0.03888511191
5.92,0.01515741669,-0.04099995612
5.93,0.01308064105,-0.04304529536
5.94,0.01080731942,-0.04500503476
5.95,0.008337358751,-0.04686226167
5.96,0.005672046738,-0.04859933216
5.97,0.0028141951,-0.05019797988
5.98,-0.0002317255498,-0.05163944715
5.99,-0.00345946236,-0.05290463741
6,-0.006860871591,-0.05397428822
