"Freq [GHz]","re(S(Tx_p1,Tx_p1)) []","im(S(Tx_p1,Tx_p1)) []"
1,0.07526570454,0.02056496739
1.01,0.0777195461,0.01573391809
1.02,0.07974273551,0.01065646939
1.03,0.08131373744,0.005373272904
1.04,0.08241492387,-7.304441306E-05
1.05,0.08303278299,-0.005638282315
1.06,0.08315808243,-0.01127709329
1.07,0.08278598261,-0.0169434285
1.08,0.08191609749,-0.02259099815
1.09,0.08055250372,-0.02817373317
1.1,0.07870369352,-0.03364625181
1.11,0.07638247568,-0.03896431382
1.12,0.07360582393,-0.04408526154
1.13,0.07039467598,-0.04896843936
1.14,0.0667736862,-0.05357558564
1.15,0.06277093672,-0.05787119158
1.16,0.05841760856,-0.06182282233
1.17,0.0537476263,-0.06540139561
1.18,0.04879727125,-0.06858141548
1.19,0.04360477768,-0.07134115805
1.2,0.03820991508,-0.07366280795
1.21,0.03265356354,-0.07553254486
1.22,0.02697728874,-0.07694058057
1.23,0.02122292266,-0.07788114753
1.24,0.01543215591,-0.07835244107
1.25,0.00964614716,-0.07835651785
1.26,0.003905154579,-0.07789915412
1.27,-0.001751806344,-0.07698966778
1.28,-0.007287275158,-0.07564070842
1.29,-0.01266562586,-0.07386802034
1.3,-0.0178533113,-0.07169018362
1.31,-0.02281907113,-0.06912833824
1.32,-0.02753410276,-0.06620589653
1.33,-0.03197219522,-0.06294824894
1.34,-0.03610982698,-0.05938246805
1.35,-0.03992622868,-0.05553701509
1.36,-0.0434034142,-0.05144145453
1.37,-0.0465261797,-0.04712617718
1.38,-0.0492820769,-0.04262213906
1.39,-0.05166136212,-0.0379606161
1.4,-0.05365692369,-0.03317297694
1.41,-0.05526419461,-0.02829047649
1.42,-0.05648105009,-0.02334406943
1.43,-0.05730769641,-0.018364245
1.44,-0.05774655357,-0.01338088236
1.45,-0.05780213503,-0.008423125538
1.46,-0.05748092747,-0.003519276733
1.47,-0.05679127306,0.001303293824
1.48,-0.0557432564,0.006018223587
1.49,-0.05434859764,0.01060022125
1.5,-0.05262055299,0.01502512074
1.51,-0.05057382303,0.01926992811
1.52,-0.04822446905,0.02331286389
1.53,-0.04558983691,0.02713340336
1.54,-0.04268848757,0.03071231687
1.55,-0.03954013288,0.03403171221
1.56,-0.03616557516,0.03707508061
1.57,-0.03258664845,0.03982734747
1.58,-0.02882615941,0.04227492874
1.59,-0.02490782557,0.04440579299
1.6,-0.02085620862,0.04620952907
1.61,-0.0166966406,0.04767741873
1.62,-0.01245514082,0.04880251279
1.63,-0.008158321796,0.04957970951
1.64,-0.003833282628,0.05000583294
1.65,0.0004925117185,0.05007970932
1.66,0.004791364707,0.04980223816
1.67,0.009035498048,0.04917645634
1.68,0.01319721547,0.04820759159
1.69,0.01724908022,0.04690310279
1.7,0.02116410479,0.04527270447
1.71,0.02491595133,0.04332837279
1.72,0.02847914019,0.04108433078
1.73,0.03182926425,0.03855701098
1.74,0.0349432058,0.03576499386
1.75,0.03779935283,0.03272892095
1.76,0.04037781138,0.02947138213
1.77,0.04266060991,0.02601677718
1.78,0.04463189265,0.02239115181
1.79,0.04627809798,0.01862200963
1.8,0.04758811858,0.01473810126
1.81,0.04855344014,0.01076919304
1.82,0.04916825575,0.006745817633
1.83,0.0494295534,0.002699009647
1.84,0.04933717468,-0.001339970346
1.85,0.04889384276,-0.005339919953
1.86,0.04810515892,-0.009269983261
1.87,0.04697956673,-0.01309993941
1.88,0.04552828402,-0.01680048743
1.89,0.04376520314,-0.02034352327
1.9,0.04170676053,-0.02370240521
1.91,0.03937177715,-0.02685220391
1.92,0.03678127181,-0.02976993348
1.93,0.03395824991,-0.03243476062
1.94,0.03092747039,-0.03482818878
1.95,0.02771519418,-0.03693421498
1.96,0.02434891752,-0.03873945733
1.97,0.02085709391,-0.04023325172
1.98,0.0172688486,-0.04140771661
1.99,0.01361368945,-0.04225778541
2,0.009921218085,-0.04278120648
2.01,0.006220845437,-0.04297851116
2.02,0.002541515215,-0.04285295095
2.03,-0.0010885609,-0.0424104051
2.04,-0.004642153064,-0.04165926071
2.05,-0.008093244977,-0.04061026748
2.06,-0.01141724475,-0.03927636992
2.07,-0.01459117261,-0.03767251987
2.08,-0.01759382347,-0.03581547265
2.09,-0.020405903,-0.03372357028
2.1,-0.02301013611,-0.03141651527
2.11,-0.0253913474,-0.02891513869
2.12,-0.02753651363,-0.02624116613
2.13,-0.02943478857,-0.02341698511
2.14,-0.03107750138,-0.02046541735
2.15,-0.03245812977,-0.01740949914
2.16,-0.03357224984,-0.01427227275
2.17,-0.03441746488,-0.01107659153
2.18,-0.03499331547,-0.007844940915
2.19,-0.03530117383,-0.004599277174
2.2,-0.03534412521,-0.001360885323
2.21,-0.03512683961,0.001849742896
2.22,-0.03465543675,0.005013010541
2.23,-0.03393734755,0.008110296514
2.24,-0.03298117497,0.01112401665
2.25,-0.03179655716,0.01403766579
2.26,-0.03039403547,0.01683584208
2.27,-0.02878492953,0.01950425546
2.28,-0.02698122143,0.02202972194
2.29,-0.0249954505,0.02440014629
2.3,-0.02284061986,0.02660449527
2.31,-0.02053011531,0.02863276403
2.32,-0.01807763708,0.03047593809
2.33,-0.0154971439,0.03212595353
2.34,-0.01280280922,0.03357565751
2.35,-0.01000898822,0.03481877145
2.36,-0.00713019462,0.03584985863
2.37,-0.004181085499,0.03666429798
2.38,-0.001176452461,0.03725826515
2.39,0.001868782954,0.03762872188
2.4,0.00493957162,0.03777341414
2.41,0.008020739063,0.03769087925
2.42,0.01109698967,0.03738046157
2.43,0.01415291481,0.03684233627
2.44,0.01717300677,0.03607754022
2.45,0.02014167997,0.0350880086
2.46,0.02304330089,0.03387661584
2.47,0.02586222791,0.03244721909
2.48,0.02858286136,0.03080470224
2.49,0.03118970471,0.02895501861
2.5,0.03366743653,0.02690523021
2.51,0.03600099311,0.02466354142
2.52,0.03817566109,0.02223932525
2.53,0.04017717898,0.01964314033
2.54,0.04199184656,0.01688673677
2.55,0.04360664037,0.01398304958
2.56,0.0450093337,0.01094617838
2.57,0.04618861916,0.007791352396
2.58,0.04713423159,0.00453488006
2.59,0.04783706937,0.001194082969
2.6,0.04828931162,-0.002212785921
2.61,0.04848452944,-0.005666639506
2.62,0.04841778866,-0.009147668644
2.63,0.04808574226,-0.01263546797
2.64,0.04748671048,-0.01610917457
2.65,0.04662074673,-0.01954761775
2.66,0.04548968796,-0.02292947828
2.67,0.04409718801,-0.02623345513
2.68,0.0424487329,-0.02943843769
2.69,0.04055163749,-0.03252368111
2.7,0.03841502281,-0.03546898248
2.71,0.03604977418,-0.0382548555
2.72,0.0334684801,-0.04086270115
2.73,0.03068535262,-0.04327497218
2.74,0.02771612986,-0.04547532895
2.75,0.02457796193,-0.04744878467
2.76,0.0212892816,-0.04918183794
2.77,0.01786966132,-0.05066259102
2.78,0.01433965858,-0.05188085206
2.79,0.01072065164,-0.05282822033
2.8,0.007034667566,-0.05349815329
2.81,0.003304205336,-0.05388601501
2.82,-0.0004479441411,-0.05398910561
2.83,-0.004198878504,-0.05380667163
2.84,-0.007925762698,-0.05333989783
2.85,-0.01160600393,-0.05259188091
2.86,-0.01521742069,-0.05156758615
2.87,-0.01873840416,-0.05027378807
2.88,-0.02214807015,-0.04871899656
2.89,-0.02542640051,-0.04691336999
2.9,-0.02855437265,-0.04486861691
2.91,-0.0315140765,-0.04259788833
2.92,-0.03428881834,-0.04011566207
2.93,-0.03686321123,-0.03743762128
2.94,-0.03922325205,-0.03458052857
2.95,-0.04135638543,-0.03156209761
2.96,-0.04325155503,-0.02840086356
2.97,-0.04489924273,-0.02511605364
2.98,-0.04629149671,-0.02172745909
2.99,-0.04742194913,-0.01825530931
3,-0.04828582435,-0.01472014894
3.01,-0.04887993888,-0.01114271842
3.02,-0.04920269371,-0.007543838328
3.03,-0.04925406005,-0.003944297528
3.04,-0.04903555923,-0.000364745239
3.05,-0.04855023749,0.003174413249
3.06,-0.04780263595,0.006653117419
3.07,-0.04679875648,0.01005174925
3.08,-0.04554602338,0.01335122815
3.09,-0.04405324117,0.01653310346
3.1,-0.04233054823,0.01957964471
3.11,-0.04038936633,0.02247393001
3.12,-0.0382423456,0.02519993239
3.13,-0.0359033047,0.02774260442
3.14,-0.03338716573,0.03008796071
3.15,-0.0307098836,0.03222315805
3.16,-0.02788836941,0.03413657292
3.17,-0.02494040758,0.03581787565
3.18,-0.02188456647,0.03725810066
3.19,-0.01874010239,0.03844971211
3.2,-0.015526857,0.03938666387
3.21,-0.01226514821,0.04006445337
3.22,-0.008975654924,0.04048016794
3.23,-0.005679295907,0.04063252319
3.24,-0.002397103541,0.0405218923
3.25,0.0008499070184,0.04015032546
3.26,0.004040872201,0.03952155884
3.27,0.007155217377,0.03864101235
3.28,0.01017279563,0.03751577568
3.29,0.01307402725,0.03615458229
3.3,0.01584003853,0.03456777094
3.31,0.01845279878,0.03276723481
3.32,0.02089525424,0.03076635806
3.33,0.02315145767,0.02857994002
3.34,0.0252066923,0.02622410733
3.35,0.02704758911,0.0237162144
3.36,0.02866223602,0.02107473265
3.37,0.03004027806,0.01831912935
3.38,0.03117300728,0.01546973665
3.39,0.03205344157,0.01254761189
3.4,0.03267639122,0.00957438986
3.41,0.03303851268,0.006572128507
3.42,0.03313834846,0.003563148863
3.43,0.03297635277,0.0005698707447
3.44,0.0325549022,-0.002385354566
3.45,0.03187829119,-0.005280413193
3.46,0.03095271192,-0.008093597637
3.47,0.02978621853,-0.01080377429
3.48,0.02838867578,-0.01339054798
3.49,0.02677169234,-0.01583442185
3.5,0.02494853907,-0.01811695124
3.51,0.02293405291,-0.02022088973
3.52,0.02074452721,-0.0221303261
3.53,0.01839758929,-0.02383081064
3.54,0.01591206647,-0.02530946961
3.55,0.01330784184,-0.02655510663
3.56,0.01060570114,-0.02755828994
3.57,0.007827172257,-0.02831142482
3.58,0.004994359123,-0.02880881034
3.59,0.002129771533,-0.02904668019
3.6,-0.0007438472629,-0.02902322727
3.61,-0.003603693526,-0.02873861209
3.62,-0.006427074841,-0.02819495518
3.63,-0.009191579168,-0.02739631398
3.64,-0.01187523959,-0.02634864479
3.65,-0.01445669344,-0.02505975067
3.66,-0.01691533442,-0.02353921609
3.67,-0.01923145691,-0.02179832957
3.68,-0.0213863913,-0.01984999522
3.69,-0.02336262983,-0.0177086346
3.7,-0.02514394248,-0.01539007987
3.71,-0.02671548231,-0.01291145956
3.72,-0.02806388047,-0.01029107794
3.73,-0.02917733045,-0.007548289125
3.74,-0.03004566196,-0.004703366793
3.75,-0.03066040437,-0.001777370348
3.76,-0.03101484003,0.001207991755
3.77,-0.03110404773,0.004230500946
3.78,-0.03092493634,0.007267569242
3.79,-0.03047626905,0.01029638132
3.8,-0.02975867807,0.01329403766
3.81,-0.02877467004,0.01623769849
3.82,-0.02752862205,0.01910472821
3.83,-0.02602676804,0.02187284017
3.84,-0.02427717553,0.02452024137
3.85,-0.0222897123,0.02702577677
3.86,-0.02007600274,0.02936907274
3.87,-0.01764937341,0.03153067913
3.88,-0.01502478766,0.03349220917
3.89,-0.01221876868,0.03523647646
3.9,-0.009249311063,0.03674762803
3.91,-0.006135780361,0.03801127248
3.92,-0.002898800857,0.03901460192
3.93,0.0004398684823,0.03974650644
3.94,0.003857469557,0.04019767984
3.95,0.007330391701,0.04036071518
3.96,0.01083432861,0.04023018882
3.97,0.01434444475,0.03980273159
3.98,0.01783555013,0.03907708586
3.99,0.02128228218,0.0380541473
4,0.02465929338,0.03673699045
4.01,0.02794144277,0.03513087714
4.02,0.03110398997,0.03324324719
4.03,0.03412278959,0.03108369086
4.04,0.03697448427,0.02866390304
4.05,0.03963669442,0.025997619
4.06,0.04208820275,0.02310053198
4.07,0.04430913172,0.01999019328
4.08,0.04628111199,0.01668589532
4.09,0.04798744041,0.01320853862
4.1,0.04941322557,0.009580483855
4.11,0.05054551984,0.005825390139
4.12,0.05137343625,0.001968040913
4.13,0.05188824921,-0.001965841044
4.14,0.05208347802,-0.005949787902
4.15,0.05195495231,-0.009956788697
4.16,0.05150085875,-0.01395949714
4.17,0.05072176857,-0.01793044354
4.18,0.04962064538,-0.02184224907
4.19,0.04820283339,-0.02566784044
4.2,0.04647602569,-0.02938066328
4.21,0.04445021295,-0.03295489234
4.22,0.04213761283,-0.03636563659
4.23,0.03955258041,-0.03958913759
4.24,0.03671150038,-0.04260295919
4.25,0.03363266181,-0.04538616697
4.26,0.03033611637,-0.04791949563
4.27,0.02684352111,-0.0501855028
4.28,0.0231779672,-0.05216870776
4.29,0.01936379594,-0.05385571359
4.3,0.01542640379,-0.0552353116
4.31,0.01139203804,-0.05629856684
4.32,0.007287585147,-0.05703888379
4.33,0.003140353638,-0.05745205143
4.34,-0.001022146217,-0.05753626726
4.35,-0.005172423831,-0.0572921399
4.36,-0.009283228581,-0.05672267028
4.37,-0.01332776671,-0.05583321153
4.38,-0.01727991262,-0.05463140823
4.39,-0.02111441247,-0.05312711559
4.4,-0.02480707791,-0.05133229962
4.41,-0.02833496817,-0.0492609195
4.42,-0.03167655861,-0.04692879363
4.43,-0.03481189428,-0.04435345097
4.44,-0.03772272709,-0.04155396946
4.45,-0.04039263552,-0.03855080349
4.46,-0.04280712594,-0.03536560245
4.47,-0.04495371513,-0.03202102243
4.48,-0.04682199343,-0.02854053314
4.49,-0.0484036687,-0.02494822228
4.5,-0.04969259104,-0.02126859917
4.51,-0.05068475885,-0.01752639982
4.52,-0.05137830677,-0.01374639516
4.53,-0.05177347619,-0.00995320398
4.54,-0.05187256958,-0.006171112658
4.55,-0.05167988934,-0.002423902361
4.56,-0.05120166262,0.001265314542
4.57,-0.0504459533,0.004874248015
4.58,-0.04942256233,0.008381572937
4.59,-0.04814291793,0.01176706
4.6,-0.04661995683,0.0150116944
4.61,-0.04486799794,0.01809778186
4.62,-0.0429026098,0.02100904172
4.63,-0.0407404729,0.02373068702
4.64,-0.03839923839,0.02624949133
4.65,-0.03589738403,0.02855384256
4.66,-0.0332540688,0.03063378375
4.67,-0.03048898711,0.03248104116
4.68,-0.02762222372,0.03408903982
4.69,-0.02467411033,0.03545290699
4.7,-0.02166508484,0.0365694639
4.71,-0.01861555417,0.03743720634
4.72,-0.01554576149,0.03805627451
4.73,-0.01247565857,0.0384284129
4.74,-0.00942478416,0.03855692081
4.75,-0.006412148854,0.03844659427
4.76,-0.003456127087,0.03810366009
4.77,-0.0005743567659,0.03753570295
4.78,0.002216353144,0.03675158643
4.79,0.004900106782,0.03576136871
4.8,0.007461997134,0.03457621398
4.81,0.009888173329,0.03320830041
4.82,0.01216589952,0.03167072546
4.83,0.01428360555,0.02997740942
4.84,0.01623092956,0.02814299786
4.85,0.01799875303,0.02618276368
4.86,0.01957922861,0.02411250939
4.87,0.0209658009,0.02194846981
4.88,0.02215322117,0.01970721597
4.89,0.02313755604,0.01740556009
4.9,0.02391619083,0.015060462
4.91,0.02448782774,0.01268893688
4.92,0.02485247945,0.01030796442
4.93,0.02501145822,0.007934399201
4.94,0.02496736062,0.005584882253
4.95,0.02472404809,0.00327575348
4.96,0.02428662317,0.001022964929
4.97,0.02366140118,-0.001158005274
4.98,0.02285587722,-0.003252238364
4.99,0.02187868814,-0.005245459731
5,0.02073956893,-0.007124122923
5.01,0.01944930336,-0.008875492603
5.02,0.01801966822,-0.01048772608
5.03,0.01646337089,-0.01194995286
5.04,0.01479397983,-0.01325235165
5.05,0.01302584781,-0.01438622388
5.06,0.01117402756,-0.01534406301
5.07,0.009254180131,-0.01611961859
5.08,0.007282475799,-0.016707954
5.09,0.005275488088,-0.0171054969
5.1,0.003250081312,-0.01731008128
5.11,0.001223292351,-0.01732098009
5.12,-0.0007877924449,-0.01713892752
5.13,-0.002766164213,-0.01676613022
5.14,-0.004695021182,-0.01620626648
5.15,-0.00655789965,-0.0154644732
5.16,-0.008338804903,-0.01454731997
5.17,-0.01002234066,-0.01346277037
5.18,-0.0115938355,-0.01222013037
5.19,-0.01303946489,-0.01082998417
5.2,-0.01434636725,-0.009304117895
5.21,-0.01550275279,-0.007655431895
5.22,-0.01649800388,-0.005897842292
5.23,-0.01732276568,-0.004046172933
5.24,-0.01796902617,-0.002116038748
5.25,-0.01843018468,-0.0001237217183
5.26,-0.0187011083,0.001913959213
5.27,-0.01877817552,0.00397978304
5.28,-0.01865930698,0.006056264878
5.29,-0.01834398294,0.008125796463
5.3,-0.01783324761,0.01017078715
5.31,-0.01712970026,0.01217380449
5.32,-0.01623747354,0.014117713
5.33,-0.01516219919,0.01598580993
5.34,-0.01391096162,0.01776195705
5.35,-0.01249223993,0.01943070722
5.36,-0.01091583891,0.02097742493
5.37,-0.009192809548,0.02238839977
5.38,-0.007335360043,0.02365095217
5.39,-0.005356757754,0.02475353037
5.4,-0.003271223099,0.02568579812
5.41,-0.001093816151,0.02643871236
5.42,0.001159683084,0.02700459025
5.43,0.003472899851,0.02737716507
5.44,0.005828994216,0.02755163043
5.45,0.008210793983,0.02752467253
5.46,0.01060092985,0.02729449001
5.47,0.01298197166,0.02686080126
5.48,0.01533656449,0.02622483911
5.49,0.01764756345,0.02538933281
5.5,0.01989816578,0.02435847752
5.51,0.02207203924,0.02313789159
5.52,0.02415344521,0.02173456203
5.53,0.02612735565,0.02015677871
5.54,0.02797956253,0.01841405812
5.55,0.0296967788,0.01651705742
5.56,0.03126672984,0.0144774799
5.57,0.03267823467,0.01230797284
5.58,0.03392127618,0.01002201909
5.59,0.03498705981,0.007633823632
5.6,0.03586806047,0.005158196393
5.61,0.03655805737,0.002610432815
5.62,0.03705215686,6.193411523E-06
5.63,0.03734680352,-0.002638616265
5.64,0.03743977974,-0.005307964031
5.65,0.03733019439,-0.007985806637
5.66,0.03701846129,-0.01065620145
5.67,0.03650626808,-0.01330341325
5.68,0.03579653661,-0.01591201547
5.69,0.03489337546,-0.01846698502
5.7,0.03380202589,-0.02095379039
5.71,0.03252880193,-0.02335847265
5.72,0.03108102572,-0.02566771899
5.73,0.02946695892,-0.02786892902
5.74,0.02769573111,-0.02995027359
5.75,0.02577726596,-0.03190074651
5.76,0.02372220578,-0.03371020924
5.77,0.02154183519,-0.03536942895
5.78,0.01924800424,-0.03687011022
5.79,0.01685305158,-0.03820492073
5.8,0.01436972785,-0.03936751122
5.81,0.01181111971,-0.04035253016
5.82,0.009190574452,-0.04115563326
5.83,0.006521625705,-0.0417734882
5.84,0.003817920005,-0.04220377461
5.85,0.001093144566,-0.04244517967
5.86,-0.001639043729,-0.04249738919
5.87,-0.004365087973,-0.04236107441
5.88,-0.007071599366,-0.04203787458
5.89,-0.009745423639,-0.04153037515
5.9,-0.01237370558,-0.04084208189
5.91,-0.01494395139,-0.03997739069
5.92,-0.01744408853,-0.03894155333
5.93,-0.01986252286,-0.03774063919
5.94,-0.02218819262,-0.03638149313
5.95,-0.02441061892,-0.03487168962
5.96,-0.02651995251,-0.03321948349
5.97,-0.02850701632,-0.03143375759
5.98,-0.03036334365,-0.02952396768
5.99,-0.03208121167,-0.02750008499
6,-0.03365367,-0.02537253689
