"Freq [GHz]","re(S(Rx_p1,Tx_p1)) []","im(S(Rx_p1,Tx_p1)) []"
1,-0.09707322,-0.04761226546
1.01,-0.1060273621,-0.01657983595
1.02,-0.1054063843,0.015453343
1.03,-0.09542606393,0.04563336327
1.04,-0.07712185881,0.07132424067
1.05,-0.05223945312,0.09033313911
1.06,-0.02306707527,0.1010905288
1.07,0.007773671746,0.1027716687
1.08,0.03755917946,0.09535159393
1.09,0.06369744425,0.07959173923
1.1,0.08394497702,0.05696188044
1.11,0.09659043947,0.02950581421
1.12,0.1005917585,-0.0003371082125
1.13,0.09565736622,-0.0299399028
1.14,0.08226636917,-0.05670914044
1.15,0.06162664455,-0.07830268478
1.16,0.03557397469,-0.09282761283
1.17,0.006419276741,-0.09900311741
1.18,-0.02324530386,-0.09627517919
1.19,-0.05076732037,-0.08487265206
1.2,-0.07366508313,-0.06579816877
1.21,-0.08985005887,-0.04075191911
1.22,-0.09782114757,-0.01199172609
1.23,-0.09681227434,0.01786137669
1.24,-0.08687746195,0.0460571807
1.25,-0.06890217315,0.06997012075
1.26,-0.04453604621,0.08734954077
1.27,-0.01604971804,0.09654166473
1.28,0.01387350363,0.09665969983
1.29,0.04239273511,0.08768244254
1.3,0.06678682899,0.0704683001
1.31,0.08472558231,0.04668021791
1.32,0.09450584293,0.01862669847
1.33,0.09522626555,-0.01096625303
1.34,0.0868805198,-0.03922907266
1.35,0.07035750491,-0.06343939871
1.36,0.04734756558,-0.08129803234
1.37,0.02016453091,-0.09115973524
1.38,-0.008496791388,-0.09219349896
1.39,-0.03584054131,-0.08445507709
1.4,-0.05925585897,-0.06886485308
1.41,-0.07657747031,-0.04709518219
1.42,-0.08629279759,-0.02138174386
1.43,-0.08767452537,0.005718175681
1.44,-0.08082685921,0.0315922273
1.45,-0.0666440987,0.05383445546
1.46,-0.04669021112,0.07047380057
1.47,-0.02301654626,0.0801470912
1.48,0.002059324987,0.08220165918
1.49,0.02618800884,0.07672161516
1.5,0.04721090275,0.06448069385
1.51,0.06334951892,0.04683227363
1.52,0.07334567181,0.02555282462
1.53,0.07654351528,0.002658150491
1.54,0.07291138728,-0.01978770686
1.55,0.06300761937,-0.03985282237
1.56,0.04789922629,-0.05589240803
1.57,0.02904536227,-0.06666832306
1.58,0.008158606005,-0.07142749358
1.59,-0.01294321159,-0.0699378006
1.6,-0.03248333131,-0.0624832678
1.61,-0.04886118,-0.04982263578
1.62,-0.06076892245,-0.03311673906
1.63,-0.0672838481,-0.01383076876
1.64,-0.06793235943,0.00638214972
1.65,-0.06272239063,0.02580930184
1.66,-0.05214206273,0.04281137896
1.67,-0.0371235573,0.05595214851
1.68,-0.01897281683,0.06411609736
1.69,0.0007321228384,0.06660490086
1.7,0.02026865376,0.06320377338
1.71,0.03791450111,0.05420993778
1.72,0.05209877025,0.04041780116
1.73,0.06154582861,0.02305892423
1.74,0.06539786692,0.003699257567
1.75,0.06330273821,-0.01589909914
1.76,0.05545619207,-0.03393982623
1.77,0.04259179175,-0.048762632
1.78,0.0259172169,-0.05900445004
1.79,0.007001668813,-0.06373423896
1.8,-0.01237509015,-0.06254624131
1.81,-0.03039673675,-0.05560077719
1.82,-0.04538903805,-0.04360740094
1.83,-0.05598391528,-0.02775180429
1.84,-0.06125121246,-0.009574338036
1.85,-0.06078419308,0.009186428515
1.86,-0.05473022252,0.02676782522
1.87,-0.04376449081,0.04155590099
1.88,-0.02901112688,0.0522386314
1.89,-0.01192179891,0.05792404622
1.9,0.005873826836,0.05821237773
1.91,0.02272905412,0.05321693845
1.92,0.03713560176,0.04353429903
1.93,0.04785831374,0.03016969404
1.94,0.05403723833,0.01442780773
1.95,0.05524950201,-0.002218220597
1.96,0.05152808611,-0.01826573139
1.97,0.04333904736,-0.032316164
1.98,0.03152242039,-0.04319197001
1.99,0.01720469864,-0.05002814976
2,0.001692305857,-0.05233285051
2.01,-0.01364407964,-0.05001454805
2.02,-0.02748489488,-0.04337608357
2.03,-0.03866830446,-0.03307807512
2.04,-0.0462809362,-0.02007593301
2.05,-0.04972708771,-0.005535947151
2.06,-0.04877224449,0.009263202644
2.07,-0.04355825579,0.0230365262
2.08,-0.03458908388,0.03459895907
2.09,-0.02268774674,0.04296408811
2.1,-0.00892695537,0.0474277753
2.11,0.005462027842,0.04762961984
2.12,0.0191957434,0.04358633198
2.13,0.03105170487,0.03569291895
2.14,0.03997865282,0.02469009176
2.15,0.04519361666,0.01159934585
2.16,0.04625599497,-0.002369535647
2.17,0.04311050382,-0.01593064848
2.18,0.03609358841,-0.02784331961
2.19,0.02590152101,-0.0370305843
2.2,0.0135225226,-0.04268247096
2.21,0.0001393362203,-0.04433299218
2.22,-0.01298780629,-0.04190236993
2.23,-0.0246454531,-0.0356997938
2.24,-0.03378509436,-0.02638646361
2.25,-0.03962253791,-0.01490322476
2.26,-0.04170805734,-0.00237115364
2.27,-0.03996039389,0.01002355524
2.28,-0.03466202411,0.02114750751
2.29,-0.02641764825,0.03002803546
2.3,-0.01608199763,0.03594001427
2.31,-0.004666260477,0.03846342691
2.32,0.006765697631,0.03750735392
2.33,0.0171997651,0.03330016077
2.34,0.02576218196,0.02634946393
2.35,0.03179007128,0.01737848983
2.36,0.03487669709,0.00724736467
2.37,0.03488955015,-0.003131452982
2.38,0.03196247504,-0.01287490172
2.39,0.02646557235,-0.02120098908
2.4,0.01895828537,-0.02748527294
2.41,0.01013182519,-0.03129932572
2.42,0.0007469786945,-0.03243051609
2.43,-0.008427417883,-0.03088418202
2.44,-0.0166711947,-0.02687043802
2.45,-0.02336183882,-0.02077844199
2.46,-0.0280139326,-0.01314104781
2.47,-0.03030801331,-0.004592568233
2.48,-0.0301083054,0.004177925903
2.49,-0.0274689975,0.01247556273
2.5,-0.02262883854,0.01964870658
2.51,-0.01599397606,0.02513572874
2.52,-0.008109299654,0.02850686933
2.53,0.000380834359,0.02949827279
2.54,0.008780741386,0.02803519989
2.55,0.0163976074,0.02424169309
2.56,0.02259790589,0.01843469723
2.57,0.02686137299,0.01110181971
2.58,0.02882749252,0.002863459044
2.59,0.02832963966,-0.005578250596
2.6,0.02541287753,-0.0134995837
2.61,0.02033285099,-0.02021905009
2.62,0.01353512145,-0.02515874994
2.63,0.005616395167,-0.02789707305
2.64,-0.002728870814,-0.02820728879
2.65,-0.01077133092,-0.02607799186
2.66,-0.01781285283,-0.0217132951
2.67,-0.02324929521,-0.01551283782
2.68,-0.02662383619,-0.008033817136
2.69,-0.02766585819,6.092420636E-05
2.7,-0.02631204341,0.0080634236
2.71,-0.0227082638,0.01528376962
2.72,-0.01719280319,0.02110999513
2.73,-0.01026319429,0.02505942852
2.74,-0.002530311432,0.02681736709
2.75,0.005335768032,0.02626034778
2.76,0.0126632555,0.02346279212
2.77,0.01883470868,0.01868722988
2.78,0.02333731993,0.0123595415
2.79,0.02580380026,0.005031642858
2.8,0.02604106779,-0.002665243345
2.81,0.02404486,-0.01007310285
2.82,0.01999932518,-0.01656152558
2.83,0.0142615983,-0.02157997104
2.84,0.007332332578,-0.02470396014
2.85,-0.000185860567,-0.02567151199
2.86,-0.007639140455,-0.02440664256
2.87,-0.01437851526,-0.02102751898
2.88,-0.0198167239,-0.01583793817
2.89,-0.02348094511,-0.009302146351
2.9,-0.02505634402,-0.002004553038
2.91,-0.02441596594,0.005402525984
2.92,-0.02163353646,0.01225852853
2.93,-0.01697727939,0.01795606712
2.94,-0.01088478869,0.02199795066
2.95,-0.003921070245,0.02404382135
2.96,0.003276161697,0.02394133818
2.97,0.01005827279,0.02173843754
2.98,0.0158279848,0.017675307
2.99,0.02009541431,0.01215705654
3,0.02252187923,0.005710340642
3.01,0.02294699112,-0.001070947656
3.02,0.02139664225,-0.007584598514
3.03,0.01807186849,-0.01327696809
3.04,0.01332087538,-0.01769171843
3.05,0.007598419798,-0.02050565541
3.06,0.00141797313,-0.02154882122
3.07,-0.004697501565,-0.02080817148
3.08,-0.01026076311,-0.01841625334
3.09,-0.01485725802,-0.01462798114
3.1,-0.01817123553,-0.009789644684
3.11,-0.02000021216,-0.004304570198
3.12,-0.02025863425,0.001400587393
3.13,-0.01897280676,0.0069059494
3.14,-0.01626977188,0.01182326286
3.15,-0.01236278819,0.01581517188
3.16,-0.007535469813,0.01860964728
3.17,-0.002125697588,0.02001089012
3.18,0.003490615697,0.01990803103
3.19,0.008916655963,0.01828242116
3.2,0.01375388499,0.0152134177
3.21,0.01762425372,0.01088156216
3.22,0.02019571946,0.00556722436
3.23,0.02121018867,-0.000357596589
3.24,0.02051168517,-0.006446383752
3.25,0.01807135745,-0.01220528491
3.26,0.01400520244,-0.01713004138
3.27,0.008580342219,-0.02075051579
3.28,0.002206474058,-0.02267884067
3.29,-0.004589306564,-0.02265574003
3.3,-0.01120392261,-0.0205888013
3.31,-0.01701311158,-0.01657663137
3.32,-0.02143438805,-0.01091400048
3.33,-0.02399114529,-0.004075168723
3.34,-0.02436994691,0.003324660232
3.35,-0.02246325668,0.01058680112
3.36,-0.01839121963,0.01699969303
3.37,-0.01249849858,0.02191471754
3.38,-0.005325272463,0.02481815792
3.39,0.002445127123,0.0253903268
3.4,0.01005632223,0.02354425276
3.41,0.01675867626,0.01943877122
3.42,0.02188932757,0.01346406925
3.43,0.02494293381,0.006201226727
3.44,0.02562477858,-0.001639425313
3.45,0.02388018148,-0.009293708307
3.46,0.01989719986,-0.01602377502
3.47,0.0140829669,-0.02119373381
3.48,0.007017197062,-0.02433227178
3.49,-0.0006110257615,-0.02517576079
3.5,-0.008075401945,-0.02368798445
3.51,-0.01468516578,-0.0200555935
3.52,-0.01985060005,-0.01466125437
3.53,-0.02313492151,-0.008038826384
3.54,-0.02428822066,-0.0008165171637
3.55,-0.02326150888,0.006345308823
3.56,-0.02020124035,0.01281514256
3.57,-0.01542663636,0.01804452107
3.58,-0.009393546136,0.02161114186
3.59,-0.00264934334,0.02324827199
3.6,0.004216491132,0.02285942751
3.61,0.0106217956,0.02051868285
3.62,0.0160375307,0.01645801055
3.63,0.02002714251,0.01104371842
3.64,0.02227747387,0.00474438906
3.65,0.0226199052,-0.001907168109
3.66,0.02104095426,-0.008355454066
3.67,0.01768199555,-0.01406484145
3.68,0.0128281428,-0.01856069193
3.69,0.006886756912,-0.02146652404
3.7,0.0003565588778,-0.02253470514
3.71,-0.006211032143,-0.02166822505
3.72,-0.01225598706,-0.0189313948
3.73,-0.01725610466,-0.01454787587
3.74,-0.02077212345,-0.008885311854
3.75,-0.02248750388,-0.002426967208
3.76,-0.02223894438,0.004267927428
3.77,-0.02003422924,0.01061212533
3.78,-0.01605501278,0.01604249809
3.79,-0.01064354433,0.02007149854
3.8,-0.004273980266,0.02233286525
3.81,0.00248938927,0.02261684074
3.82,0.009043176955,0.02089111594
3.83,0.01480027393,0.01730513801
3.84,0.01924408924,0.0121771558
3.85,0.021976256,0.005965206939
3.86,0.02275310515,-0.0007750599279
3.87,0.0215074283,-0.007441495756
3.88,0.01835362865,-0.0134404288
3.89,0.01357608561,-0.01824019443
3.9,0.007602221835,-0.0214182324
3.91,0.0009631715813,-0.02269759581
3.92,-0.00575402912,-0.02196990655
3.93,-0.01195824914,-0.01930317569
3.94,-0.01710548645,-0.01493431696
3.95,-0.02074524262,-0.009247473105
3.96,-0.02255841067,-0.002740347115
3.97,-0.02238388025,0.004018470254
3.98,-0.02023201593,0.01043766845
3.99,-0.01628414757,0.01595311633
4,-0.01087817526,0.02007569806
4.01,-0.00448131078,0.022433454
4.02,0.002348158827,0.02280473185
4.03,0.009007401556,0.02113956477
4.04,0.01490047214,0.01756719022
4.05,0.01949068034,0.01238851893
4.06,0.02234956554,0.006053452859
4.07,0.02319807232,-0.0008758030164
4.08,0.02193581971,-0.007772965977
4.09,0.01865508311,-0.01400369048
4.1,0.01363727274,-0.01898454771
4.11,0.007331240265,-0.02223943598
4.12,0.0003145515906,-0.02344769892
4.13,-0.006759259064,-0.02247866153
4.14,-0.0132227217,-0.01940837908
4.15,-0.01845970046,-0.01451606716
4.16,-0.02196714786,-0.008259787011
4.17,-0.0234066463,-0.001233263064
4.18,-0.02263990753,0.005892078037
4.19,-0.01974401931,0.01243393044
4.2,-0.01500442563,0.01776769735
4.21,-0.008886140034,0.02138939653
4.22,-0.001986200831,0.02296598651
4.23,0.005027445265,0.02236761991
4.24,0.01148388855,0.01967841237
4.25,0.01677655819,0.01518480856
4.26,0.02042259531,0.00934320426
4.27,0.02210807874,0.002730809503
4.28,0.02171467248,-0.004014480768
4.29,0.01932551879,-0.01025841787
4.3,0.01521061427,-0.01543197275
4.31,0.009794162506,-0.01908385578
4.32,0.003608220038,-0.02091904796
4.33,-0.00276185609,-0.0208202446
4.34,-0.008734187132,-0.018851155
4.35,-0.01378365882,-0.01524257789
4.36,-0.0174868579,-0.01036384665
4.37,-0.01955509569,-0.004683444016
4.38,-0.01985346755,0.001276758794
4.39,-0.01840541782,0.006989073121
4.4,-0.01538363088,0.01196516506
4.41,-0.01108913211,0.01579531507
4.42,-0.005921200846,0.01817913949
4.43,-0.0003410792791,0.01894609241
4.44,0.005167442403,0.01806495971
4.45,0.01013759604,0.01564233854
4.46,0.01415663537,0.01191074464
4.47,0.01689785528,0.007207523048
4.48,0.01814557732,0.001946185777
4.49,0.01781144698,-0.003417806435
4.5,0.01594085216,-0.008424450505
4.51,0.01270882856,-0.01264713485
4.52,0.008405486111,-0.01572824782
4.53,0.003411761772,-0.01740957721
4.54,-0.001832864779,-0.01755481149
4.55,-0.006868244944,-0.01616191862
4.56,-0.01125389021,-0.01336392481
4.57,-0.01460817349,-0.009417608075
4.58,-0.01664270825,-0.00468077384
4.59,-0.01718849784,0.0004200359621
4.6,-0.01621114229,0.005428482596
4.61,-0.01381343838,0.009900305338
4.62,-0.01022499961,0.01344401476
4.63,-0.005779898773,0.01575635209
4.64,-0.0008846209589,0.01664900217
4.65,0.004020361126,0.01606400117
4.66,0.008501448268,0.01407652654
4.67,0.01217111374,0.01088512874
4.68,0.01472166353,0.006790783779
4.69,0.01595052088,0.002167243964
4.7,0.01577503689,-0.002574084995
4.71,0.01423601245,-0.007021178591
4.72,0.01149028324,-0.01079686443
4.73,0.007793724964,-0.01358970307
4.74,0.003476777968,-0.01517796046
4.75,-0.001084979732,-0.01544519387
4.76,-0.005502558822,-0.01438682004
4.77,-0.00940506268,-0.01210778751
4.78,-0.01246875095,-0.008812071746
4.79,-0.01444183374,-0.0047851356
4.8,-0.01516356862,-0.0003707703434
4.81,-0.01457660113,0.004056097762
4.82,-0.01273181776,0.008118929626
4.83,-0.009785292476,0.01146960532
4.84,-0.005987247581,0.01381702805
4.85,-0.001663363914,0.01495225929
4.86,0.002810709588,0.01476811054
4.87,0.007040187686,0.01327122453
4.88,0.01064520903,0.01058499803
4.89,0.01329540395,0.006942276156
4.9,0.01474180365,0.002667587353
4.91,0.01484276309,-0.001850264778
4.92,0.0135807901,-0.006193290663
4.93,0.01106782639,-0.009954034129
4.94,0.007537592296,-0.01277601482
4.95,0.003324995248,-0.01439053007
4.96,-0.001165852729,-0.01464552015
4.97,-0.005501968804,-0.01352284626
4.98,-0.009265929107,-0.01114151929
4.99,-0.01209940541,-0.007746023457
5,-0.01374071288,-0.003680698844
5.01,-0.01405184914,0.0006470713003
5.02,-0.01303171649,0.004810641893
5.03,-0.01081391579,0.008409677715
5.04,-0.007649452088,0.0111120711
5.05,-0.003876618369,0.01268723509
5.06,0.0001180553128,0.01302695661
5.07,0.003942823377,0.01215166527
5.08,0.007242376717,0.01020191436
5.09,0.009733155591,0.007416792593
5.1,0.01122840253,0.004102606686
5.11,0.01165058705,0.0005962624918
5.12,0.01103064128,-0.002771815607
5.13,0.009495226226,-0.005710684105
5.14,0.007244733522,-0.007994180321
5.15,0.004525708928,-0.009476279136
5.16,0.001601742211,-0.01009584544
5.17,-0.001273406372,-0.00987164908
5.18,-0.003877485789,-0.008889743973
5.19,-0.006034455851,-0.007286080328
5.2,-0.007621731774,-0.005227436315
5.21,-0.008570696382,-0.002893440263
5.22,-0.008862107916,-0.0004617177075
5.23,-0.008518504699,0.001902783417
5.24,-0.007595710665,0.004054252125
5.25,-0.006175128852,0.005869072593
5.26,-0.004357801166,0.007246829264
5.27,-0.002260388544,0.00811074262
5.28,-1.247449396E-05,0.008408761792
5.29,0.002245919777,0.008115974314
5.3,0.00436789204,0.007238264355
5.31,0.006205368108,0.00581643329
5.32,0.007617515291,0.003929458616
5.33,0.008481674598,0.001695337368
5.34,0.008705839714,-0.000731898157
5.35,0.008241047468,-0.003169904398
5.36,0.007091653109,-0.005420629976
5.37,0.005321441269,-0.007287036482
5.38,0.003053897,-0.008592313832
5.39,0.0004656819825,-0.009199314634
5.4,-0.002226685525,-0.009027617893
5.41,-0.00478592122,-0.008065728093
5.42,-0.006976883401,-0.006376419922
5.43,-0.008590679053,-0.00409407876
5.44,-0.009467050611,-0.001413932258
5.45,-0.009512253069,0.001425845392
5.46,-0.008710160357,0.004167216032
5.47,-0.007125187051,0.006557919455
5.48,-0.004896643851,0.008376728364
5.49,-0.002225206118,0.009455454488
5.5,0.0006468890723,0.009695302108
5.51,0.003459615442,0.00907591265
5.52,0.005960239303,0.007656358371
5.53,0.007927043168,0.005568287489
5.54,0.009189336773,0.003002269301
5.55,0.009641960276,0.0001890358682
5.56,0.009253189347,-0.002622292043
5.57,0.008065695641,-0.005186786743
5.58,0.006190903692,-0.007285018944
5.59,0.003797646696,-0.008741314588
5.6,0.001096421285,-0.009437621401
5.61,-0.001679230944,-0.009322122307
5.62,-0.004292611046,-0.008412203903
5.63,-0.006523457523,-0.006791814813
5.64,-0.008185811435,-0.004603615144
5.65,-0.009142894738,-0.002036625137
5.66,-0.009317963203,0.0006896625087
5.67,-0.008700349647,0.003343528047
5.68,-0.007346209129,0.005700277353
5.69,-0.005373822069,0.007561033682
5.7,-0.002953702981,0.00876955986
5.71,-0.0002941866761,0.00922566715
5.72,0.00237641213,0.008893962084
5.73,0.004829593685,0.007807019122
5.74,0.006856678015,0.006062535054
5.75,0.008287160145,0.003814585393
5.76,0.009003637395,0.001259704472
5.77,0.008951821485,-0.001380925935
5.78,0.008144630621,-0.003881449819
5.79,0.006659979515,-0.006031485689
5.8,0.0046325704,-0.00765444232
5.81,0.002240642707,-0.008622216783
5.82,-0.000310829252,-0.008864933509
5.83,-0.002808667769,-0.008374983684
5.84,-0.005049838769,-0.007205293718
5.85,-0.006857857579,-0.005462390884
5.86,-0.008095865396,-0.003295351299
5.87,-0.008675499405,-0.0008820416777
5.88,-0.008561242139,0.001585831217
5.89,-0.007770455842,0.003917462538
5.9,-0.006369705832,0.005936363965
5.91,-0.004468203048,0.007491708954
5.92,-0.002209238745,0.008467251817
5.93,0.0002396285477,0.008787777645
5.94,0.002697082096,0.008423226219
5.95,0.004978926579,0.007390670438
5.96,0.00690917948,0.005754236902
5.97,0.008331263897,0.003622886908
5.98,0.009119097275,0.001145806444
5.99,0.009187647163,-0.001494934723
6,0.008502228285,-0.004094736015
