"Freq [GHz]","re(S(Rx_p1,Tx_p1)) []","im(S(Rx_p1,Tx_p1)) []"
1,-0.1045867208,-0.1914028212
1.01,-0.1542883416,-0.1511247216
1.02,-0.1897276893,-0.09868443196
1.03,-0.2081833749,-0.03884414572
1.04,-0.2084510307,0.02311729532
1.05,-0.1909049949,0.0818676888
1.06,-0.1574243271,0.1324752811
1.07,-0.1111940559,0.1708151648
1.08,-0.05640257796,0.1938958084
1.09,0.002136054975,0.2000811829
1.1,0.05940114432,0.1891935261
1.11,0.1105897346,0.1624921451
1.12,0.1515113763,0.1225339221
1.13,0.1789219182,0.0729305507
1.14,0.1907709809,0.01802530648
1.15,0.1863455115,-0.03748218077
1.16,0.1663006338,-0.08893145752
1.17,0.1325781927,-0.1320847277
1.18,0.08822222461,-0.1634677866
1.19,0.03710844786,-0.1806420395
1.2,-0.01638879721,-0.1823872606
1.21,-0.06776433142,-0.1687821712
1.22,-0.1127546243,-0.1411781563
1.23,-0.1476850984,-0.1020698899
1.24,-0.1697647662,-0.0548746722
1.25,-0.1773051908,-0.003639319813
1.26,-0.169846963,0.04730101884
1.27,-0.1481843504,0.09368413661
1.28,-0.1142869377,0.1316727143
1.29,-0.07112532657,0.158168404
1.3,-0.02241566219,0.171062645
1.31,0.02769570283,0.1694039708
1.32,0.0749812347,0.1534683828
1.33,0.1154860001,0.1247272966
1.34,0.1458568514,0.08571601087
1.35,0.1636196639,0.03981388772
1.36,0.1673815637,-0.009045181988
1.37,0.1569413288,-0.05670758999
1.38,0.1332988576,-0.09915180579
1.39,0.09856312473,-0.132827391
1.4,0.05576667156,-0.1549525266
1.41,0.008602653592,-0.1637448752
1.42,-0.03889290484,-0.1585663111
1.43,-0.08268631596,-0.1399694655
1.44,-0.1190892432,-0.1096425079
1.45,-0.1450701391,-0.07025736889
1.46,-0.1585075519,-0.02523494222
1.47,-0.1583638911,0.0215520797
1.48,-0.1447652478,0.0661127875
1.49,-0.1189810945,0.1046791188
1.5,-0.08330640618,0.1340250334
1.51,-0.04085717445,0.1517365688
1.52,0.004702323974,0.1564100507
1.53,0.04947643565,0.1477621724
1.54,0.08967160298,0.1266434433
1.55,0.1219176948,0.09495493087
1.56,0.1435498994,0.05547652694
1.57,0.1528276346,0.0116224429
1.58,0.1490726438,-0.0328543676
1.59,0.1327155966,-0.07418312862
1.6,0.105248442,-0.1088940134
1.61,0.06908778028,-0.1341078865
1.62,0.02736193836,-0.1477730068
1.63,-0.01635936114,-0.14882952
1.64,-0.05836934414,-0.1372889133
1.65,-0.09513668381,-0.1142228994
1.66,-0.1236000188,-0.08166379812
1.67,-0.1414202382,-0.04242577724
1.68,-0.1471701147,0.0001372986202
1.69,-0.1404462973,0.0424166747
1.7,-0.1218952302,0.08085220682
1.71,-0.09315169816,0.1122293593
1.72,-0.05669582921,0.1339453117
1.73,-0.01564096544,0.1442225391
1.74,0.02652968538,0.1422526852
1.75,0.06625567661,0.1282593292
1.76,0.1001970438,0.1034748918
1.77,0.1255126314,0.07003391622
1.78,0.1400961872,0.03079174171
1.79,0.1427508553,-0.01091636429
1.8,0.1332877225,-0.05155569806
1.81,0.1125402554,-0.08768906296
1.82,0.08229333301,-0.1162655848
1.83,0.04513259176,-0.1348773963
1.84,0.004226398373,-0.141962718
1.85,-0.03694158233,-0.1369381761
1.86,-0.07486702611,-0.1202489594
1.87,-0.1063221526,-0.09333219373
1.88,-0.1286304298,-0.05849615429
1.89,-0.1398953873,-0.01872505403
1.9,-0.139163815,0.02257446098
1.91,-0.1265090144,0.06186386079
1.92,-0.1030264631,0.09577570343
1.93,-0.07074169633,0.1214030974
1.94,-0.03243777775,0.1365506343
1.95,0.00858323772,0.1399248668
1.96,0.04878457446,0.1312474576
1.97,0.08470029643,0.1112807213
1.98,0.1132356443,0.08176286059
1.99,0.1319358879,0.0452581082
2,0.1392000146,0.004934515026
2.01,0.1344202917,-0.03571140581
2.02,0.118035189,-0.07315915575
2.03,0.0914907688,-0.1041711261
2.04,0.05711375821,-0.126074827
2.05,0.01790738275,-0.1369955322
2.06,-0.022712056,-0.1360187567
2.07,-0.06121457365,-0.1232682126
2.08,-0.09426536377,-0.09989241513
2.09,-0.1190157935,-0.0679612632
2.1,-0.1333508346,-0.03028194685
2.11,-0.1360711771,0.009849296592
2.12,-0.1269941689,0.04893739143
2.13,-0.1069650192,0.08359476861
2.14,-0.07777773741,0.1108367142
2.15,-0.04201330128,0.1283397288
2.16,-0.002809849414,0.134640365
2.17,0.03641439759,0.1292574596
2.18,0.07226077023,0.1127275933
2.19,0.1016458521,0.0865513726
2.2,0.1220673674,0.05305600681
2.21,0.1318172588,0.01518696397
2.22,0.1301238404,-0.02375242666
2.23,0.1172113282,-0.06039021037
2.24,0.09427239659,-0.09157841736
2.25,0.06335704664,-0.1146635934
2.26,0.02718829912,-0.1277120264
2.27,-0.01107855631,-0.1296706589
2.28,-0.0481317541,-0.1204504757
2.29,-0.08078973035,-0.1009260104
2.3,-0.1062738919,-0.07285191107
2.31,-0.122444185,-0.03870461771
2.32,-0.1279776429,-0.001463522022
2.33,-0.1224752045,0.03564901734
2.34,-0.1064883901,0.06944614363
2.35,-0.08146434353,0.09704947604
2.36,-0.04961471263,0.1161333377
2.37,-0.01372025461,0.1251196721
2.38,0.02311160737,0.1233074716
2.39,0.05771522227,0.110926251
2.4,0.08713807126,0.08910963004
2.41,0.1088919215,0.05979189482
2.42,0.1211625371,0.02553691352
2.43,0.1229603778,-0.01068554897
2.44,0.1141998371,-0.04575671166
2.45,0.09570071709,-0.07667674836
2.46,0.06911227633,-0.1008209264
2.47,0.03676677524,-0.1161621163
2.48,0.00147541218,-0.1214408436
2.49,-0.03371559856,-0.1162686136
2.5,-0.06578772492,-0.1011559958
2.51,-0.09200898489,-0.07746342902
2.52,-0.1101667896,-0.0472793366
2.53,-0.1187548825,-0.01323636695
2.54,-0.1170985126,0.02171814285
2.55,-0.1054073601,0.05457749644
2.56,-0.08475200459,0.08253462398
2.57,-0.05696635074,0.1032223563
2.58,-0.02448482802,0.1149143299
2.59,0.009871203531,0.1166693671
2.6,0.04313906727,0.1084071635
2.61,0.07247094134,0.09090914412
2.62,0.09537832482,0.0657448957
2.63,0.1099436884,0.03513105804
2.64,0.1149811956,0.001735396901
2.65,0.1101329486,-0.03155653071
2.66,0.09589293591,-0.06189158133
2.67,0.07355723043,-0.08669426208
2.68,0.04510542408,-0.103885791
2.69,0.01302423158,-0.1120582563
2.7,-0.01991088247,-0.1105892535
2.71,-0.0508767207,-0.09968771661
2.72,-0.07724493853,-0.08036775002
2.73,-0.09680524581,-0.05435355286
2.74,-0.1079502234,-0.02392446284
2.75,-0.1098063323,0.008285797939
2.76,-0.102300557,0.03951783651
2.77,-0.08615782863,0.0671232772
2.78,-0.06283039409,0.0887890591
2.79,-0.0343661191,0.1027303606
2.8,-0.003227819548,0.1078361589
2.81,0.02792030647,0.1037557347
2.82,0.05644054695,0.09091965422
2.83,0.07994435077,0.07049442143
2.84,0.09649109015,0.04427561581
2.85,0.1047465305,0.01452942936
2.86,0.104088295,-0.01620332378
2.87,0.09465026624,-0.04532375219
2.88,0.07730310056,-0.07039358951
2.89,0.05357339107,-0.08933778748
2.9,0.02550905996,-0.1006143702
2.91,-0.004497115271,-0.103337894
2.92,-0.03391067152,-0.09734689508
2.93,-0.060268188,-0.08321045705
2.94,-0.08138189615,-0.06217409367
2.95,-0.09551940071,-0.03605010841
2.96,-0.1015439895,-0.00706206145
2.97,-0.0990043989,0.02234339584
2.98,-0.08816714412,0.04970154743
2.99,-0.06998926858,0.07273451643
3,-0.04603423497,0.08953922943
3.01,-0.01833828258,0.09874314201
3.02,0.01076144825,0.09961516064
3.03,0.03882268448,0.09212292372
3.04,0.06350147383,0.07693202128
3.05,0.08274656354,0.05534748756
3.06,0.0949687488,0.02920261172
3.07,0.09917132862,0.0007044044517
3.08,0.09503102359,-0.02775141304
3.09,0.08292279131,-0.05378055063
3.1,0.06388659411,-0.07520884581
3.11,0.03953895682,-0.0902530659
3.12,0.0119367103,-0.09766884493
3.13,-0.01659572511,-0.09685349742
3.14,-0.04366113205,-0.08789518527
3.15,-0.06699013387,-0.07156436302
3.16,-0.0846309444,-0.0492482282
3.17,-0.09511238639,-0.02283365702
3.18,-0.09756655145,0.005451584159
3.19,-0.09180083682,0.03322605986
3.2,-0.07831332681,0.05815463207
3.21,-0.058250235,0.07814440341
3.22,-0.03330898864,0.09152019533
3.23,-0.005595107246,0.09716483301
3.24,0.02255508452,0.09461246614
3.25,0.04877099583,0.08408710764
3.26,0.07084703084,0.06648318519
3.27,0.08692782346,0.04328978364
3.28,0.09566389127,0.01646499295
3.29,0.0963246599,-0.01172903315
3.3,0.08885941025,-0.03891641339
3.31,0.07390109067,-0.06280726291
3.32,0.05271274089,-0.08139003671
3.33,0.02708108767,-0.09310037307
3.34,-0.0008337107485,-0.09695231661
3.35,-0.02867954238,-0.09262097502
3.36,-0.05410982681,-0.08046974259
3.37,-0.07498048454,-0.06151986269
3.38,-0.08952993722,-0.03736491086
3.39,-0.09652712132,-0.01003736177
3.4,-0.09537517517,0.0181616211
3.41,-0.08616214993,0.04485498929
3.42,-0.0696544939,0.06778915467
3.43,-0.04723380175,0.08502328112
3.44,-0.02078201915,0.09509275105
3.45,0.007475434941,0.09713315427
3.46,0.03515566793,0.0909543889
3.47,0.05991803488,0.07705856485
3.48,0.07966099748,0.05660002943
3.49,0.09269970984,0.03129061675
3.5,0.09790944013,0.003257772066
3.51,0.09482268759,-0.02513285227
3.52,0.08367162095,-0.05147571436
3.53,0.06537194791,-0.07352816102
3.54,0.04144916778,-0.08940071723
3.55,0.0139129696,-0.09771883629
3.56,-0.01491007977,-0.09774229843
3.57,-0.04257182344,-0.08943185647
3.58,-0.06670955538,-0.07345704599
3.59,-0.08524742745,-0.05114396062
3.6,-0.09657511365,-0.0243668428
3.61,-0.09968834481,0.00460786254
3.62,-0.0942789751,0.03331220726
3.63,-0.0807663809,0.05928629336
3.64,-0.06026689429,0.08028897241
3.65,-0.03450323228,0.09449165844
3.66,-0.005661056626,0.1006384387
3.67,0.02379556045,0.09815834926
3.68,0.05133429276,0.08721962832
3.69,0.07457245393,0.06872064825
3.7,0.09148384815,0.04421765272
3.71,0.1005765255,0.01579491855
3.72,0.1010257072,-0.01411195414
3.73,0.09274987396,-0.04292470319
3.74,0.07642284686,-0.06814513289
3.75,0.05342021806,-0.08757259721
3.76,0.02570423369,-0.09949718311
3.77,-0.004343319617,-0.1028514833
3.78,-0.03412600687,-0.09730732894
3.79,-0.06105774239,-0.0833085766
3.8,-0.08278829738,-0.06203660783
3.81,-0.09740952126,-0.03531110642
3.82,-0.1036240367,-0.005434412928
3.83,-0.1008613572,0.02500720635
3.84,-0.08933092397,0.05336814857
3.85,-0.0700070729,0.07717431094
3.86,-0.04454692459,0.09433990953
3.87,-0.01514812215,0.1033511565
3.88,0.01564132106,0.1034005169
3.89,0.04514452855,0.09445956451
3.9,0.07078926721,0.07728383305
3.91,0.0903329831,0.05334903037
3.92,0.1020595902,0.02472402989
3.93,0.1049306784,-0.006108373151
3.94,0.09867778049,-0.03646733802
3.95,0.08382749691,-0.06370764159
3.96,0.06165715497,-0.08545069498
3.97,0.03408477137,-0.0997926883
3.98,0.003502843775,-0.1054716203
3.99,-0.02742957633,-0.1019785523
4,-0.05601841733,-0.08960328964
4.01,-0.07976953791,-0.06941041666
4.02,-0.09660658997,-0.04314768749
4.03,-0.1050527631,-0.01309467804
4.04,-0.1043605112,0.01813517925
4.05,-0.09457787818,0.04782198146
4.06,-0.07654554947,0.07337638324
4.07,-0.05182477859,0.09256562273
4.08,-0.02256235683,0.1037088288
4.09,0.00869571695,0.1058245337
4.1,0.03922572219,0.09871744314
4.11,0.06636361989,0.08299677708
4.12,0.08773770463,0.06002443461
4.13,0.1014761986,0.03179734531
4.14,0.1063716093,0.0007741173385
4.15,0.1019873883,-0.03033902003
4.16,0.0886974224,-0.05882438173
4.17,0.0676547183,-0.0821905099
4.18,0.04069182662,-0.09839058012
4.19,0.0101615291,-0.1060023483
4.2,-0.02126841818,-0.104353755
4.21,-0.05084861198,-0.09358300904
4.22,-0.07598899133,-0.07462768646
4.23,-0.09448632944,-0.04914359887
4.24,-0.1047181757,-0.0193603736
4.25,-0.1057860777,0.01211370731
4.26,-0.09759532768,0.04252053793
4.27,-0.08086404256,0.0691945814
4.28,-0.05706061502,0.08979745074
4.29,-0.02827491659,0.1025239279
4.3,0.002965476636,0.1062611446
4.31,0.03391785419,0.1006867597
4.32,0.0618660714,0.08629735477
4.33,0.08435997364,0.06436446237
4.34,0.09943130796,0.03682207504
4.35,0.1057669546,0.006095595071
4.36,0.1028241012,-0.02511259059
4.37,0.09087715439,-0.05406185228
4.38,0.07099227597,-0.07821515275
4.39,0.04493189013,-0.09546248943
4.4,0.01499775624,-0.104306124
4.41,-0.01617333047,-0.103991222
4.42,-0.04584295128,-0.09457043314
4.43,-0.0714127819,-0.07689686429
4.44,-0.09065313455,-0.05254630431
4.45,-0.101898097,-0.02367585973
4.46,-0.1041901022,0.007168203645
4.47,-0.09736134485,0.03727615766
4.48,-0.08204514403,0.06401389842
4.49,-0.05961661417,0.0850541988
4.5,-0.03206828654,0.09857972822
4.51,-0.00183205294,0.1034400787
4.52,0.02843652255,0.0992492326
4.53,0.05609226797,0.08641527437
4.54,0.07873211391,0.06610019549
4.55,0.09440409394,0.04011382345
4.56,0.1017754478,0.01075167236
4.57,0.1002453909,-0.01940864118
4.58,0.08999309806,-0.04773426519
4.59,0.07195720931,-0.07176723263
4.6,0.04774919201,-0.08943770277
4.61,0.0195086483,-0.09924184999
4.62,-0.01028635447,-0.1003691803
4.63,-0.03903705736,-0.0927685991
4.64,-0.06425072632,-0.07714797808
4.65,-0.08375654902,-0.05490778855
4.66,-0.09589206573,-0.0280150813
4.67,-0.09964420496,0.001170799116
4.68,-0.09473305841,0.03010530205
4.69,-0.08163157734,0.05628039489
4.7,-0.06151995878,0.07744164445
4.71,-0.03617913129,0.09178193091
4.72,-0.007832964059,0.09809522723
4.73,0.02104683214,0.09587743887
4.74,0.04795603105,0.08536594801
4.75,0.07057473764,0.06751483827
4.76,0.08696703873,0.04390833017
4.77,0.0957463353,0.01662025899
4.78,0.09619228705,-0.01196797475
4.79,0.08830954318,-0.03937504556
4.8,0.07282349798,-0.06323487657
4.81,0.05111376001,-0.08150072917
4.82,0.02509139086,-0.09262063509
4.83,-0.002969206161,-0.09566914878
4.84,-0.0306289979,-0.09042423468
4.85,-0.05549630097,-0.07738289221
4.86,-0.07543361908,-0.05771444655
4.87,-0.08874144626,-0.03315583454
4.88,-0.0943032111,-0.005858225058
4.89,-0.09167897033,0.02180150231
4.9,-0.08113995938,0.04742789885
4.91,-0.06364128,0.06881463662
4.92,-0.04073539666,0.0841347027
4.93,-0.01443425507,0.09209665565
4.94,0.01296772448,0.09205353385
4.95,0.03909417393,0.08405519662
4.96,0.06169324801,0.06883986024
4.97,0.07883203717,0.0477659188
4.98,0.08906207768,0.02269034631
4.99,0.09154173846,-0.004195398002
5,0.0861051216,-0.03055739931
5.01,0.07327185385,-0.05412235044
5.02,0.05419734699,-0.07287390673
5.03,0.03056830305,-0.08522531219
5.04,0.004452977347,-0.09015348419
5.05,-0.02188042538,-0.08728322941
5.06,-0.04616119057,-0.07691470931
5.07,-0.06631211074,-0.05999227576
5.08,-0.08062711391,-0.03801791241
5.09,-0.08791530724,-0.01291729371
5.1,-0.08759931231,0.01312950316
5.11,-0.07975985791,0.0378776698
5.12,-0.06512333215,0.05921116432
5.13,-0.0449939556,0.07532333938
5.14,-0.02113698709,0.08486931043
5.15,0.004376493658,0.08707728863
5.16,0.02934951486,0.08180977925
5.17,0.05164819489,0.06956995127
5.18,0.06938354055,0.05145322621
5.19,0.0810706387,0.02904880406
5.2,0.08575193297,0.004300043954
5.21,0.08307448994,-0.02066399945
5.22,0.07331517934,-0.04371129008
5.23,0.05735216826,-0.06288815077
5.24,0.03658567702,-0.07658390465
5.25,0.01281518258,-0.08366507235
5.26,-0.01191616282,-0.08356809005
5.27,-0.03549649346,-0.07634310953
5.28,-0.05592467893,-0.06264561518
5.29,-0.07147913314,-0.04367698936
5.3,-0.08086188121,-0.02107941411
5.31,-0.08330596516,0.003205735165
5.32,-0.07863741931,0.02710387295
5.33,-0.06728689652,0.04858348453
5.34,-0.05025025449,0.06582785572
5.35,-0.02900167098,0.07738786493
5.36,-0.005366797451,0.0823031005
5.37,0.01863323655,0.08018126215
5.38,0.04095376001,0.07122932274
5.39,0.05969993485,0.05623397608
5.4,0.0732869756,0.03649314419
5.41,0.08057374614,0.01370441439
5.42,0.08095851146,-0.01018011593
5.43,0.07442880672,-0.03312029014
5.44,0.06156124765,-0.05316154864
5.45,0.04347132535,-0.06860108526
5.46,0.02171745478,-0.07813241911
5.47,-0.001832575761,-0.08095610717
5.48,-0.02516140465,-0.07684717699
5.49,-0.04627454676,-0.06617352206
5.5,-0.06337079029,-0.04986366854
5.51,-0.0749959851,-0.0293266403
5.52,-0.08016705827,-0.006330750544
5.53,-0.07845561826,0.01714831942
5.54,-0.07002395736,0.03909713852
5.55,-0.05561034204,0.05763728184
5.56,-0.03646484255,0.07118637168
5.57,-0.01424121958,0.07859354183
5.58,0.009145814285,0.07923765632
5.59,0.03168564034,0.07307982432
5.6,0.05144483289,0.06066570363
5.61,0.06673335894,0.04307743273
5.62,0.07624952751,0.02183939693
5.63,0.07919118924,-0.001213966029
5.64,0.07532362772,-0.02409683124
5.65,0.06499835489,-0.04484335326
5.66,0.0491212939,-0.06167688824
5.67,0.02907322668,-0.07316244534
5.68,0.006589516815,-0.078329235
5.69,-0.01639037254,-0.07675281458
5.7,-0.03789046414,-0.06858986934
5.71,-0.05606842254,-0.05456279546
5.72,-0.06937358512,-0.03589560775
5.73,-0.07667928633,-0.01420689706
5.74,-0.07737817871,0.008630754037
5.75,-0.07143250342,0.03065264094
5.76,-0.05937518892,0.04997106398
5.77,-0.04226191272,0.06493713512
5.78,-0.02157847789,0.07428139632
5.79,0.0008883291506,0.07722127978
5.8,0.02320514609,0.07352635253
5.81,0.04345835222,0.06353595759
5.82,0.05991799659,0.04812796856
5.83,0.07118532131,0.02864156208
5.84,0.07631134175,0.006760823894
5.85,0.07487648153,-0.01563069012
5.86,0.06702463084,-0.03661189189
5.87,0.05344891095,-0.0543887081
5.88,0.0353305508,-0.06744718783
5.89,0.01423626391,-0.07468215636
5.9,-0.008016979214,-0.07549053163
5.91,-0.02951814898,-0.0698214633
5.92,-0.04842594704,-0.0581791494
5.93,-0.06312620484,-0.04157821938
5.94,-0.07236948515,-0.02145560438
5.95,-0.07537719329,0.0004534937827
5.96,-0.07190720422,0.02226488289
5.97,-0.06227346975,0.04210712414
5.98,-0.04731799568,0.0582819056
5.99,-0.0283376401,0.06940933817
6,-0.006972037879,0.0745457586
