"Freq [GHz]","re(S(Rx_p1,Tx_p1)) []","im(S(Rx_p1,Tx_p1)) []"
1,-0.01554906311,0.0106477273
1.01,-0.01129622795,0.01492544941
1.02,-0.005936231797,0.01760309459
1.03,-4.729518221E-05,0.01842167375
1.04,0.005743672619,0.01732506958
1.05,0.01083061464,0.01446340091
1.06,0.01469455633,0.01017302367
1.07,0.01695882907,0.004935823068
1.08,0.01742703019,-0.0006770719193
1.09,0.01609967277,-0.006070224633
1.1,0.01316815888,-0.01068966493
1.11,0.00898749702,-0.01408181179
1.12,0.004031707871,-0.0159389453
1.13,-0.00116220218,-0.01612651228
1.14,-0.006054706795,-0.01468994853
1.15,-0.01016149016,-0.01184127587
1.16,-0.0131019957,-0.007928135664
1.17,-0.01463383686,-0.003389847548
1.18,-0.01467012296,0.001293692411
1.19,-0.01327898072,0.005654045313
1.2,-0.01066669054,0.009281355842
1.21,-0.007147633094,0.01186180685
1.22,-0.003105458172,0.01320219328
1.23,0.001049558235,0.01324019249
1.24,0.00492211067,0.01204066681
1.25,0.008168234462,0.009779839814
1.26,0.01052335469,0.006720278121
1.27,0.01182021476,0.003180202196
1.28,0.01199619138,-0.0004992583929
1.29,0.01109064752,-0.003985585681
1.3,0.009233840185,-0.006982533025
1.31,0.006629428088,-0.009252091095
1.32,0.003532822557,-0.01062975227
1.33,0.000227547735,-0.01103279738
1.34,-0.002998487863,-0.01046189604
1.35,-0.005875261507,-0.008996689843
1.36,-0.008170261606,-0.006786234972
1.37,-0.009704589037,-0.004035264737
1.38,-0.01036488532,-0.000987254619
1.39,-0.01011060082,0.002094711643
1.4,-0.008976245527,0.004948228735
1.41,-0.007068408394,0.007331874358
1.42,-0.004557531606,0.009044286129
1.43,-0.001664710199,0.009940674712
1.44,0.001355845112,0.009945420539
1.45,0.004237622811,0.009059510218
1.46,0.006724423621,0.007361837395
1.47,0.008592943225,0.005003828793
1.48,0.009673290965,0.002197434328
1.49,0.009865408983,-0.0008028161577
1.5,0.009149591669,-0.003722318061
1.51,0.007589777241,-0.006291505387
1.52,0.005328954414,-0.00827121094
1.53,0.002576826572,-0.009475748618
1.54,-0.0004092905136,-0.009791312717
1.55,-0.003348597878,-0.009187692942
1.56,-0.005963635096,-0.00772195367
1.57,-0.008007112989,-0.005533549743
1.58,-0.009286023485,-0.002831252608
1.59,-0.00968054552,0.0001268667848
1.6,-0.009155794816,0.003058410953
1.61,-0.007765208383,0.00568407312
1.62,-0.00564522465,0.00775473679
1.63,-0.00300181807,0.009075542584
1.64,-9.027349723E-05,0.009524539261
1.65,0.002809746131,0.009064109509
1.66,0.005421340924,0.007744108191
1.67,0.007497043649,0.005696488162
1.68,0.008842425919,0.003122028395
1.69,0.009334389132,0.00027053788
1.7,0.008932437687,-0.00258348397
1.71,0.007681930548,-0.00516734573
1.72,0.005709084842,-0.007236266415
1.73,0.003208288136,-0.008596598933
1.74,0.0004229938368,-0.009123991799
1.75,-0.002377935729,-0.008774803416
1.76,-0.004926161395,-0.007589729491
1.77,-0.006979596593,-0.005689341269
1.78,-0.008345484312,-0.00326199451
1.79,-0.00889862621,-0.0005452889096
1.8,-0.008593028156,0.002197130015
1.81,-0.007465851983,0.004701186855
1.82,-0.005633299378,0.006727931328
1.83,-0.00327883343,0.00808655005
1.84,-0.0006348924758,0.008652590028
1.85,0.002040104309,0.008379609403
1.86,0.004487186317,0.007303114383
1.87,0.006472171632,0.005536406563
1.88,0.007808395928,0.003258776213
1.89,0.008374568702,0.0006972510709
1.9,0.008125991048,-0.001896235364
1.91,0.007098050596,-0.004269928268
1.92,0.005401705427,-0.006197039653
1.93,0.003211494456,-0.00749773806
1.94,0.0007473775266,-0.008056148169
1.95,-0.001747669292,-0.00783070893
1.96,-0.004031966086,-0.006856948266
1.97,-0.005888854115,-0.005242531731
1.98,-0.00714744779,-0.0031552428
1.99,-0.007698387557,-0.0008052661357
2,-0.007503132275,0.001576303813
2.01,-0.00659603207,0.003760473526
2.02,-0.005079182105,0.005542539127
2.03,-0.003110790039,0.006761272977
2.04,-0.0008884179877,0.007313308629
2.05,0.001371078677,0.007161474244
2.06,0.003452838418,0.006336476585
2.07,0.005164396336,0.004932018596
2.08,0.006353272033,0.00309407151
2.09,0.006920172393,0.001005555069
2.1,0.006826732657,-0.001131939607
2.11,0.006097287935,-0.003117547966
2.12,0.004814750891,-0.004769797986
2.13,0.003111213259,-0.005942848879
2.14,0.001154341855,-0.006538910973
2.15,-0.0008690307039,-0.006515866558
2.16,-0.002770534222,-0.005889585949
2.17,-0.004377484672,-0.004730924946
2.18,-0.005548184523,-0.003157856441
2.19,-0.006184008683,-0.00132359342
2.2,-0.006237310369,0.0005981256129
2.21,-0.005714572698,0.002429214449
2.22,-0.004674655673,0.00400342328
2.23,-0.003222410554,0.005181111583
2.24,-0.001498322105,0.005861346593
2.25,0.00033483516,0.005990318657
2.26,0.002107101799,0.005565397936
2.27,0.003656840408,0.004634542066
2.28,0.004845266872,0.003291170552
2.29,0.005568726101,0.001665016036
2.3,0.005767640162,-9.018764108E-05
2.31,0.005431357669,-0.001811045543
2.32,0.004598502704,-0.003339559168
2.33,0.003352827753,-0.004537531121
2.34,0.001814982377,-0.00529901037
2.35,0.0001309804361,-0.005559654312
2.36,-0.001541550962,-0.005302170362
2.37,-0.003048056828,-0.004557364403
2.38,-0.004251308616,-0.003400732527
2.39,-0.005043908644,-0.001944947552
2.4,-0.00535789632,-0.0003289732537
2.41,-0.005170586396,0.001295149553
2.42,-0.004506129252,0.002776589856
2.43,-0.003432689254,0.003979740103
2.44,-0.002055550519,0.004796648063
2.45,-0.000506839827,0.005156719696
2.46,0.00106713201,0.005032814686
2.47,0.002519695716,0.004443205652
2.48,0.003717505553,0.003449267708
2.49,0.004552796617,0.00214916861
2.5,0.004953086332,0.0006682027607
2.51,0.00488744409,-0.0008532801996
2.52,0.004368787257,-0.0022731877
2.53,0.003452042705,-0.00346097186
2.54,0.00222840403,-0.0043096463
2.55,0.000816278651,-0.004745422713
2.56,-0.0006501778267,-0.004734097083
2.57,-0.002033828117,-0.004283633711
2.58,-0.003207402076,-0.003442761211
2.59,-0.004065219224,-0.002295773345
2.6,-0.00453270056,-0.0009540828628
2.61,-0.004572810605,0.0004546251062
2.62,-0.004188874376,0.00179857984
2.63,-0.003423566188,0.002954282131
2.64,-0.002354233324,0.003817865554
2.65,-0.00108506219,0.00431441089
2.66,0.0002631154035,0.004404376474
2.67,0.001564370038,0.00408659733
2.68,0.002699463275,0.003397642815
2.69,0.003566765475,0.002407672217
2.7,0.004091299654,0.001213256107
2.71,0.004231110024,-7.209360486E-05
2.72,0.003980427013,-0.00132874524
2.73,0.003369416236,-0.002442079663
2.74,0.002460624958,-0.003312893361
2.75,0.001342544154,-0.003866131805
2.76,0.000120958729,-0.004057197101
2.77,-0.001091059518,-0.003875322486
2.78,-0.002183566007,-0.003343792117
2.79,-0.003059610239,-0.002517079308
2.8,-0.003643684078,-0.001475252042
2.81,-0.003888038145,-0.0003162267831
2.82,-0.00377636764,0.0008533781127
2.83,-0.003324617872,0.001927941523
2.84,-0.002578919443,0.002812224644
2.85,-0.001610910513,0.003429631742
2.86,-0.0005109189577,0.003728658568
2.87,0.0006203554227,0.003687015166
2.88,0.00168090992,0.003313120158
2.89,0.002576466469,0.00264489148
2.9,0.003228686111,0.001745985741
2.91,0.003581881039,0.0006998476612
2.92,0.003607670404,-0.0003978925237
2.93,0.003307203776,-0.001448004824
2.94,0.002710782207,-0.002356483095
2.95,0.001874925993,-0.003042844897
2.96,0.0008771535984,-0.003447191549
2.97,-0.0001910686515,-0.003535416941
2.98,-0.001232587742,-0.003302110345
2.99,-0.002153308952,-0.002770895748
3,-0.00287064971,-0.001992172948
3.01,-0.003320946387,-0.001038455407
3.02,-0.003465144597,2.283275109E-06
3.03,-0.003292252179,0.001034658421
3.04,-0.002820233132,0.001964590067
3.05,-0.002094253305,0.002707888773
3.06,-0.001182433449,0.003197920377
3.07,-0.0001694989619,0.003391639178
3.08,0.0008510848681,0.003273428432
3.09,0.001785758321,0.002856391788
3.1,0.002549484524,0.002180979938
3.11,0.003073532572,0.001311089604
3.12,0.003311701718,0.0003280118
3.13,0.003244413348,-0.0006771910344
3.14,0.002880303764,-0.001612154147
3.15,0.002255190956,-0.002391727103
3.16,0.001428538187,-0.002945743393
3.17,0.0004777714051,-0.003225328993
3.18,-0.00050899645,-0.003207183146
3.19,-0.001441141467,-0.002895462892
3.2,-0.002233840899,-0.002321131318
3.21,-0.002815758686,-0.001538865625
3.22,-0.003135413461,-0.0006218423097
3.23,-0.00316567105,0.0003450968139
3.24,-0.002905983103,0.001273258045
3.25,-0.002382201997,0.002078173591
3.26,-0.001644020046,0.002687218137
3.27,-0.000760289433,0.003046091379
3.28,0.0001873392122,0.003123603094
3.29,0.001111880998,0.002914352355
3.3,0.001928915633,0.002439079415
3.31,0.002564220484,0.001742671796
3.32,0.002960463721,0.0008900089667
3.33,0.003082365923,-3.998327742E-05
3.34,0.002919870567,-0.0009615416972
3.35,0.002489035376,-0.001789898145
3.36,0.00183055432,-0.002449036555
3.37,0.00100602876,-0.002878674635
3.38,9.230864543E-05,-0.003039830751
3.39,-0.0008255964547,-0.002918454521
3.4,-0.001662398069,-0.002526767468
3.41,-0.002340478434,-0.001902164797
3.42,-0.002797166197,-0.001103753934
3.43,-0.002990644754,-0.0002068296743
3.44,-0.002903916878,0.0007042118839
3.45,-0.002546425771,0.001543858806
3.46,-0.001953153518,0.002233607218
3.47,-0.00118126257,0.002709436621
3.48,-0.0003045899977,0.002927902113
3.49,0.0005934775938,0.002870237459
3.5,0.001428052276,0.002544056122
3.51,0.002120920854,0.001982476534
3.52,0.002608035859,0.001240758427
3.53,0.002845575975,0.0003907911081
3.54,0.002813976733,-0.0004860055863
3.55,0.002519542383,-0.001306645697
3.56,0.001993500963,-0.001994600513
3.57,0.001288629033,-0.002487076127
3.58,0.0004738211154,-0.002740827613
3.59,-0.0003728158253,-0.002735954711
3.6,-0.001171622638,-0.002477342436
3.61,-0.00184902246,-0.001993659506
3.62,-0.002344372993,-0.001334079506
3.63,-0.002615383389,-0.0005631164046
3.64,-0.00264161092,0.0002458566732
3.65,-0.002425764766,0.001017725981
3.66,-0.001992775247,0.001682678903
3.67,-0.001386810364,0.002182495669
3.68,-0.0006666140121,0.002475525394
3.69,0.0001003169441,0.002539939283
3.7,0.0008441180116,0.00237504273
3.71,0.001498889645,0.002000625121
3.72,0.0020084066,0.001454510231
3.73,0.002330729287,0.0007886236165
3.74,0.002441374261,6.40039788E-05
3.75,0.00233485212,-0.0006547531481
3.76,0.002024534812,-0.001305118922
3.77,0.001540955899,-0.001831853599
3.78,0.0009287657451,-0.002191427046
3.79,0.0002426519275,-0.002355328687
3.8,-0.000457409031,-0.002312063749
3.81,-0.001111178484,-0.002067741646
3.82,-0.001663075024,-0.001645266689
3.83,-0.002066627959,-0.001082235673
3.84,-0.002288152507,-0.0004277278143
3.85,-0.00230939442,0.0002617614697
3.86,-0.002128962525,0.0009269410324
3.87,-0.001762446531,0.001510562605
3.88,-0.001241202454,0.001962124274
3.89,-0.0006098766792,0.002242087105
3.9,7.717083565E-05,0.002325275326
3.91,0.0007602981827,0.002203175037
3.92,0.001379545955,0.001884914099
3.93,0.001879753411,0.001396795668
3.94,0.002215410277,0.0007803661232
3.95,0.002354824143,8.911836011E-05
3.96,0.002283215292,-0.0006159457336
3.97,0.002004420307,-0.001271555667
3.98,0.001540990777,-0.001817784677
3.99,0.0009326073018,-0.002203542959
4,0.0002328810969,-0.00239144319
4.01,-0.0004952282702,-0.002361560491
4.02,-0.001185006054,-0.002113689172
4.03,-0.001772097043,-0.001667823558
4.04,-0.002200578295,-0.001062750094
4.05,-0.002428405158,-0.0003528179716
4.06,-0.002431682954,0.0003968619898
4.07,-0.002207311367,0.001116374928
4.08,-0.001773693625,0.001737570278
4.09,-0.001169384987,0.002200615332
4.1,-0.0004497570354,0.002459889734
4.11,0.0003180445229,0.002488623151
4.12,0.001061391721,0.002281787673
4.13,0.001709121355,0.001856918997
4.14,0.002198462027,0.001252740854
4.15,0.002481252501,0.0005256855508
4.16,0.002528819192,-0.0002553823468
4.17,0.002335003178,-0.001015744544
4.18,0.001917004401,-0.001682074139
4.19,0.001313925622,-0.002189632974
4.2,0.0005831297211,-0.002488699804
4.21,-0.000205252573,-0.002549574672
4.22,-0.0009751346872,-0.00236564
4.23,-0.001651934818,-0.001954149659
4.24,-0.002169939669,-0.001354644735
4.25,-0.002478827404,-0.0006251358333
4.26,-0.002548684464,0.0001635784094
4.27,-0.002372999379,0.0009348926889
4.28,-0.001969320561,0.001613974694
4.29,-0.001377503477,0.002135175613
4.3,-0.0006557207517,0.002448517922
4.31,0.0001253596865,0.00252459984
4.32,0.000889633207,0.002357418725
4.33,0.00156313067,0.001964831491
4.34,0.002081329422,0.00138661599
4.35,0.002395458753,0.0006803466477
4.36,0.00247716483,-8.447646053E-05
4.37,0.002321076277,-0.0008334280121
4.38,0.001945035119,-0.001494559592
4.39,0.001388003806,-0.00200544393
4.4,0.0007059004714,-0.002319151068
4.41,-3.417515409E-05,-0.002408570608
4.42,-0.0007607059564,-0.002268678332
4.43,-0.001404805505,-0.001916567945
4.44,-0.001906833963,-0.001389304011
4.45,-0.002221932272,-0.0007398741956
4.46,-0.00232395769,-3.170379107E-05
4.47,-0.002207485559,0.0006676755105
4.48,-0.001887751188,0.001293149175
4.49,-0.001398617848,0.001788091616
4.5,-0.0007888492116,0.002109417459
4.51,-0.0001171175158,0.002231172732
4.52,0.0005537212782,0.002146392364
4.53,0.00116251375,0.001867132687
4.54,0.001655304102,0.001422766268
4.55,0.001989956612,0.0008567831154
4.56,0.002139535479,0.0002224633254
4.57,0.002094208629,-0.0004221369149
4.58,0.001861587933,-0.001019414185
4.59,0.001465558488,-0.001517204307
4.6,0.000943772099,-0.001873121428
4.61,0.0003440764204,-0.002057925251
4.62,-0.000279783207,-0.002057690145
4.63,-0.0008728180593,-0.001874655713
4.64,-0.001383430659,-0.001526742983
4.65,-0.001767674785,-0.001045817141
4.66,-0.001992827598,-0.0004748620521
4.67,-0.002040018457,0.0001356988983
4.68,-0.001905728872,0.0007322484268
4.69,-0.001602056611,0.001262464909
4.7,-0.001155721206,0.001679716273
4.71,-0.0006058752702,0.00194702086
4.72,-8.72503516E-07,0.002040260615
4.73,0.0006057752058,0.001950376219
4.74,0.001159948051,0.001684339625
4.75,0.001611618096,0.001264785436
4.76,0.001919309699,0.0007282849991
4.77,0.00205392995,0.0001223597092
4.78,0.002001610155,-0.0004985557969
4.79,0.001765265889,-0.001077884674
4.8,0.001364682145,-0.001562012369
4.81,0.0008350554057,-0.001905270094
4.82,0.0002240659495,-0.002074328917
4.83,-0.0004123018628,-0.002051567451
4.84,-0.001014841092,-0.001837053217
4.85,-0.0015266499,-0.001448896235
4.86,-0.001898584743,-0.0009218834455
4.87,-0.002094103433,-0.0003044702325
4.88,-0.002093002197,0.000345626428
4.89,-0.001893644115,0.0009668381405
4.9,-0.001513415626,0.001499647806
4.91,-0.0009873202019,0.001892407463
4.92,-0.0003648063417,0.002106485506
4.93,0.0002948889644,0.002120210579
4.94,0.0009284404102,0.001931190323
4.95,0.001474619844,0.001556741396
4.96,0.001880347419,0.001032357187
4.97,0.002105991729,0.0004083414235
4.98,0.002129370488,-0.0002550720937
4.99,0.001948030688,-0.0008936320009
5,0.001579561035,-0.001445419864
5.01,0.001059891563,-0.001856993266
5.02,0.0004397443034,-0.002088692914
5.03,-0.0002204079148,-0.002118568729
5.04,-0.0008563609402,-0.001944521781
5.05,-0.001406560921,-0.001584444092
5.06,-0.001818194614,-0.001074346967
5.07,-0.002052367054,-0.0004646779904
5.08,-0.002087843301,0.0001847855395
5.09,-0.001922984138,0.0008109335216
5.1,-0.001575696952,0.001353589435
5.11,-0.001081431413,0.001761404541
5.12,-0.000489452197,0.001996785925
5.13,0.0001422042087,0.002039374406
5.14,0.0007525532109,0.001887747707
5.15,0.001283661985,0.001559214586
5.16,0.001686217933,0.001087765478
5.17,0.001924119061,0.0005204325562
5.18,0.001977656161,-8.75330728E-05
5.19,0.001845014226,-0.0006781526367
5.2,0.001542000368,-0.001196316216
5.21,0.001100087315,-0.001594932999
5.22,0.0005630255766,-0.001839151803
5.23,-1.759282346E-05,-0.001909282357
5.24,-0.0005873524022,-0.001802193009
5.25,-0.001094115459,-0.00153111937
5.26,-0.001492727322,-0.001123973592
5.27,-0.001748911237,-0.0006203796797
5.28,-0.001842038269,-6.776436891E-05
5.29,-0.001766579087,0.000483101678
5.3,-0.001532173827,0.0009826939636
5.31,-0.001162380153,0.001387052696
5.32,-0.0006922675982,0.001661475913
5.33,-0.000165110506,0.001783307279
5.34,0.0003715114746,0.001743628284
5.35,0.0008698682194,0.001547760687
5.36,0.001286150684,0.001214579891
5.37,0.001584142301,0.0007747273959
5.38,0.001738214096,0.0002678863142
5.39,0.001735423033,-0.0002606542802
5.4,0.001576559818,-0.0007638743703
5.41,0.001276067147,-0.001197036208
5.42,0.0008608290594,-0.001521522904
5.43,0.0003679138407,-0.001708196797
5.44,-0.0001585670899,-0.001739999243
5.45,-0.0006712481658,-0.001613561452
5.46,-0.001123648725,-0.001339664261
5.47,-0.001474320913,-0.0009424711838
5.48,-0.001690646367,-0.0004575590534
5.49,-0.001751932398,7.112289917E-05
5.5,-0.001651501873,0.0005951308561
5.51,-0.001397546845,0.00106591608
5.52,-0.001012620303,0.001439335367
5.53,-0.0005317650005,0.001679859127
5.54,5.881984559E-07,0.001764062641
5.55,0.0005346916051,0.001683038011
5.56,0.001020152148,0.001443457387
5.57,0.00141075812,0.001067144439
5.58,0.001668984872,0.0005891586328
5.59,0.001769721296,5.45501031E-05
5.6,0.001702827055,-0.0004859153438
5.61,0.001474242726,-0.0009806478486
5.62,0.001105519987,-0.001382256436
5.63,0.0006318011309,-0.001652196828
5.64,9.843865123E-05,-0.00176457068
5.65,-0.0004434117614,-0.001708686927
5.66,-0.0009417835837,-0.001490122107
5.67,-0.001348974867,-0.001130170932
5.68,-0.001626196476,-0.0006637438965
5.69,-0.001747328703,-0.000135927278
5.7,-0.001701415515,0.0004024444246
5.71,-0.001493656659,0.0008997567586
5.72,-0.00114481137,0.001308627835
5.73,-0.0006890871935,0.001590470321
5.74,-0.000170736723,0.001719159568
5.75,0.0003602908,0.001683459084
5.76,0.0008532087983,0.001487981556
5.77,0.001261286345,0.001152609576
5.78,0.001546301688,0.0007104504232
5.79,0.001682132615,0.0002045392016
5.8,0.001657148746,-0.0003163785022
5.81,0.001475189795,-0.000802569912
5.82,0.001155051146,-0.00120808673
5.83,0.0007285409245,-0.001495128128
5.84,0.0002373079354,-0.001637581358
5.85,-0.0002712448733,-0.00162340804
5.86,-0.0007485617924,-0.001455656681
5.87,-0.001149604034,-0.001152014721
5.88,-0.001437136798,-0.0007429542342
5.89,-0.001585221623,-0.0002686610591
5.9,-0.001581580643,0.0002249452959
5.91,-0.001428610839,0.0006907057438
5.92,-0.001142960165,0.001084785266
5.93,-0.0007537203278,0.001370856627
5.94,-0.0002994289014,0.0015234949
5.95,0.0001758081857,0.001530455492
5.96,0.000626676318,0.001393623977
5.97,0.001011051643,0.001128563326
5.98,0.00129399957,0.000762728491
5.99,0.001450979734,0.0003325540487
6,0.001469954117,-0.0001202671604
