"Freq [GHz]","re(S(Rx_p1,Tx_p1)) []","im(S(Rx_p1,Tx_p1)) []"
1,-0.205627896,-0.1655494325
1.01,-0.2435249967,-0.09541830209
1.02,-0.2584717238,-0.01789366428
1.03,-0.249547235,0.05977515968
1.04,-0.2180464022,0.1304735302
1.05,-0.1673126823,0.1878766341
1.06,-0.1023841744,0.2270164205
1.07,-0.02949045247,0.2447093246
1.08,0.04454909632,0.239808204
1.09,0.1129667429,0.2132594415
1.1,0.1696668675,0.1679650137
1.11,0.2097682473,0.1084676401
1.12,0.2300200238,0.04049317273
1.13,0.2290564469,-0.02960330445
1.14,0.2074715995,-0.09543365881
1.15,0.1677126366,-0.1511589633
1.16,0.1138069388,-0.1920047377
1.17,0.05095340534,-0.2146640647
1.18,-0.01498041686,-0.2175553397
1.19,-0.07800649391,-0.2009159152
1.2,-0.1325584875,-0.16672857
1.21,-0.1739790987,-0.1184930689
1.22,-0.1989104907,-0.06086867436
1.23,-0.2055560343,0.0007758401077
1.24,-0.1937943966,0.06086118917
1.25,-0.1651409352,0.1140993751
1.26,-0.1225651658,0.1559536014
1.27,-0.0701854992,0.1830170573
1.28,-0.01287246244,0.1932800119
1.29,0.0442015488,0.1862656567
1.3,0.09602472853,0.163027367
1.31,0.1381797913,0.1260123987
1.32,0.1672126571,0.07880841885
1.33,0.1809061764,0.0257987571
1.34,0.1784384357,-0.02824085571
1.35,0.1604157899,-0.07856748016
1.36,0.1287817876,-0.1208809427
1.37,0.08661364058,-0.1516840173
1.38,0.03782700212,-0.1685636093
1.39,-0.01318312485,-0.1703713408
1.4,-0.06193303426,-0.1572910662
1.41,-0.1042385227,-0.130790703
1.42,-0.1365678385,-0.09346551901
1.43,-0.1563303985,-0.04878889941
1.44,-0.1620784124,-0.0007939301658
1.45,-0.1536063858,0.04628565472
1.46,-0.1319423497,0.08838387512
1.47,-0.09923385243,0.1219488605
1.48,-0.05854050037,0.1442382422
1.49,-0.01355245196,0.1535394845
1.5,0.03173984342,0.1492977901
1.51,0.07339567367,0.1321422944
1.52,0.1078636415,0.1038100014
1.53,0.1322818912,0.06697560516
1.54,0.1447138223,0.0250032401
1.55,0.1442999604,-0.01835732247
1.56,0.131314082,-0.0593030175
1.57,0.1071200761,-0.09430920772
1.58,0.07403465252,-0.1204319995
1.59,0.03510912722,-0.1355552364
1.6,-0.006149569075,-0.138561358
1.61,-0.04609341029,-0.1294121983
1.62,-0.08125522661,-0.1091338669
1.63,-0.1086496504,-0.0797083769
1.64,-0.1260268039,-0.04388290772
1.65,-0.1320569864,-0.004914769905
1.66,-0.1264310322,0.03372435945
1.67,-0.1098687444,0.0686580373
1.68,-0.08403613971,0.09690073259
1.69,-0.05138041107,0.1161134797
1.7,-0.01489876829,0.1247974098
1.71,0.02213699569,0.1224090189
1.72,0.056474759,0.1093883706
1.73,0.08516846625,0.08709944916
1.74,0.1058312211,0.05768982692
1.75,0.1168331701,0.02388394934
1.76,0.1174277424,-0.01126997857
1.77,0.1077966598,-0.04467579409
1.78,0.08901169983,-0.07346268892
1.79,0.06291874983,-0.09523172538
1.8,0.03195654149,-0.1082543185
1.81,-0.001072024845,-0.1116063641
1.82,-0.03325432815,-0.1052279468
1.83,-0.06182496831,-0.08990553496
1.84,-0.08440244297,-0.0671805855
1.85,-0.0991853591,-0.03919490208
1.86,-0.1050922608,-0.008488343937
1.87,-0.1018346997,0.02223186071
1.88,-0.08991942558,0.05032914774
1.89,-0.07058193563,0.07346209373
1.9,-0.04565951583,0.0897764179
1.91,-0.01741682966,0.09804914802
1.92,0.01165932286,0.09777432498
1.93,0.03907748991,0.08918505764
1.94,0.06255243271,0.073212368
1.95,0.08019184832,0.05138658852
1.96,0.09064418316,0.02569165306
1.97,0.09319662496,-0.001613884826
1.98,0.08781693064,-0.02819309581
1.99,0.07513761441,-0.05182741104
2,0.05638577107,-0.07059771788
2.01,0.0332660718,-0.08303558257
2.02,0.007807934547,-0.08823330799
2.03,-0.01780968326,-0.08590522898
2.04,-0.04144112773,-0.07639677173
2.05,-0.06114967783,-0.06064202507
2.06,-0.07536214021,-0.04007457248
2.07,-0.08299062542,-0.01649983367
2.08,-0.08351257747,0.00806006901
2.09,-0.0770035694,0.03153603931
2.1,-0.06412114159,0.05198259207
2.11,-0.04604177369,0.06773573577
2.12,-0.02435667601,0.07754578039
2.13,-0.0009352128235,0.08067479313
2.14,0.02223279015,0.07695127248
2.15,0.04320302118,0.0667780082
2.16,0.06023750512,0.05109279703
2.17,0.07194726508,0.03128542314
2.18,0.07740525662,0.009077809933
2.19,0.07622037136,-0.01362276406
2.2,0.06856643073,-0.03488525962
2.21,0.05516374542,-0.05291787121
2.22,0.03721472444,-0.06621880128
2.23,0.01629886516,-0.07370210807
2.24,-0.005764077371,-0.0747879127
2.25,-0.02707116223,-0.06944918505
2.26,-0.04580015848,-0.05821097923
2.27,-0.06036613985,-0.04210205995
2.28,-0.06955716851,-0.02256300478
2.29,-0.07263718252,-0.001318715484
2.3,-0.06940700928,0.0197735282
2.31,-0.06021808808,0.03888709478
2.32,-0.04593768031,0.05438566537
2.33,-0.0278686987,0.06496533276
2.34,-0.007631393635,0.06976647206
2.35,0.01298239269,0.06844543682
2.36,0.03216919068,0.0611997875
2.37,0.04827358625,0.04874501108
2.38,0.05993318476,0.03224514228
2.39,0.0661958303,0.01320392405
2.4,0.0665986862,-0.006673257842
2.41,0.06120237999,-0.02563380951
2.42,0.0505776333,-0.04203448104
2.43,0.03574622288,-0.05448574344
2.44,0.01808232651,-0.06197100752
2.45,-0.0008161090601,-0.06393022148
2.46,-0.01927371937,-0.06030085615
2.47,-0.03568811446,-0.05151336246
2.48,-0.04867053274,-0.03844245983
2.49,-0.05716417835,-0.02231967102
2.5,-0.0605300235,-0.004615971789
2.51,-0.05859311829,0.01309404579
2.52,-0.05164627601,0.02927370643
2.53,-0.04041200763,0.04255854056
2.54,-0.02596737576,0.05187145135
2.55,-0.009639671498,0.05650901598
2.56,0.007116799752,0.05619213853
2.57,0.02285119665,0.05107774728
2.58,0.0362420409,0.04173186966
2.59,0.04620757072,0.02906787361
2.6,0.05199142042,0.01425662215
2.61,0.05321707728,-0.001382501961
2.62,0.04990761159,-0.0164994471
2.63,0.04247038221,-0.02982964734
2.64,0.03164948701,-0.04029854642
2.65,0.01845138822,-0.04710603328
2.66,0.004051184783,-0.04978446519
2.67,-0.01031171381,-0.04822651482
2.68,-0.02343929672,-0.04268181359
2.69,-0.03427317354,-0.03372402862
2.7,-0.04197750512,-0.0221923817
2.71,-0.04600048821,-0.009113519495
2.72,-0.0461102926,0.004389049818
2.73,-0.04240361258,0.01719009054
2.74,-0.03528727312,0.02825449587
2.75,-0.02543544447,0.03671864893
2.76,-0.01372681822,0.04195522511
2.77,-0.001167466802,0.04361692901
2.78,0.01119402396,0.04165647757
2.79,0.02235222732,0.0363220727
2.8,0.03142462653,0.02812950876
2.81,0.03771939931,0.01781379974
2.82,0.04078629041,0.006264675898
2.83,0.04044705069,-0.005548600373
2.84,0.03680356207,-0.01665697754
2.85,0.0302235078,-0.02616958562
2.86,0.02130516443,-0.03334386261
2.87,0.01082446735,-0.03764246861
2.88,-0.0003311746099,-0.03877271638
2.89,-0.01123686329,-0.0367056574
2.9,-0.021005985,-0.03167358615
2.91,-0.02886167309,-0.02414644149
2.92,-0.03419824497,-0.01478926486
2.93,-0.03662774038,-0.004404387268
2.94,-0.03600792498,0.006136760927
2.95,-0.03244966199,0.01596649655
2.96,-0.02630327323,0.02429230941
2.97,-0.01812526765,0.03046094171
2.98,-0.008628459554,0.03400985042
2.99,0.001380113183,0.03470188946
3,0.01106805508,0.03254051757
3.01,0.01964731683,0.02776453858
3.02,0.026438787,0.02082316342
3.03,0.03092634637,0.01233388393
3.04,0.03279596537,0.003027111135
3.05,0.03195681612,-0.006317379539
3.06,0.0285430154,-0.01493653606
3.07,0.02289635503,-0.02214689853
3.08,0.01553204703,-0.02739893091
3.09,0.007090954125,-0.03031840739
3.1,-0.001717140082,-0.03073173221
3.11,-0.01017403635,-0.02867360323
3.12,-0.01761208447,-0.02437705045
3.13,-0.02346665354,-0.01824743191
3.14,-0.02731795393,-0.01082330489
3.15,-0.02891919717,-0.002728090887
3.16,-0.02820943171,0.005382959265
3.17,-0.02531081402,0.01287585219
3.18,-0.02051142333,0.01918663088
3.19,-0.01423588026,0.02386214617
3.2,-0.007006889722,0.02659006048
3.21,0.0005986614555,0.02721642713
3.22,0.007995275962,0.02575033632
3.23,0.01463250589,0.02235619596
3.24,0.02003359943,0.01733512853
3.25,0.02382671449,0.01109764821
3.26,0.02576707204,0.004130203732
3.27,0.02574923516,-0.003041667396
3.28,0.02380945574,-0.009890899041
3.29,0.02011867115,-0.01592474897
3.3,0.01496722697,-0.02071689448
3.31,0.008742740892,-0.02393415327
3.32,0.001902722331,-0.0253566492
3.33,-0.005056348066,-0.02489065015
3.34,-0.01163175888,-0.02257366385
3.35,-0.01734743173,-0.01857168901
3.36,-0.02178525029,-0.01316879794
3.37,-0.02461323985,-0.006749497324
3.38,-0.02560903835,0.0002254012156
3.39,-0.02467718824,0.007248353249
3.4,-0.02185893121,0.01379870072
3.41,-0.01733343674,0.01937857823
3.42,-0.01140976815,0.02354900079
3.43,-0.004509396075,0.02596374901
3.44,0.002860299082,0.02639851434
3.45,0.01014037269,0.02477279352
3.46,0.01676059225,0.02116227255
3.47,0.02218301845,0.01579993942
3.48,0.02594568803,0.009064904422
3.49,0.0277028388,0.001458850663
3.5,0.02725805403,-0.006428887597
3.51,0.02458698291,-0.01396551074
3.52,0.01984693066,-0.02052506666
3.53,0.01337158008,-0.02554092514
3.54,0.005650337339,-0.02855593086
3.55,-0.002706815126,-0.02926563091
3.56,-0.01101665997,-0.02755029694
3.57,-0.0185786872,-0.02349223292
3.58,-0.02473501491,-0.01737603141
3.59,-0.02892902777,-0.009670918289
3.6,-0.03075731697,-0.0009959748206
3.61,-0.03000987453,0.007929314008
3.62,-0.02669437986,0.01634523482
3.63,-0.02104175026,0.02351761388
3.64,-0.01349179278,0.02880332009
3.65,-0.004659637445,0.03170946371
3.66,0.004714530051,0.03194065305
3.67,0.01382826775,0.02942963241
3.68,0.02188674913,0.0243480657
3.69,0.02817345131,0.01709601803
3.7,0.03211519221,0.008270653569
3.71,0.03333545292,-0.001383379061
3.72,0.03169091019,-0.01103765327
3.73,0.02728758764,-0.01985216999
3.74,0.02047487509,-0.02704960931
3.75,0.0118176873,-0.03198491473
3.76,0.00204904515,-0.03420386162
3.77,-0.007992827537,-0.03348521982
3.78,-0.01743736082,-0.02986258132
3.79,-0.02545798652,-0.02362374934
3.8,-0.03134517402,-0.0152876048
3.81,-0.03456962955,-0.005560392104
3.82,-0.03483000298,0.00472478743
3.83,-0.03208082087,0.01467998486
3.84,-0.02653811691,0.02343960324
3.85,-0.01866220103,0.03023601707
3.86,-0.009119018331,0.03446698306
3.87,0.00127657787,0.03574893634
3.88,0.01163074093,0.03395150104
3.89,0.02104769458,0.02921017755
3.9,0.02870729143,0.02191605695
3.91,0.03393637074,0.01268339215
3.92,0.03626775035,0.002297756216
3.93,0.03548174121,-0.008350817694
3.94,0.03162655658,-0.01834403193
3.95,0.02501577771,-0.02681436413
3.96,0.01620298268,-0.03302019779
3.97,0.005935584809,-0.03641059441
3.98,-0.004908298466,-0.03667410436
3.99,-0.01539466257,-0.03376733319
4,-0.02461380549,-0.02792066733
4.01,-0.03175906908,-0.01962048104
4.02,-0.03619737092,-0.00956913935
4.03,-0.0375253948,0.001373983741
4.04,-0.03560646292,0.01226559683
4.05,-0.03058470414,0.02215955092
4.06,-0.0228750363,0.03018896248
4.07,-0.01312954059,0.03564230777
4.08,-0.00218285263,0.03802681428
4.09,0.009018947645,0.0371134745
4.1,0.01949996077,0.0329595173
4.11,0.0283396072,0.02590607308
4.12,0.03475386005,0.01655090608
4.13,0.03816537196,0.005698277861
4.14,0.03825615916,-0.005709939966
4.15,0.03499794889,-0.01667605684
4.16,0.02865720377,-0.02623416806
4.17,0.01977405117,-0.03353585135
4.18,0.009116671319,-0.03792628389
4.19,-0.002385071796,-0.03900385395
4.2,-0.01372104582,-0.03665772912
4.21,-0.02389015992,-0.03107975944
4.22,-0.03198960669,-0.02274937402
4.23,-0.03729598034,-0.01239256849
4.24,-0.03933086168,-0.0009184550601
4.25,-0.03790479958,0.01066106662
4.26,-0.03313553529,0.02132136002
4.27,-0.02543863991,0.03011671184
4.28,-0.01549125292,0.03626527811
4.29,-0.00417208584,0.0392195532
4.3,0.007516943893,0.03871588601
4.31,0.01854036845,0.03479846561
4.32,0.02792197019,0.02781553416
4.33,0.03483227427,0.01838813697
4.34,0.03866275943,0.007354249394
4.35,0.03908003613,-0.004306612615
4.36,0.03605509268,-0.01556140132
4.37,0.02986501488,-0.02541612413
4.38,0.02106712301,-0.03300457488
4.39,0.01044800223,-0.03766516943
4.4,-0.001047810805,-0.03899898259
4.41,-0.01240289347,-0.0369038524
4.42,-0.02261796004,-0.03158164589
4.43,-0.03080057578,-0.02351825418
4.44,-0.03624359079,-0.0134383709
4.45,-0.03848634562,-0.002239373362
4.46,-0.03735334573,0.009089535241
4.47,-0.03296720683,0.01955551499
4.48,-0.02573503446,0.02824964773
4.49,-0.01630979799,0.03442607903
4.5,-0.005530470742,0.03756583447
4.51,0.005653461833,0.03741988204
4.52,0.01626623343,0.03402794974
4.53,0.02539122544,0.02771181523
4.54,0.03225008512,0.01904405778
4.55,0.03626872236,0.00879539789
4.56,0.03712465326,-0.00213443956
4.57,0.03477189148,-0.01279606557
4.58,0.02944161003,-0.02227293886
4.59,0.02161892295,-0.02975988475
4.6,0.01199818118,-0.03463094394
4.61,0.00142096719,-0.03649092055
4.62,-0.009197635966,-0.03520649973
4.63,-0.0189480399,-0.03091461926
4.64,-0.02700362832,-0.02400774648
4.65,-0.03269018915,-0.01509766258
4.66,-0.03554156705,-0.004961130208
4.67,-0.03533705417,0.005527723859
4.68,-0.03211763328,0.0154724528
4.69,-0.02617999126,0.02403037741
4.7,-0.01804907953,0.03048334268
4.71,-0.008431762844,0.03429729828
4.72,0.001844372801,0.03516585574
4.73,0.01190180533,0.0330343542
4.74,0.0208874718,0.02810261018
4.75,0.0280445496,0.02080630065
4.76,0.03277566643,0.01177869028
4.77,0.03469233167,0.001796022288
4.78,0.03364654988,-0.008288779453
4.79,0.02974207045,-0.01761850648
4.8,0.0233244224,-0.02540408678
4.81,0.01495064605,-0.0309909737
4.82,0.005341318415,-0.03391395995
4.83,-0.004681058464,-0.03393584532
4.84,-0.01426210021,-0.03106673889
4.85,-0.02258810135,-0.02556239832
4.86,-0.02895498762,-0.01790176969
4.87,-0.03282782978,-0.008745644161
4.88,-0.03388587986,0.001120053675
4.89,-0.03204930989,0.01085152245
4.9,-0.02748538285,0.0196191579
4.91,-0.02059353512,0.02667829556
4.92,-0.01197065212,0.03143257757
4.93,-0.002359518216,0.03348452203
4.94,0.007415128114,0.03266896601
4.95,0.01651743156,0.02906652405
4.96,0.02417204901,0.02299592675
4.97,0.02973040053,0.01498592955
4.98,0.03272584017,0.005729250763
4.99,0.03291301028,-0.003977446431
5,0.03028802308,-0.01330230768
5.01,0.02508778603,-0.02144980888
5.02,0.01776860509,-0.02772885336
5.03,0.008966001926,-0.03161157235
5.04,-0.0005606936663,-0.03277778942
5.05,-0.00999410816,-0.03114138115
5.06,-0.018529205,-0.02685636109
5.07,-0.02544217683,-0.02030228955
5.08,-0.03015191689,-0.01205040858
5.09,-0.03226882726,-0.002813561701
5.1,-0.03162686211,0.006615664611
5.11,-0.02829619103,0.01543316302
5.12,-0.02257556509,0.02289198089
5.13,-0.01496522524,0.02836556121
5.14,-0.006122855054,0.03140019238
5.15,0.003193495619,0.03175229627
5.16,0.01219052276,0.02940753194
5.17,0.02010719872,0.02458027957
5.18,0.02627896904,0.0176937548
5.19,0.0301932196,0.009342641868
5.2,0.03153142551,0.0002415865771
5.21,0.03019457482,-0.00883596297
5.22,0.02630990851,-0.01712332774
5.23,0.02021860702,-0.02392503989
5.24,0.01244564801,-0.02867477901
5.25,0.003654527002,-0.03098203378
5.26,-0.005409244342,-0.03066371297
5.27,-0.01398106579,-0.02775821733
5.28,-0.02134132798,-0.02252095803
5.29,-0.02687533019,-0.01540184319
5.3,-0.0301241153,-0.007006729028
5.31,-0.03082208812,0.001953872586
5.32,-0.02891839666,0.01072452237
5.33,-0.02458040215,0.0185680514
5.34,-0.0181790349,0.02482700864
5.35,-0.01025731011,0.02897830676
5.36,-0.001484645248,0.03067658817
5.37,0.007399229445,0.02978276464
5.38,0.01564613331,0.02637539836
5.39,0.02256196742,0.02074399372
5.4,0.02756475558,0.01336474654
5.41,0.03023339201,0.004860734372
5.42,0.03034304266,-0.004050187088
5.43,0.02788422874,-0.0126154942
5.44,0.02306395228,-0.02011114481
5.45,0.01628869798,-0.02590252149
5.46,0.008130646753,-0.02949807291
5.47,-0.0007201587512,-0.03059112918
5.48,-0.009513763979,-0.02908631909
5.49,-0.01750355655,-0.0251082764
5.5,-0.02400952699,-0.01899178981
5.51,-0.02847619085,-0.01125410692
5.52,-0.03052022888,-0.002551617442
5.53,-0.02996372832,0.006375513403
5.54,-0.02685009384,0.01476613139
5.55,-0.02144114914,0.02190299273
5.56,-0.01419554574,0.02717423892
5.57,-0.005730202336,0.03012615211
5.58,0.003232025848,0.03050259934
5.59,0.01192403138,0.02826768253
5.6,0.01960022983,0.02360953506
5.61,0.02560076601,0.01692482414
5.62,0.02940858457,0.008785191273
5.63,0.03069437969,-0.0001115553461
5.64,0.0293454627,-0.009001334846
5.65,0.02547596638,-0.01711961852
5.66,0.01941742248,-0.02376748308
5.67,0.01169046214,-0.02837214165
5.68,0.002960045747,-0.03053666061
5.69,-0.006021918111,-0.03007449868
5.7,-0.0144815871,-0.02702582244
5.71,-0.02169017314,-0.02165414363
5.72,-0.02702706042,-0.01442354785
5.73,-0.03003354231,-0.005958487643
5.74,-0.03045248528,0.003010355866
5.75,-0.02825046241,0.0117094167
5.76,-0.02362043737,0.01938926224
5.77,-0.01696478638,0.02538943932
5.78,-0.00886016719,0.02919550097
5.79,-7.329265702E-06,0.03048326289
5.8,0.008829732811,0.02914646765
5.81,0.01688996339,0.02530549502
5.82,0.02348100119,0.01929641818
5.83,0.02803879945,0.01164142034
5.84,0.0301759622,0.003003203816
5.85,0.02971465151,-0.005872597448
5.86,0.02670127963,-0.01422196904
5.87,0.02140179238,-0.02132841989
5.88,0.01427803602,-0.02658454003
5.89,0.005947332188,-0.02954391973
5.9,-0.002871176944,-0.02995899848
5.91,-0.01141873056,-0.0278016499
5.92,-0.01896230587,-0.02326481248
5.93,-0.02485749621,-0.01674511561
5.94,-0.02860352163,-0.008808082554
5.95,-0.02988568725,-0.0001389782388
5.96,-0.02860170639,0.008516416634
5.97,-0.02486970518,0.01641598361
5.98,-0.0190173046,0.02288487759
5.99,-0.01155279626,0.02737312782
6,-0.00312095353,0.02950232477
