"Freq [GHz]","re(S(Rx_p1,Tx_p1)) []","im(S(Rx_p1,Tx_p1)) []"
1,-0.07629569038,-0.04858845328
1.01,-0.08677185043,-0.02359286068
1.02,-0.08934232548,0.003247997928
1.03,-0.08384637189,0.0295079317
1.04,-0.0708489456,0.05282616594
1.05,-0.05158974774,0.07112009493
1.06,-0.02787059106,0.08277451745
1.07,-0.001890232352,0.08678941391
1.08,0.02395883567,0.08287161117
1.09,0.04731294257,0.07146064233
1.1,0.06605797308,0.05368533198
1.11,0.07852672766,0.03125451077
1.12,0.08365327602,0.006292040879
1.13,0.08106876224,-0.01886776918
1.14,0.07112900746,-0.04190398766
1.15,0.05487131034,-0.06072960909
1.16,0.03390526537,-0.07368663674
1.17,0.01024933961,-0.07969627986
1.18,-0.01386944933,-0.0783497692
1.19,-0.0362317854,-0.06993178171
1.2,-0.05483602831,-0.05537573905
1.21,-0.06808095392,-0.0361574353
1.22,-0.07490384192,-0.01413971433
1.23,-0.07486182369,0.00861444984
1.24,-0.06815083553,0.03004059266
1.25,-0.05556325021,0.04826302057
1.26,-0.03839148554,0.06175857544
1.27,-0.01828992221,0.06947959234
1.28,0.002889188543,0.07092680738
1.29,0.02326872996,0.06616861406
1.3,0.04111204058,0.05580858663
1.31,0.054966121,0.04090797759
1.32,0.06377170126,0.02287349711
1.33,0.06693325527,0.003322843132
1.34,0.06434632005,-0.0160588695
1.35,0.05638342351,-0.03365928416
1.36,0.04384317972,-0.04806477867
1.37,0.02786946492,-0.05816380715
1.38,0.00984898663,-0.06322183654
1.39,-0.008703914886,-0.06292474333
1.4,-0.02626656399,-0.05738990711
1.41,-0.04142332943,-0.04714622033
1.42,-0.05296999691,-0.03308580632
1.43,-0.06000109215,-0.01639145813
1.44,-0.06197519622,0.001555221703
1.45,-0.0587544104,0.01927919168
1.46,-0.05061532591,0.03532435564
1.47,-0.03823021333,0.0483658647
1.48,-0.02261873431,0.05731482276
1.49,-0.005072313931,0.06140777324
1.5,0.01294466084,0.06027369957
1.51,0.02991056961,0.05397222738
1.52,0.04437104662,0.0429983547
1.53,0.05506256088,0.02825135033
1.54,0.06102460809,0.010968332
1.55,0.06169013262,-0.007373762429
1.56,0.05694494517,-0.02518088492
1.57,0.04714911181,-0.04087949044
1.58,0.03311643654,-0.05305715882
1.59,0.01605197852,-0.06059327121
1.6,-0.002548340026,-0.06276700447
1.61,-0.02102801513,-0.05933147664
1.62,-0.03771875768,-0.05054571565
1.63,-0.05109410265,-0.03715998393
1.64,-0.05991313556,-0.02035449585
1.65,-0.06334015196,-0.001636236857
1.66,-0.06102807609,0.01729707294
1.67,-0.0531567987,0.03471331803
1.68,-0.0404219196,0.04900778794
1.69,-0.0239742514,0.05885479721
1.7,-0.005315345097,0.06333427656
1.71,0.01384128041,0.06202080264
1.72,0.03173004872,0.05502613832
1.73,0.04669905353,0.04299087724
1.74,0.0573656431,0.02702576142
1.75,0.06274685055,0.008608161801
1.76,0.06235209215,-0.01055641497
1.77,0.05622921943,-0.02869453787
1.78,0.04495953364,-0.04413144056
1.79,0.0296023013,-0.05544806459
1.8,0.01159416479,-0.06161359513
1.81,-0.007386848684,-0.06208092831
1.82,-0.02557966181,-0.05683610532
1.83,-0.04130568327,-0.04639718742
1.84,-0.05312577948,-0.03176289543
1.85,-0.05997380437,-0.01431613476
1.86,-0.06125411875,0.004308187689
1.87,-0.05689403377,0.02237828147
1.88,-0.04734647264,0.03822862373
1.89,-0.03354294009,0.0504155546
1.9,-0.01680165709,0.05785054638
1.91,0.001300003008,0.05989861931
1.92,0.01907626754,0.05643282601
1.93,0.03489226112,0.04784004236
1.94,0.04731650794,0.03497805768
1.95,0.05525212062,0.01908867884
1.96,0.05803439863,0.001675780134
1.97,0.05548599156,-0.01563947867
1.98,0.04792505119,-0.03127200416
1.99,0.03612645849,-0.04381983705
2,0.02124078831,-0.05219097976
2.01,0.004679697489,-0.05569830162
2.02,-0.01202051163,-0.05411422978
2.03,-0.0273435852,-0.04768106863
2.04,-0.03993229455,-0.03707722254
2.05,-0.0487087198,-0.02334386019
2.06,-0.05296511968,-0.007780220189
2.07,-0.05241789701,0.008181539327
2.08,-0.04722099967,0.02310953345
2.09,-0.03793910553,0.03570075251
2.1,-0.02548470832,0.04489346294
2.11,-0.01102638196,0.04995388502
2.12,0.00412222456,0.05053049921
2.13,0.01862188392,0.04667264962
2.14,0.03122486333,0.03881351263
2.15,0.04087952967,0.02772064425
2.16,0.04681414939,0.01441993524
2.17,0.04859384618,0.0001006972149
2.18,0.04614730356,-0.01398932122
2.19,0.03976248168,-0.02664993455
2.2,0.03005312347,-0.03682697535
2.21,0.01789997676,-0.04369575136
2.22,0.004372336273,-0.04672361517
2.23,-0.009363345346,-0.0457076068
2.24,-0.02214042178,-0.04078511075
2.25,-0.03288714268,-0.03241745057
2.26,-0.04071278709,-0.02134822175
2.27,-0.04497853538,-0.00853985963
2.28,-0.04534790307,0.004906610388
2.29,-0.04181298831,0.01784254179
2.3,-0.03469445691,0.02916646008
2.31,-0.02461504013,0.03791539898
2.32,-0.01244826538,0.04334557743
2.33,0.0007539298517,0.0449958017
2.34,0.01384927,0.04272808862
2.35,0.02570199172,0.03674162119
2.36,0.03528054872,0.02755819299
2.37,0.04174783548,0.01597964318
2.38,0.04453588968,0.003020244884
2.39,0.04339807996,-0.01018063749
2.4,0.0384335496,-0.02245830547
2.41,0.03008104968,-0.03272616423
2.42,0.01908205907,-0.04007346318
2.43,0.006415990226,-0.04384821108
2.44,-0.006786978092,-0.04371730418
2.45,-0.01934761864,-0.03969791265
2.46,-0.03014454193,-0.03215683646
2.47,-0.03821622455,-0.02177760399
2.48,-0.04284851511,-0.009498225043
2.49,-0.04363930317,0.003574608961
2.5,-0.04053423785,0.01626677498
2.51,-0.03383020681,0.0274438238
2.52,-0.02414642814,0.03611382998
2.53,-0.0123661344,0.04151637822
2.54,0.0004453891664,0.04318953195
2.55,0.01313849228,0.04100886031
2.56,0.02458332275,0.03519535574
2.57,0.03377081848,0.02629205657
2.58,0.03990141893,0.01511209048
2.59,0.0424537611,0.002663393574
2.6,0.04122765947,-0.009942689414
2.61,0.03635813314,-0.02159050511
2.62,0.02829988431,-0.03125806273
2.63,0.0177842022,-0.03810542414
2.64,0.005752548474,-0.0415461357
2.65,-0.006727094533,-0.04129596193
2.66,-0.01855377698,-0.03739520782
2.67,-0.02868907363,-0.03020315371
2.68,-0.0362465587,-0.02036539622
2.69,-0.04056791176,-0.008757032443
2.7,-0.04127943715,0.003593496152
2.71,-0.03832435484,0.01559358065
2.72,-0.03196812891,0.02618128629
2.73,-0.02277622273,0.03441799841
2.74,-0.01156587374,0.03957108434
2.75,0.0006643780273,0.04117944708
2.76,0.01282174793,0.03909608923
2.77,0.02381563867,0.03350357087
2.78,0.03265520217,0.0249004356
2.79,0.03853940548,0.01405914747
2.8,0.0409313296,0.001958636666
2.81,0.03960955289,-0.01030302893
2.82,0.03469132005,-0.02160828736
2.83,0.02662465229,-0.03092304645
2.84,0.01614941631,-0.03739333403
2.85,0.00423037425,-0.04042628276
2.86,-0.00803191978,-0.03974733471
2.87,-0.01950414159,-0.03542766958
2.88,-0.02912729011,-0.02787868357
2.89,-0.03601736323,-0.01781360099
2.9,-0.03954957174,-0.006179647774
2.91,-0.03941756946,0.00593271224
2.92,-0.0356616434,0.01739453391
2.93,-0.02866296542,0.02714667188
2.94,-0.01910451405,0.03430070418
2.95,-0.007902740585,0.03822237634
2.96,0.003882916634,0.03858930157
2.97,0.01515331608,0.03541739971
2.98,0.02487512554,0.02905387952
2.99,0.03217793961,0.02013808276
3,0.03643347463,0.009534812222
3.01,0.03730941101,-0.001752509613
3.02,0.03479328624,-0.01267965183
3.03,0.02918506776,-0.0222603549
3.04,0.02106027327,-0.0296563737
3.05,0.01120839662,-0.03425038755
3.06,0.0005536355232,-0.03569550353
3.07,-0.009933703307,-0.03393773007
3.08,-0.01932631785,-0.02921065102
3.09,-0.02682123724,-0.02200426004
3.1,-0.03180634675,-0.01301223869
3.11,-0.03390697245,-0.003063669697
3.12,-0.03300959095,0.0069538463
3.13,-0.02926199902,0.01617247622
3.14,-0.02305137844,0.0238171048
3.15,-0.01496343789,0.02926721771
3.16,-0.005727093474,0.03210336688
3.17,0.003850083247,0.03213544225
3.18,0.0129501467,0.02941157506
3.19,0.02081143948,0.02420799377
3.2,0.02678877969,0.01700145548
3.21,0.03040305432,0.008426938316
3.22,0.03137699608,-0.0007759070454
3.23,0.02965491475,-0.009823475536
3.24,0.02540520484,-0.01795167444
3.25,0.01900553626,-0.02447758112
3.26,0.01101173559,-0.02885481416
3.27,0.002112460469,-0.03071845393
3.28,-0.006927183426,-0.02991591953
3.29,-0.01532899614,-0.02652105531
3.3,-0.02236717983,-0.02082980066
3.31,-0.02743070004,-0.01333717661
3.32,-0.03007717151,-0.004696846577
3.33,-0.03007332538,0.00433392076
3.34,-0.02741800343,0.01295959323
3.35,-0.0223449819,0.02041653651
3.36,-0.01530466503,0.02604175501
3.37,-0.006925657946,0.02933378682
3.38,0.002040767452,0.02999978754
3.39,0.01078848462,0.02798394914
3.4,0.0185303682,0.02347408333
3.41,0.02457115135,0.01688529981
3.42,0.02837215763,0.008822007714
3.43,0.02960146036,2.170964328E-05
3.44,0.02816441733,-0.00871402135
3.45,0.02421149551,-0.01659461857
3.46,0.01812262454,-0.02291423469
3.47,0.01046973391,-0.02711681971
3.48,0.001961361465,-0.02884622529
3.49,-0.006624987078,-0.02797660535
3.5,-0.01451589273,-0.02462047476
3.51,-0.02101325937,-0.01911411568
3.52,-0.02555688062,-0.01198231621
3.53,-0.02777257833,-0.003886429928
3.54,-0.02750180183,0.004438750349
3.55,-0.02481057162,0.01225294904
3.56,-0.0199777527,0.01887667282
3.57,-0.01346461683,0.02374976479
3.58,-0.005869298577,0.02647729323
3.59,0.002129077967,0.02685928786
3.6,0.009831201619,0.02490251669
3.61,0.01657783686,0.02081419773
3.62,0.02180450645,0.01497909256
3.63,0.02508637568,0.007922703743
3.64,0.02617020722,0.0002642177918
3.65,0.02499147511,-0.007336627738
3.66,0.02167595833,-0.01423440327
3.67,0.01652628672,-0.01985036923
3.68,0.009994922145,-0.02371857842
3.69,0.002645894752,-0.02552248567
3.7,-0.004891732747,-0.02511957465
3.71,-0.0119752284,-0.02255232737
3.72,-0.0180006451,-0.01804474391
3.73,-0.0224525197,-0.01198454918
3.74,-0.02494706014,-0.004892180857
3.75,-0.02526537319,0.002621391565
3.76,-0.02337383738,0.009905060696
3.77,-0.01942953311,0.01632244229
3.78,-0.0137696928,0.02130686747
3.79,-0.006885384946,0.02441186912
3.8,0.0006189843692,0.02535259389
3.81,0.008077397686,0.02403406496
3.82,0.01482099551,0.02056315232
3.83,0.02023876804,0.01524243936
3.84,0.02383454694,0.008545808072
3.85,0.02527471277,0.001077353334
3.86,0.02442166305,-0.006483010479
3.87,0.02134928649,-0.01344237294
3.88,0.01633836905,-0.01916012354
3.89,0.0098518548,-0.02310927286
3.9,0.002491984716,-0.0249275464
3.91,-0.005056700061,-0.024452891
3.92,-0.0120929159,-0.02173955161
3.93,-0.01796616737,-0.01705286272
3.94,-0.02213936218,-0.01084313629
3.95,-0.02424008413,-0.003701257352
3.96,-0.02409528246,0.003699441948
3.97,-0.02174590977,0.01066900146
3.98,-0.01744019746,0.01656753496
3.99,-0.01160654395,0.02086598573
4,-0.0048091378,0.02319484686
4.01,0.002308801445,0.02337615736
4.02,0.009088103892,0.02143596746
4.03,0.01491651408,0.01759660014
4.04,0.01928505781,0.01225016535
4.05,0.02183255611,0.005916665621
4.06,0.02237439234,-0.0008085370998
4.07,0.02091343778,-0.007312279519
4.08,0.01763295547,-0.01302036937
4.09,0.01287310909,-0.01744818823
4.1,0.00709421144,-0.0202406965
4.11,0.0008309148898,-0.02119874746
4.12,-0.005357901309,-0.02029015089
4.13,-0.01093876192,-0.01764547584
4.14,-0.01544839816,-0.01353997928
4.15,-0.01853018004,-0.008364167576
4.16,-0.01995967955,-0.002586261521
4.17,-0.01965800865,0.003289781426
4.18,-0.01769269523,0.008767011514
4.19,-0.01426685604,0.01339560186
4.2,-0.009698233081,0.01680744415
4.21,-0.004390248685,0.01874298144
4.22,0.001202394951,0.0190687471
4.23,0.006610872875,0.01778479649
4.24,0.01138944447,0.01502190235
4.25,0.01515012939,0.01102901405
4.26,0.01759250548,0.006152048563
4.27,0.01852661083,0.0008055846461
4.28,0.01788735165,-0.004560533383
4.29,0.01573932812,-0.009497321274
4.3,0.01227159107,-0.01359289934
4.31,0.007782520819,-0.01650613204
4.32,0.002655748785,-0.01799499822
4.33,-0.002671222725,-0.01793728908
4.34,-0.007743371192,-0.01634171112
4.35,-0.01212659866,-0.01334816117
4.36,-0.0154450555,-0.009216804745
4.37,-0.01741405798,-0.004306562491
4.38,-0.01786555316,0.0009553993276
4.39,-0.01676363816,0.006110671967
4.4,-0.01420847771,0.01070988601
4.41,-0.01042801395,0.01435263011
4.42,-0.005758022148,0.01672329072
4.43,-0.0006122143405,0.01761940232
4.44,0.004554901255,0.01696976551
4.45,0.00928894817,0.01484055786
4.46,0.01317653949,0.01142882973
4.47,0.01588220431,0.00704401724
4.48,0.01717791805,0.002079280433
4.49,0.01696252392,-0.003024542598
4.5,0.01526935393,-0.00781889105
4.51,0.01226153228,-0.01188755545
4.52,0.008215640564,-0.01488315495
4.53,0.003495514766,-0.0165567478
4.54,-0.001481182559,-0.01677805672
4.55,-0.006280394545,-0.01554475592
4.56,-0.01048964807,-0.01298033212
4.57,-0.01375322004,-0.009321084502
4.58,-0.01580153961,-0.004893764843
4.59,-0.01647251877,-8.609857266E-05
4.6,-0.01572330566,0.004687080872
4.61,-0.01363182641,0.009019128419
4.62,-0.01038833889,0.01254539366
4.63,-0.006277996553,0.01497287848
4.64,-0.001656062465,0.01610352992
4.65,0.003082108211,0.01584952168
4.66,0.007533896536,0.01423952245
4.67,0.01132251031,0.01141562211
4.68,0.01412782471,0.007621250985
4.69,0.01571264832,0.003181050955
4.7,0.01594241347,-0.001525783335
4.71,0.0147967351,-0.006096703448
4.72,0.01237183505,-0.01013919547
4.73,0.008873467764,-0.01330378189
4.74,0.004600684123,-0.01531399769
4.75,-7.850646268E-05,-0.01599082302
4.76,-0.004757817392,-0.01526937676
4.77,-0.009027337329,-0.0132061995
4.78,-0.01250931588,-0.009976163757
4.79,-0.01489198918,-0.005858901587
4.8,-0.01595835754,-0.001215573633
4.81,-0.01560712381,0.003542266966
4.82,-0.01386358899,0.007989131276
4.83,-0.0108791496,0.01172415273
4.84,-0.006919080337,0.01440817463
4.85,-0.002339421086,0.01579578525
4.86,0.002445100353,0.01575907886
4.87,0.006999211952,0.0143006354
4.88,0.01090770665,0.0115542215
4.89,0.01381456768,0.007772922632
4.9,0.01545672201,0.003305694146
4.91,0.01568901289,-0.001435474544
4.92,0.01449783802,-0.006014590734
4.93,0.01200204387,-0.01001302175
4.94,0.00844097536,-0.01306906617
4.95,0.00415090694,-0.01491178863
4.96,-0.0004677224765,-0.01538577862
4.97,-0.004988917833,-0.01446445497
4.98,-0.009001664291,-0.01225074445
4.99,-0.01214834093,-0.008965278032
5,-0.01415725994,-0.004923522213
5.01,-0.01486626904,-0.0005043554691
5.02,-0.01423534799,0.003886604738
5.03,-0.0123473058,0.007855197729
5.04,-0.009396909182,0.01105469566
5.05,-0.00566990751,0.01321618972
5.06,-0.001514349287,0.01417071676
5.07,0.00269277934,0.0138613907
5.08,0.006580270119,0.01234485766
5.09,0.009815494287,0.009782448893
5.1,0.01213239516,0.006422352002
5.11,0.01335240242,0.002574871374
5.12,0.013396792,-0.001416656527
5.13,0.01228988164,-0.00520651183
5.14,0.01015329956,-0.008476079951
5.15,0.007192314674,-0.01095975116
5.16,0.003675811637,-0.01246528011
5.17,-8.810017082E-05,-0.01288725128
5.18,-0.003778650259,-0.01221294528
5.19,-0.007088936739,-0.01052054225
5.2,-0.009750369458,-0.007970182584
5.21,-0.01155326055,-0.0047888974
5.22,-0.01236217854,-0.001250800543
5.23,-0.01212512339,0.002345808868
5.24,-0.01087604856,0.0057026482
5.25,-0.008730725233,0.008545151929
5.26,-0.005876392155,0.01064395219
5.27,-0.002556043386,0.01183260406
5.28,0.0009514398569,0.01202029123
5.29,0.004353825149,0.01119859449
5.3,0.007369049702,0.009441814428
5.31,0.009747951742,0.006900792348
5.32,0.0112944629,0.003790647077
5.33,0.01188166172,0.0003733094122
5.34,0.01146236307,-0.003063842288
5.35,0.0100733087,-0.006231599262
5.36,0.007832507985,-0.008862916802
5.37,0.004929823533,-0.01073532317
5.38,0.001611459104,-0.01168985305
5.39,-0.001840459807,-0.01164485352
5.4,-0.005131571231,-0.01060340181
5.41,-0.00798026196,-0.008653592185
5.42,-0.01014182632,-0.005961550722
5.43,-0.01142969694,-0.002757670632
5.44,-0.01173186124,0.0006828326154
5.45,-0.01102096833,0.004063424943
5.46,-0.009357165943,0.007091808311
5.47,-0.006883338874,0.009505307333
5.48,-0.003813091768,0.01109385532
5.49,-0.0004124682231,0.01171853556
5.5,0.003023034921,0.01132400864
5.51,0.006194167536,0.009943685233
5.52,0.008824093341,0.007697138941
5.53,0.01068271985,0.004779938512
5.54,0.01160703454,0.001446751311
5.55,0.01151563095,-0.002010829223
5.56,0.01041611117,-0.005289804227
5.57,0.008404673268,-0.008102402888
5.58,0.005657878615,-0.01020148156
5.59,0.002417285364,-0.01140243576
5.6,-0.001031729822,-0.01159966601
5.61,-0.004385115649,-0.01077610747
5.62,-0.007347044037,-0.009004938185
5.63,-0.00965617737,-0.006443269858
5.64,-0.01110895789,-0.003318338811
5.65,-0.01157781935,9.260956606E-05
5.66,-0.01102265986,0.003486973395
5.67,-0.00949450836,0.006563790662
5.68,-0.007131015579,0.009050656153
5.69,-0.004144139772,0.01072812405
5.7,-0.0008011128996,0.01144937278
5.71,0.002599604666,0.01115332766
5.72,0.005755201901,0.00987002786
5.73,0.008385776371,0.007717733344
5.74,0.01025947934,0.004892030269
5.75,0.01121324113,0.00164793615
5.76,0.01116717949,-0.001723341648
5.77,0.01013138348,-0.004920843179
5.78,0.008204478987,-0.00766104446
5.79,0.00556415191,-0.009703292115
5.8,0.002450554596,-0.01087115691
5.81,-0.0008558216025,-0.01106777732
5.82,-0.004059724021,-0.01028384275
5.83,-0.006877785597,-0.008597565916
5.84,-0.009063792269,-0.006166746267
5.85,-0.0104302867,-0.003213756279
5.86,-0.01086460038,-4.920774479E-06
5.87,-0.01033795282,0.00317375336
5.88,-0.00890691695,0.006042245973
5.89,-0.006707257905,0.008351261472
5.9,-0.003940840269,0.009903843341
5.91,-0.0008569034339,0.01057200526
5.92,0.002270526312,0.010307008
5.93,0.005167021744,0.00914250712
5.94,0.00758176857,0.007190440832
5.95,0.009309124614,0.004630162295
5.96,0.0102059057,0.001691890815
5.97,0.01020298996,-0.001363982943
5.98,0.009310348411,-0.004269885579
5.99,0.007615185136,-0.006774337786
6,0.005273456161,-0.008663529917
