"Freq [GHz]","re(S(Rx_p1,Tx_p1)) []","im(S(Rx_p1,Tx_p1)) []"
1,-0.09112075669,0.003969372155
1.01,-0.08526404621,0.03124700706
1.02,-0.0714744198,0.05537919914
1.03,-0.05109704675,0.07412993018
1.04,-0.02608461185,0.08577928886
1.05,0.001187808581,0.08928079005
1.06,0.02814578682,0.08435554006
1.07,0.05225590744,0.07151521188
1.08,0.07126162035,0.05201217586
1.09,0.08339334551,0.02772149064
1.1,0.08753389782,0.000965334336
1.11,0.08332410467,-0.02570454796
1.12,0.07119852125,-0.04974701629
1.13,0.05234708875,-0.06887265849
1.14,0.0286050512,-0.08126359289
1.15,0.002280005264,-0.08575093608
1.16,-0.02406891088,-0.0819320891
1.17,-0.04787954614,-0.07021499183
1.18,-0.06683927892,-0.05178305171
1.19,-0.07911641334,-0.02848209354
1.2,-0.08354630423,-0.002638720266
1.21,-0.07975176435,0.02317292326
1.22,-0.06818348043,0.04639274625
1.23,-0.0500743374,0.06473741314
1.24,-0.02731090339,0.07643579026
1.25,-0.002234789768,0.08041095434
1.26,0.02260502157,0.07638799222
1.27,0.04472164423,0.06491497293
1.28,0.06195131072,0.04729444503
1.29,0.07267640408,0.02543336802
1.3,0.07598535755,0.001629141466
1.31,0.07175191754,-0.0216829802
1.32,0.06062615248,-0.04219137335
1.33,0.04394040491,-0.05794811839
1.34,0.02354364763,-0.06756065838
1.35,0.001586012729,-0.07031477146
1.36,-0.01971949767,-0.06621774782
1.37,-0.03832958427,-0.05596092084
1.38,-0.05257124009,-0.04081059035
1.39,-0.06128966485,-0.02244452572
1.4,-0.06393073148,-0.002756596417
1.41,-0.06055422313,0.01634593163
1.42,-0.05178276419,0.03312930623
1.43,-0.03869856279,0.04618559697
1.44,-0.02270487185,0.05453791275
1.45,-0.005371024672,0.05769321922
1.46,0.01172093143,0.05564431526
1.47,0.02711308429,0.04882809495
1.48,0.03958161992,0.03805083222
1.49,0.04821455938,0.02439264604
1.5,0.05245652182,0.009102723209
1.51,0.05212322726,-0.006505174639
1.52,0.04739042257,-0.02115018218
1.53,0.03876240136,-0.03367080821
1.54,0.02702463291,-0.04309856802
1.55,0.01318377545,-0.04871802732
1.56,-0.001602845535,-0.05011257475
1.57,-0.01610682024,-0.04719451723
1.58,-0.02911552141,-0.04021708252
1.59,-0.0395232364,-0.02976520079
1.6,-0.04642164239,-0.01672204837
1.61,-0.04918265344,-0.002209600076
1.62,-0.04752510872,0.0124961119
1.63,-0.04155630474,0.02607097699
1.64,-0.03178042877,0.03726226378
1.65,-0.01906865638,0.04501047312
1.66,-0.004589820908,0.04856030861
1.67,0.01029439584,0.04754702632
1.68,0.0241606482,0.04204603231
1.69,0.03566799827,0.03257723671
1.7,0.04369858616,0.02006093592
1.71,0.04747798459,0.005728146976
1.72,0.04666011308,-0.00900557093
1.73,0.04136563149,-0.02268867021
1.74,0.03216848474,-0.03398714258
1.75,0.02003188892,-0.04182473765
1.76,0.006201538836,-0.04549324995
1.77,-0.007930793627,-0.04472020434
1.78,-0.02097660027,-0.03968689807
1.79,-0.0316951049,-0.03099619317
1.8,-0.03911634995,-0.01959572783
1.81,-0.04262983585,-0.006667425652
1.82,-0.04203061307,0.006502360648
1.83,-0.03752039739,0.0186564026
1.84,-0.02966678954,0.02868898606
1.85,-0.01932826936,0.03574490873
1.86,-0.007555755731,0.03928674114
1.87,0.004517074549,0.03912644865
1.88,0.01578278717,0.03542177633
1.89,0.02525822889,0.02864139355
1.9,0.0321638616,0.0195053175
1.91,0.03597955789,0.008908460615
1.92,0.03647482298,-0.002164621915
1.93,0.03371375384,-0.01272630802
1.94,0.02803677032,-0.0218674185
1.95,0.02002226551,-0.02882851825
1.96,0.01043196442,-0.03305703365
1.97,0.0001441615187,-0.03424719093
1.98,-0.009920676946,-0.03236060217
1.99,-0.01887709302,-0.02762611861
2,-0.02594932788,-0.02051850526
2.01,-0.03053790137,-0.01171670557
2.02,-0.03227238068,-0.00204400447
2.03,-0.03104506289,0.007605822711
2.04,-0.02702140127,0.01635048846
2.05,-0.02062485218,0.02340190626
2.06,-0.01249631057,0.02814138261
2.07,-0.003431172114,0.03017910429
2.08,0.005700090102,0.0293909121
2.09,0.01403958023,0.02592761122
2.1,0.02082816935,0.02019518449
2.11,0.02548032811,0.01280784178
2.12,0.02763889267,0.004519325904
2.13,0.02720351345,-0.003859249599
2.14,0.02432994184,-0.01154501339
2.15,0.0194011545,-0.01786206018
2.16,0.01297499684,-0.02230411689
2.17,0.005715963218,-0.02457446626
2.18,-0.001679540343,-0.02459982962
2.19,-0.008554835247,-0.02251863814
2.2,-0.01435308072,-0.01864757412
2.21,-0.01865980679,-0.0134328876
2.22,-0.021224939,-0.007394397385
2.23,-0.02196466338,-0.001070110351
2.24,-0.02094634376,0.005031863236
2.25,-0.01836167883,0.01046963099
2.26,-0.01449409598,0.01489028432
2.27,-0.009685982151,0.01803991079
2.28,-0.004309949685,0.01976366921
2.29,0.001253684831,0.01999982835
2.3,0.006633175314,0.01877168857
2.31,0.01147711976,0.01618035335
2.32,0.01546450317,0.0123996962
2.33,0.01831584783,0.007673017231
2.34,0.01980743638,0.002309278424
2.35,0.01978899354,-0.003324136701
2.36,0.01820332114,-0.00881521543
2.37,0.01510465115,-0.01372978458
2.38,0.01067135997,-0.01764302451
2.39,0.00520850008,-0.02017819562
2.4,-0.0008635144314,-0.02104856853
2.41,-0.007035877396,-0.02009688881
2.42,-0.01275329787,-0.0173259667
2.43,-0.01746738901,-0.0129143985
2.44,-0.02069565316,-0.007213013149
2.45,-0.02207854514,-0.0007201813789
2.46,-0.02142661332,0.005962781592
2.47,-0.01875053707,0.01219176873
2.48,-0.01426891573,0.01734863546
2.49,-0.008391615554,0.0209099791
2.5,-0.001679876027,0.02250702072
2.51,0.005212332369,0.02196867278
2.52,0.01160855287,0.01934208023
2.53,0.01688294313,0.01488796959
2.54,0.02052717394,0.009051540917
2.55,0.02220306125,0.002412857731
2.56,0.02177496728,-0.004376754531
2.57,0.019318847,-0.01066425604
2.58,0.01510793114,-0.01586199713
2.59,0.00957794697,-0.01950480996
2.6,0.003277073781,-0.02129128715
2.61,-0.003192766839,-0.02110582442
2.62,-0.009236283666,-0.01902058403
2.63,-0.01432038923,-0.01527892552
2.64,-0.01801979192,-0.0102637372
2.65,-0.02004915615,-0.004455294808
2.66,-0.02028024509,0.001616277927
2.67,-0.01874417652,0.007419090956
2.68,-0.01562028438,0.01246397119
2.69,-0.01121398518,0.01634220195
2.7,-0.005926501089,0.01875443577
2.71,-0.0002193734795,0.01952966248
2.72,0.005423459483,0.01863388668
2.73,0.01053351569,0.01616873148
2.74,0.01469331812,0.01236058197
2.75,0.01756762913,0.007541193545
2.76,0.01892853963,0.002120997653
2.77,0.01867277511,-0.00344330605
2.78,0.0168298586,-0.008684869632
2.79,0.01356020593,-0.01316410571
2.8,0.009142855296,-0.01650461664
2.81,0.003953335856,-0.01842471121
2.82,-0.001566913161,-0.01876168543
2.83,-0.006947267071,-0.01748648092
2.84,-0.01172773469,-0.01470709628
2.85,-0.01549836005,-0.01066014523
2.86,-0.01793460792,-0.005691111019
2.87,-0.01882545748,-0.0002249846821
2.88,-0.01809162922,0.005270060647
2.89,-0.01579235561,0.01032264552
2.9,-0.01212023755,0.0144982158
2.91,-0.007384853696,0.01743565076
2.92,-0.001986768397,0.01887743012
2.93,0.003615683632,0.01869105483
2.94,0.008944020296,0.01688025961
2.95,0.01353867461,0.01358541136
2.96,0.01699661052,0.009073269136
2.97,0.01900484696,0.003716939042
2.98,0.01936757284,-0.002032610355
2.99,0.01802490137,-0.007681669868
3,0.01506170392,-0.01273336196
3.01,0.01070540666,-0.01672911051
3.02,0.005312177531,-0.01928910672
3.03,-0.0006583721646,-0.02014858162
3.04,-0.006678971275,-0.01918655104
3.05,-0.01219892545,-0.01644380845
3.06,-0.01669367262,-0.01212740939
3.07,-0.0197154961,-0.00659979011
3.08,-0.02094047116,-0.0003519921745
3.09,-0.02020641588,0.006037859848
3.1,-0.01753693207,0.01195783777
3.11,-0.01314763922,0.01682249622
3.12,-0.007432397527,0.02013402626
3.13,-0.000929535964,0.02153739016
3.14,0.005729416819,0.0208626558
3.15,0.01188360127,0.01814879254
3.16,0.01691245198,0.01364511918
3.17,0.02030307934,0.007789198621
3.18,0.02170727803,0.001162918637
3.19,0.0209810165,-0.005568634184
3.2,0.01820127575,-0.01172854155
3.21,0.01365789487,-0.0167012174
3.22,0.007821258335,-0.01999857537
3.23,0.001289765041,-0.02131126274
3.24,-0.005276407903,-0.02053897387
3.25,-0.01122707139,-0.01779661497
3.26,-0.01599063156,-0.0133962462
3.27,-0.01913153742,-0.00780780712
3.28,-0.02039032349,-0.001604184921
3.29,-0.01970252354,0.004602141089
3.3,-0.01719561053,0.01022305527
3.31,-0.0131659068,0.01475205154
3.32,-0.008039701719,0.01780892061
3.33,-0.002324311575,0.01916814104
3.34,0.003444627224,0.01876961749
3.35,0.008753704619,0.01671267041
3.36,0.01315530691,0.01323599068
3.37,0.01630097106,0.008687415524
3.38,0.01796299974,0.003487784029
3.39,0.01804436025,-0.001907135454
3.4,0.01657803937,-0.007043402555
3.41,0.01371766225,-0.0115020829
3.42,0.009721321119,-0.01492753597
3.43,0.004930322049,-0.01705022217
3.44,-0.0002558588692,-0.01770381288
3.45,-0.005407501005,-0.01683641547
3.46,-0.01009470887,-0.01451551012
3.47,-0.01391875213,-0.01092591333
3.48,-0.01654336711,-0.00635993456
3.49,-0.01772408939,-0.001199047319
3.5,-0.01733306982,0.00411305051
3.51,-0.01537643431,0.009105174421
3.52,-0.01200128265,0.01331917707
3.53,-0.007490007853,0.01635300204
3.54,-0.002240771325,0.01790198705
3.55,0.003265421543,0.0177935899
3.56,0.00850875847,0.01601083522
3.57,0.01298170907,0.0127006606
3.58,0.01624171811,0.008164920913
3.59,0.01795933737,0.002833900674
3.6,0.01795576022,-0.002775514152
3.61,0.01622474571,-0.008112697709
3.62,0.01293572544,-0.01265121472
3.63,0.008417230594,-0.01594497936
3.64,0.003122314436,-0.01767586888
3.65,-0.002420006779,-0.0176870379
3.66,-0.007661469964,-0.01599800571
3.67,-0.01209262628,-0.01279994766
3.68,-0.01529539653,-0.008432155053
3.69,-0.01698416241,-0.003342959467
3.7,-0.01703109361,0.001959785476
3.71,-0.01547355849,0.006962544089
3.72,-0.01250376522,0.01119798241
3.73,-0.008442890803,0.01428929156
3.74,-0.00370359445,0.01598268478
3.75,0.001254206361,0.01616555163
3.76,0.005969157754,0.0148696209
3.77,0.01002115344,0.01226019622
3.78,0.01306706096,0.008613869081
3.79,0.01486688776,0.004287960756
3.8,0.01529908035,-0.000314726392
3.81,0.01436483087,-0.004782390543
3.82,0.01218219969,-0.008728934024
3.83,0.00897149536,-0.01182449585
3.84,0.005033700544,-0.01382006791
3.85,0.0007238660522,-0.01456502684
3.86,-0.003578591575,-0.01401687704
3.87,-0.007500771918,-0.01224286216
3.88,-0.0107064314,-0.00941341682
3.89,-0.01292343002,-0.005787767219
3.9,-0.01396651122,-0.001692405685
3.91,-0.0137535091,0.002506317849
3.92,-0.0123133144,0.006433655059
3.93,-0.00978440253,0.009739554113
3.94,-0.006403452906,0.01213051406
3.95,-0.002484528495,0.01339710692
3.96,0.001609663108,0.01343420825
3.97,0.005501889553,0.01225151182
3.98,0.008836546039,0.009972823293
3.99,0.01131404248,0.006823841586
4,0.01271965069,0.003109487129
4.01,0.01294356868,-0.0008168726192
4.02,0.01198995164,-0.004588919172
4.03,0.009973983222,-0.007863617981
4.04,0.007107524438,-0.01035414075
4.05,0.00367526199,-0.01185590334
4.06,4.375493564E-06,-0.01226310171
4.07,-0.00356860673,-0.01157440364
4.08,-0.006729972125,-0.009887847316
4.09,-0.009216617154,-0.00738629252
4.1,-0.0108369034,-0.004315775996
4.11,-0.01148310091,-0.0009597097959
4.12,-0.01113510373,0.00238801981
4.13,-0.009856142951,0.005448308532
4.14,-0.007781992984,0.007978337395
4.15,-0.00510558316,0.009788019177
4.16,-0.002058981899,0.01075088772
4.17,0.00110551952,0.010809589
4.18,0.004133915743,0.009976554114
4.19,0.006787740162,0.008330591541
4.2,0.008859585991,0.006010070723
4.21,0.01018662028,0.003203174303
4.22,0.01066181766,0.0001354916016
4.23,0.01024248195,-0.002944875851
4.24,0.008955393988,-0.005784447409
4.25,0.006897742059,-0.008143206602
4.26,0.004232972811,-0.00981419029
4.27,0.001180927499,-0.0106423666
4.28,-0.001997873714,-0.01054092923
4.29,-0.005023213047,-0.00950293566
4.3,-0.007619995042,-0.007606339001
4.31,-0.009544675559,-0.005010958004
4.32,-0.01061047498,-0.001946770059
4.33,-0.01070831162,0.001306003351
4.34,-0.009820602635,0.004443384608
4.35,-0.00802575838,0.007168018346
4.36,-0.005492271729,0.009220016127
4.37,-0.002462629161,0.01040455954
4.38,0.0007713576158,0.01061280432
4.39,0.003899001435,0.009833399208
4.4,0.006623345139,0.008153120781
4.41,0.008691980699,0.005746550676
4.42,0.00992239014,0.002856163481
4.43,0.01021889332,-0.0002345730148
4.44,0.009579463522,-0.003231647058
4.45,0.008092055195,-0.00586074312
4.46,0.005921457698,-0.007893740586
4.47,0.003288835103,-0.009168649504
4.48,0.0004468711285,-0.009601218824
4.49,-0.002346278147,-0.009187666878
4.5,-0.004851216619,-0.007999153461
4.51,-0.006867314712,-0.006169559539
4.52,-0.008246937099,-0.003878739805
4.53,-0.008903286784,-0.00133361355
4.54,-0.008812131537,0.001250714926
4.55,-0.008008338374,0.003668074391
4.56,-0.006578513516,0.005735464798
4.57,-0.004651118648,0.007303922541
4.58,-0.002385260426,0.008266033788
4.59,4.097520433E-05,0.008560437699
4.6,0.002442134092,0.008173763734
4.61,0.004636731754,0.007140361473
4.62,0.006458245328,0.005539981862
4.63,0.00776565988,0.003493352706
4.64,0.008453293252,0.001155453793
4.65,0.008459365061,-0.001293692501
4.66,0.007772526307,-0.003660713489
4.67,0.00643542046,-0.005752720419
4.68,0.004544377968,-0.007392516075
4.69,0.002244588065,-0.008433985527
4.7,-0.0002794694432,-0.008776165852
4.71,-0.002817974126,-0.008374370874
4.72,-0.005153120749,-0.007246872679
4.73,-0.007078355096,-0.005476017539
4.74,-0.008417583825,-0.003203235936
4.75,-0.009042316481,-0.0006181101574
4.76,-0.008884837582,0.002057619367
4.77,-0.007945905685,0.004589607084
4.78,-0.006296074177,0.00675208148
4.79,-0.004070433988,0.008348533237
4.8,-0.001457287793,0.00922987343
4.81,0.001318117876,0.009308335207
4.82,0.004013224315,0.008565877236
4.83,0.006389329083,0.00705642421
4.84,0.008232419863,0.004901866991
4.85,0.009371933301,0.002282274989
4.86,0.009695955857,-0.0005787971963
4.87,0.009161714625,-0.003432713318
4.88,0.007800566113,-0.006026468004
4.89,0.005717053362,-0.008124187596
4.9,0.003081959817,-0.009527842258
4.91,0.0001196506605,-0.01009558657
4.92,-0.002909627179,-0.009756195304
4.93,-0.005731409713,-0.00851818866
4.94,-0.00808115005,-0.006472480149
4.95,-0.009728931786,-0.003787763935
4.96,-0.01050256039,-0.0006984020572
4.97,-0.01030667995,0.002514737152
4.98,-0.009135645298,0.005549251988
4.99,-0.007078250405,0.008109962075
5,-0.004313088551,0.009938734356
5.01,-0.001094261062,0.01084222669
5.02,0.002271732194,0.01071430124
5.03,0.00545593648,0.009550186319
5.04,0.008140718865,0.007450223306
5.05,0.01005366392,0.004612164831
5.06,0.01099760599,0.001312361622
5.07,0.01087307405,-0.002122394695
5.08,0.009690213268,-0.005349326961
5.09,0.007568483762,-0.008046454518
5.1,0.004723960566,-0.009947315687
5.11,0.001445654677,-0.0108694249
5.12,-0.001936292408,-0.01073302688
5.13,-0.005086637135,-0.0095679641
5.14,-0.007700872987,-0.007508032022
5.15,-0.009536578355,-0.004773825948
5.16,-0.01043667888,-0.001646540142
5.17,-0.01034221699,0.00156375216
5.18,-0.009293695013,0.004551278756
5.19,-0.007421584358,0.007045215646
5.2,-0.004927936866,0.008834431243
5.21,-0.002062000856,0.009784007116
5.22,0.0009067884549,0.009842497948
5.23,0.003715137844,0.00904018942
5.24,0.006128770467,0.007479714149
5.25,0.007959935773,0.005321135301
5.26,0.009078655877,0.002763923609
5.27,0.009417773501,2.814134303E-05
5.28,0.008972618825,-0.00266330873
5.29,0.0077965465,-0.005100167683
5.3,0.00599367944,-0.007097525709
5.31,0.003709980181,-0.008505802094
5.32,0.001123363208,-0.009218383887
5.33,-0.001566892442,-0.009177355474
5.34,-0.004151526352,-0.008377544558
5.35,-0.006423715368,-0.0068687406
5.36,-0.008192645425,-0.004755543996
5.37,-0.009297983701,-0.002194022631
5.38,-0.009624465048,0.0006156922881
5.39,-0.009115246853,0.003441479895
5.4,-0.007782256767,0.006036022342
5.41,-0.005711600774,0.008157585553
5.42,-0.003062310034,0.009593195681
5.43,-5.730796704E-05,0.01018185151
5.44,0.003033583252,0.00983491484
5.45,0.005917637543,0.00855073025
5.46,0.008308105034,0.006420914841
5.47,0.00995489329,0.003626613474
5.48,0.01067337334,0.0004242359921
5.49,0.01036755081,-0.00287839446
5.5,0.009044319237,-0.005953165873
5.51,0.006816507795,-0.008486621681
5.52,0.003893818101,-0.01021457704
5.53,0.0005623159936,-0.01095213077
5.54,-0.002845330404,-0.01061527014
5.55,-0.005985424524,-0.009231280958
5.56,-0.008540397312,-0.006936586283
5.57,-0.01025310413,-0.003962236981
5.58,-0.01095421044,-0.0006088330752
5.59,-0.01057953591,0.002786053862
5.6,-0.009175534513,0.005884034187
5.61,-0.006892586593,0.00838139287
5.62,-0.003967250858,0.01003992704
5.63,-0.0006958739234,0.01070986652
5.64,0.002597170496,0.01034270673
5.65,0.005592926063,0.008993061354
5.66,0.008009353273,0.006809924867
5.67,0.009627730972,0.004018859697
5.68,0.0103115947,0.0008974661335
5.69,0.01001681228,-0.002253010995
5.7,0.008792402864,-0.005136948575
5.71,0.006772631325,-0.007491679001
5.72,0.004161667962,-0.009110520291
5.73,0.001212645578,-0.009859726734
5.74,-0.001796739497,-0.009688254117
5.75,-0.004589831015,-0.008629905566
5.76,-0.006915640383,-0.006798047077
5.77,-0.008570524957,-0.004373626996
5.78,-0.009415253857,-0.001587688411
5.79,-0.009386186525,0.001300075836
5.8,-0.008499740656,0.004024912393
5.81,-0.006849829582,0.006340770147
5.82,-0.004598490847,0.008042229456
5.83,-0.001960484152,0.008982695227
5.84,0.0008168286487,0.009087212413
5.85,0.003476546188,0.00835868503
5.86,0.005776123581,0.006876848135
5.87,0.007509842183,0.00479001684
5.88,0.008527667345,0.002300353639
5.89,0.008748622089,-0.0003559257888
5.9,0.008167341171,-0.00293143461
5.91,0.006853177917,-0.005191261793
5.92,0.004942034203,-0.006934971874
5.93,0.002621872131,-0.008014737954
5.94,0.000113540982,-0.00834784354
5.95,-0.002350974739,-0.00792244862
5.96,-0.00455057142,-0.00679629061
5.97,-0.006295067831,-0.005088775849
5.98,-0.007441372457,-0.002967607253
5.99,-0.007904419884,-0.0006316019816
6,-0.007662178543,0.001708375378
