"Freq [GHz]","re(S(Rx_p1,Tx_p1)) []","im(S(Rx_p1,Tx_p1)) []"
1,-0.03831615364,-0.008438638932
1.01,-0.03873151377,0.003473462267
1.02,-0.03555783642,0.01485182453
1.03,-0.02915472702,0.02464822683
1.04,-0.02017809309,0.03198154108
1.05,-0.00951264253,0.03621845291
1.06,0.001816608423,0.03702881841
1.07,0.01274466787,0.03441056639
1.08,0.02226851352,0.0286822849
1.09,0.02954047359,0.02044501193
1.1,0.03394402208,0.01051788685
1.11,0.03514506458,-0.0001451423187
1.12,0.0331145571,-0.01054869332
1.13,0.02812138779,-0.01974989857
1.14,0.020697495,-0.02694381909
1.15,0.01157985256,-0.03153254519
1.16,0.001635958072,-0.03317225621
1.17,-0.008219356923,-0.03179499919
1.18,-0.01710766929,-0.02760456367
1.19,-0.02426364936,-0.02104828616
1.2,-0.02909827585,-0.01276867696
1.21,-0.0312438455,-0.003540262177
1.22,-0.03057797647,0.00580209959
1.23,-0.02722578046,0.01443692959
1.24,-0.02154121503,0.02162569663
1.25,-0.01407019179,0.02677283888
1.26,-0.00549923219,0.02947193159
1.27,0.003405702413,0.02953498087
1.28,0.0118651183,0.02700320043
1.29,0.01915143428,0.02213900767
1.3,0.02464896689,0.01540029701
1.31,0.02790394759,0.00739926245
1.32,0.02866081068,-0.001150892709
1.33,0.02688197331,-0.009497149675
1.34,0.02274951417,-0.0169109369
1.35,0.01664850105,-0.02275030532
1.36,0.009133148128,-0.02651489607
1.37,0.0008784072859,-0.02788901503
1.38,-0.007379104725,-0.026768973
1.39,-0.01490589862,-0.02327207581
1.4,-0.02103651694,-0.01772618047
1.41,-0.02523276077,-0.01064044999
1.42,-0.02713180645,-0.002659681689
1.43,-0.02657867812,0.005493825813
1.44,-0.02363991987,0.01308564159
1.45,-0.01859704565,0.01943580088
1.46,-0.01192026469,0.02398042862
1.47,-0.004224883568,0.02632260613
1.48,0.003785531106,0.02626770915
1.49,0.01138386623,0.02383994112
1.5,0.01788594945,0.01927860765
1.51,0.02271258324,0.01301463204
1.52,0.02544139285,0.005629690717
1.53,0.02584380203,-0.002198040944
1.54,0.02390392778,-0.009756353596
1.55,0.01981792932,-0.0163638397
1.56,0.0139741751,-0.02143116772
1.57,0.006916325803,-0.02451332129
1.58,-0.0007070846172,-0.02534826828
1.59,-0.008201875285,-0.0238788323
1.6,-0.01489089177,-0.02025608016
1.61,-0.02017457834,-0.01482417154
1.62,-0.02358418084,-0.008088203452
1.63,-0.02482301468,-0.0006680014201
1.64,-0.02379228761,0.006758038433
1.65,-0.02059928631,0.01351414266
1.66,-0.01554722088,0.01898805954
1.67,-0.009107564834,0.02268633973
1.68,-0.001877222111,0.02427910542
1.69,0.00547581425,0.02363024998
1.7,0.01227358036,0.02081020396
1.71,0.01789060356,0.01608987922
1.72,0.0218120181,0.009916058015
1.73,0.02368188423,0.002870196822
1.74,0.02333701332,-0.004385783948
1.75,0.02082283332,-0.01117181301
1.76,0.01638945593,-0.01685424303
1.77,0.01046799341,-0.02090645204
1.78,0.00362914036,-0.02295945574
1.79,-0.003472120156,-0.02283736484
1.8,-0.01016031444,-0.02057394851
1.81,-0.01580541468,-0.0164084413
1.82,-0.019884211,-0.01076086925
1.83,-0.02203080208,-0.004189336536
1.84,-0.02207097903,0.002666340089
1.85,-0.02003697036,0.009148771514
1.86,-0.01616112563,0.01464818338
1.87,-0.01084939978,0.01866182619
1.88,-0.004637690417,0.02084146186
1.89,0.001864087609,0.02102415449
1.9,0.008034049523,0.01924349887
1.91,0.01329983675,0.01572062304
1.92,0.01719313304,0.01083653178
1.93,0.0193917472,0.00508934509
1.94,0.01974537626,-0.0009585038516
1.95,0.01828311125,-0.006737179764
1.96,0.01520282463,-0.01172438733
1.97,0.01084452437,-0.01549282264
1.98,0.005651347999,-0.0177457629
1.99,0.0001229292172,-0.01833798915
2,-0.005233686839,-0.01728099733
2.01,-0.009950579754,-0.01473317882
2.02,-0.01363865709,-0.01097713652
2.03,-0.01601735378,-0.006387393424
2.04,-0.01693248756,-0.001392359853
2.05,-0.0163617911,0.003565457854
2.06,-0.01440886429,0.008067345157
2.07,-0.01128725084,0.01175135322
2.08,-0.007296971819,0.01433819484
2.09,-0.00279613648,0.01564880102
2.1,0.001829763312,0.01561311591
2.11,0.006198505616,0.01427039992
2.12,0.009959736915,0.01176181544
2.13,0.01281992604,0.008316391435
2.14,0.01456246832,0.004231637257
2.15,0.01506205897,-0.0001498405202
2.16,0.01429271582,-0.004466315859
2.17,0.01232905539,-0.008364056894
2.18,0.009340656898,-0.01152403586
2.19,0.005579628779,-0.01368660339
2.2,0.001361853563,-0.01467243085
2.21,-0.002957167457,-0.01439804327
2.22,-0.007010444871,-0.01288442537
2.23,-0.01044967927,-0.0102575268
2.24,-0.01297513569,-0.006740034805
2.25,-0.01436260675,-0.002634501695
2.26,-0.01448484372,0.001701251397
2.27,-0.01332511627,0.005884676758
2.28,-0.0109811465,0.009542446297
2.29,-0.007658517025,0.01234470285
2.3,-0.003653692919,0.01403626663
2.31,0.0006720933956,0.01446156448
2.32,0.00492580436,0.01358055128
2.33,0.008719282737,0.01147374029
2.34,0.01170602558,0.008335564005
2.35,0.01361430257,0.004456522014
2.36,0.01427319266,0.0001957873614
2.37,0.01362882856,-0.004053011393
2.38,0.01174916923,-0.00789936845
2.39,0.008816842042,-0.0109930188
2.4,0.005110861767,-0.01305684873
2.41,0.0009791926838,-0.01391234013
2.42,-0.003194961138,-0.01349512649
2.43,-0.007029671727,-0.0118593162
2.44,-0.01017995523,-0.009170424535
2.45,-0.01236914442,-0.005687911207
2.46,-0.01341307532,-0.001739319022
2.47,-0.01323502317,0.00231124833
2.48,-0.01187031042,0.006097147084
2.49,-0.009460542944,0.009282464924
2.5,-0.006238400612,0.01159152921
2.51,-0.002504723915,0.01283213982
2.52,0.001399764342,0.01291071069
2.53,0.005125418518,0.01183831057
2.54,0.00834453891,0.009727426525
2.55,0.01077952702,0.00678006048
2.56,0.01222605328,0.003268450163
2.57,0.01256946463,-0.0004897582701
2.58,0.01179326242,-0.004159691881
2.59,0.00997913768,-0.007418404143
2.6,0.007298715595,-0.009982604511
2.61,0.003997795614,-0.01163272384
2.62,0.0003744420776,-0.01223138238
2.63,-0.003247247873,-0.01173476798
2.64,-0.006545527032,-0.01019598318
2.65,-0.009229166225,-0.007760050221
2.66,-0.01106302282,-0.004650936169
2.67,-0.01188879179,-0.001151629104
2.68,-0.01163907682,0.002421089506
2.69,-0.01034344833,0.005745028467
2.7,-0.00812582682,0.008521639399
2.71,-0.005193294234,0.01050311976
2.72,-0.001817226251,0.01151505311
2.73,0.001691619187,0.01147242179
2.74,0.005011806609,0.01038739995
2.75,0.00784105246,0.008368087141
2.76,0.00992434442,0.005608205668
2.77,0.011077631,0.002368672424
2.78,0.01120475802,-0.00104722465
2.79,0.01030597313,-0.004322655979
2.8,0.008477150409,-0.007157271878
2.81,0.005899817901,-0.009295465646
2.82,0.002823002255,-0.01055009841
2.83,-0.0004612651516,-0.01081936942
2.84,-0.003646299548,-0.01009522345
2.85,-0.006440116907,-0.008462561975
2.86,-0.008592866435,-0.006089471246
2.87,-0.009919656383,-0.003209593221
2.88,-0.01031660688,-9.854591907E-05
2.89,-0.009768700282,0.002953135877
2.9,-0.008348869657,0.005667776938
2.91,-0.006208670814,0.007806298675
2.92,-0.00356172429,0.009189455488
2.93,-0.0006618008133,0.00971265044
2.94,0.002222110743,0.009353130741
2.95,0.004831211314,0.008169177527
2.96,0.006940303663,0.006291719993
2.97,0.008377057498,0.003909533559
2.98,0.009035500255,0.001249751955
2.99,0.008882764474,-0.001444217175
3,0.00795883689,-0.003935159051
3.01,0.006369744859,-0.006012794048
3.02,0.004275211393,-0.007510998727
3.03,0.001872256023,-0.008320172575
3.04,-0.0006235185605,-0.008393972667
3.05,-0.002997144438,-0.007750218637
3.06,-0.005052311978,-0.006466312868
3.07,-0.006626759493,-0.004669974082
3.08,-0.007603953419,-0.002526411191
3.09,-0.007920401154,-0.0002232517215
3.1,-0.007568360987,0.002045413017
3.11,-0.006594098395,0.004094578078
3.12,-0.005092155054,0.00576235041
3.13,-0.003196329935,0.006921557934
3.14,-0.001068217975,0.007488305263
3.15,0.001115780223,0.007427093079
3.16,0.003178058661,0.006752351919
3.17,0.004953135423,0.005526445321
3.18,0.006299896171,0.003854371556
3.19,0.007112018153,0.001875543666
3.2,0.007325935139,-0.0002468374972
3.21,0.006925813117,-0.002338176176
3.22,0.005945139525,-0.004225880212
3.23,0.004464694937,-0.00575289856
3.24,0.002606882122,-0.006790451303
3.25,0.0005266329471,-0.007248971403
3.26,-0.001600611273,-0.007086309992
3.27,-0.003593066682,-0.006312374806
3.28,-0.005277879958,-0.004989584699
3.29,-0.00650626284,-0.003228830007
3.3,-0.00716713489,-0.001181011638
3.31,-0.007197938462,0.0009753410941
3.32,-0.006591451238,0.003049447803
3.33,-0.005397728094,0.004855350589
3.34,-0.003720736334,0.006229117765
3.35,-0.001709767354,0.007044494939
3.36,0.0004537414605,0.007225383196
3.37,0.002572823374,0.00675377392
3.38,0.004453467961,0.005672189963
3.39,0.005923144723,0.004080233115
3.4,0.006847469356,0.002125457838
3.41,0.007143267234,-1.059146495E-05
3.42,0.006786642136,-0.002129803008
3.43,0.005815178296,-0.004036609703
3.44,0.004324030692,-0.005556823133
3.45,0.002456317851,-0.006554247014
3.46,0.0003888440947,-0.006943373611
3.47,-0.001685329282,-0.006696902945
3.48,-0.003575629384,-0.005847397545
3.49,-0.005112096174,-0.004483024436
3.5,-0.006161064414,-0.002737963894
3.51,-0.006636895655,-0.0007786078095
3.52,-0.006508720809,0.001212930907
3.53,-0.005801714061,0.003056261905
3.54,-0.004593002067,0.004589362295
3.55,-0.003002850456,0.005682843753
3.56,-0.001182205265,0.006250590929
3.57,0.0007020406942,0.006255955431
3.58,0.002482557122,0.005713174742
3.59,0.004006393951,0.004684163187
3.6,0.005147814025,0.00327124241
3.61,0.005818128556,0.001606704551
3.62,0.005971870535,-0.0001596892551
3.63,0.005609011878,-0.001874084648
3.64,0.004773285623,-0.003391618977
3.65,0.003546985075,-0.00458816957
3.66,0.002042857813,-0.005369908058
3.67,0.0003938849786,-0.005680034994
3.68,-0.001258165296,-0.005502319778
3.69,-0.002774491275,-0.004861321471
3.7,-0.004030428097,-0.003819402604
3.71,-0.00492522505,-0.002470861097
3.72,-0.005389740571,-0.0009336889859
3.73,-0.005391522002,0.0006603840499
3.74,-0.004936922235,0.00217679398
3.75,-0.004070113193,0.003489158561
3.76,-0.002869078382,0.004489557668
3.77,-0.001438892338,0.005097271425
3.78,9.719110156E-05,0.005265272175
3.79,0.001608134464,0.004983928242
3.8,0.002966151179,0.004281591672
3.81,0.004057460377,0.003221995101
3.82,0.004791846864,0.001898654331
3.83,0.005110197412,0.0004267383611
3.84,0.004989350238,-0.001066899431
3.85,0.004443827245,-0.002454661635
3.86,0.003524297224,-0.00361915637
3.87,0.002312915191,-0.004463189504
3.88,0.0009159680596,-0.004917921495
3.89,-0.000545499748,-0.004948483628
3.9,-0.001946230292,-0.004556587383
3.91,-0.003167522072,-0.003779940344
3.92,-0.004107280317,-0.002688573221
3.93,-0.004688488228,-0.001378455643
3.94,-0.004865402122,3.699260547E-05
3.95,-0.004626992279,0.001436723144
3.96,-0.003997402777,0.00270235204
3.97,-0.003033462617,0.003728052262
3.98,-0.001819523681,0.004429236601
3.99,-0.0004601091033,0.004749348158
4,0.0009289853697,0.004664249115
4.01,0.002230392733,0.004183902622
4.02,0.003334892833,0.003351259998
4.03,0.004150378056,0.002238480438
4.04,0.004609367861,0.0009408094245
4.05,0.004674490649,-0.0004313862415
4.06,0.004341507084,-0.001761793439
4.07,0.003639633745,-0.002937812887
4.08,0.002629129287,-0.003859937629
4.09,0.001396315457,-0.004450094902
4.1,4.640892328E-05,-0.00465826404
4.11,-0.001305277496,-0.004466805232
4.12,-0.002543059197,-0.00389210565
4.13,-0.00356072888,-0.002983360884
4.14,-0.004270696319,-0.001818546231
4.15,-0.004611622019,-0.000497875353
4.16,-0.004553857415,0.0008647286381
4.17,-0.004102180517,0.002151434887
4.18,-0.003295545996,0.003250733343
4.19,-0.002203832874,0.004067187507
4.2,-0.0009218464506,0.004529835619
4.21,0.0004389133099,0.004598475323
4.22,0.001759993376,0.004267252783
4.23,0.002926370868,0.003565220973
4.24,0.003836546746,0.002553809419
4.25,0.004411444695,0.001321431251
4.26,0.004601321454,-2.42854189E-05
4.27,0.00439008009,-0.001365941611
4.28,0.00379661708,-0.002586641643
4.29,0.002873103219,-0.003580186817
4.3,0.00170037098,-0.004260296722
4.31,0.0003808317381,-0.004568063761
4.32,-0.0009704462888,-0.004477010901
4.33,-0.002235720606,-0.003995336563
4.34,-0.003304759921,-0.003165173656
4.35,-0.004084368444,-0.002058941071
4.36,-0.004506447979,-0.0007731052963
4.37,-0.004533921908,0.0005801200809
4.38,-0.004164021261,0.001882442823
4.39,-0.00342864662,0.003019722117
4.4,-0.002391755544,0.003891903383
4.41,-0.001143967389,0.004421815568
4.42,0.0002051906645,0.004562068898
4.43,0.001536767766,0.004299433399
4.44,0.002732813852,0.003656275592
4.45,0.003686851726,0.002688870729
4.46,0.004313472291,0.001482674401
4.47,0.004556175676,0.0001449097489
4.48,0.004392709309,-0.00120491899
4.49,0.003837358184,-0.002445764134
4.5,0.002939908762,-0.003466055976
4.51,0.001781314736,-0.004173981699
4.52,0.0004664115155,-0.004506035238
4.53,-0.0008856756042,-0.004432992169
4.54,-0.002152540339,-0.003962696558
4.55,-0.00321987112,-0.003139351398
4.56,-0.003992087455,-0.00203935076
4.57,-0.004401190533,-0.0007640430155
4.58,-0.004412954225,0.0005698688546
4.59,-0.00402985132,0.00184133874
4.6,-0.003290445832,0.002936305229
4.61,-0.002265347463,0.003758214482
4.62,-0.00105017707,0.004236712722
4.63,0.0002437085968,0.004333688779
4.64,0.001499772286,0.004046137659
4.65,0.002607068471,0.003405655872
4.66,0.0034701846,0.002474727532
4.67,0.004017430547,0.001340276503
4.68,0.004206573918,0.0001052095459
4.69,0.004027698349,-0.001121166134
4.7,0.003503066462,-0.002232911858
4.71,0.002684162299,-0.003136518908
4.72,0.001646338256,-0.00375849965
4.73,0.0004816756765,-0.004050939526
4.74,-0.0007092256883,-0.003994669016
4.75,-0.001825786901,-0.003599947684
4.76,-0.002775617573,-0.00290476548
4.77,-0.003481707531,-0.001971041466
4.78,-0.003888167041,-0.000879127666
4.79,-0.003964183902,0.000278895503
4.8,-0.003706008352,0.001406610091
4.81,-0.003136908195,0.002410813831
4.82,-0.002305152894,0.003208733386
4.83,-0.00128018751,0.003734432278
4.84,-0.0001472490826,0.003943995991
4.85,0.0009992365315,0.003819135747
4.86,0.002063058681,0.003368926261
4.87,0.002953934694,0.002629487073
4.88,0.003594980496,0.001661536092
4.89,0.003929355272,0.0005458886611
4.9,0.003925502578,-0.000622859583
4.91,0.003580467407,-0.001744054445
4.92,0.002920884036,-0.002719534352
4.93,0.002001402633,-0.003462304368
4.94,0.0009005440769,-0.003904549718
4.95,-0.0002857770502,-0.004004202812
4.96,-0.001452568669,-0.003749360694
4.97,-0.002495200735,-0.003160019269
4.98,-0.00331908985,-0.002286835181
4.99,-0.003848675653,-0.001206922313
5,-0.004034764624,-1.700474541E-05
5.01,-0.003859453661,0.001175456616
5.02,-0.003338079326,0.002262308747
5.03,-0.002517944457,0.003144919708
5.04,-0.001473916313,0.003743521188
5.05,-0.0003013281867,0.00400472374
5.06,0.0008930924672,0.003906441009
5.07,0.002001337719,0.003459739429
5.08,0.002924242122,0.002707462677
5.09,0.003580599941,0.001719824331
5.1,0.003914392682,0.0005874758293
5.11,0.003899467898,-0.0005871967119
5.12,0.003541298204,-0.001699640443
5.13,0.00287576291,-0.002652615977
5.14,0.001965195299,-0.003364696442
5.15,0.0008921924013,-0.003777041498
5.16,-0.0002481338724,-0.003857917355
5.17,-0.001356688566,-0.003604683235
5.18,-0.002338922334,-0.003043217082
5.19,-0.003112636691,-0.002224980597
5.2,-0.003614469839,-0.001222105485
5.21,-0.003804627375,-0.0001210076232
5.22,-0.003669596028,0.0009848980668
5.23,-0.003222747005,0.002002796127
5.24,-0.002502885157,0.002847825239
5.25,-0.001570924489,0.003449689367
5.26,-0.0005049687792,0.003758100218
5.27,0.0006058479619,0.003746709067
5.28,0.00166834781,0.003415274039
5.29,0.002592663,0.00278990226
5.3,0.003299465164,0.001921307924
5.31,0.003726558769,0.0008811407233
5.32,0.003834331437,-0.0002434345551
5.33,0.003609588762,-0.001356590394
5.34,0.003067376182,-0.002361666876
5.35,0.00225051099,-0.003169401939
5.36,0.001226713317,-0.003705890245
5.37,8.34275966E-05,-0.003919555567
5.38,-0.001079350542,-0.003786443225
5.39,-0.00215770633,-0.003313235921
5.4,-0.003053170666,-0.002537568756
5.41,-0.003681958986,-0.001525457001
5.42,-0.003983174655,-0.0003659322431
5.43,-0.003925113594,0.0008367210856
5.44,-0.003508953652,0.001972461166
5.45,-0.002769350227,0.002935829281
5.46,-0.001771766018,0.003636116353
5.47,-0.0006067046153,0.004006313195
5.48,0.0006186449409,0.004009895944
5.49,0.001790553268,0.003644702725
5.5,0.002799675764,0.002943452117
5.51,0.003551646885,0.001970805535
5.52,0.00397625458,0.0008172435859
5.53,0.004034249536,-0.0004096325428
5.54,0.003721092914,-0.001595489426
5.55,0.003067271333,-0.002630278627
5.56,0.002135170881,-0.003418764071
5.57,0.001012860669,-0.00388950547
5.58,-0.0001945494324,-0.004001420708
5.59,-0.001375076795,-0.003747316584
5.6,-0.002420526219,-0.003154100634
5.61,-0.003236587923,-0.002279729357
5.62,-0.003751407921,-0.001207272091
5.63,-0.003921849228,-3.674149496E-05
5.64,-0.003736916532,0.001124464602
5.65,-0.003218111156,0.002171564751
5.66,-0.002416784862,0.003011890701
5.67,-0.001408839778,0.003573019757
5.68,-0.0002873519465,0.003808847644
5.69,0.0008461407787,0.00370312639
5.7,0.001890859582,0.003270241729
5.71,0.00275568021,0.002553259674
5.72,0.003366935418,0.001619509478
5.73,0.003674484996,0.0005541709165
5.74,0.003655589168,-0.0005475162856
5.75,0.003316325221,-0.001588712402
5.76,0.002690502118,-0.002479370442
5.77,0.001836236134,-0.003143857457
5.78,0.0008305368016,-0.003527187271
5.79,-0.0002375961389,-0.003599379707
5.8,-0.001274957232,-0.003357627125
5.81,-0.00219213759,-0.002826134677
5.82,-0.002911078567,-0.002053691911
5.83,-0.003371559964,-0.001109215799
5.84,-0.003536103075,-7.566535519E-05
5.85,-0.003392905529,0.0009571460464
5.86,-0.002956590197,0.001900232159
5.87,-0.002266731168,0.002672967901
5.88,-0.001384301615,0.003209853736
5.89,-0.0003863567845,0.003465957305
5.9,0.000640593104,0.003420592359
5.91,0.001607961811,0.003078942916
5.92,0.00243260224,0.002471510765
5.93,0.003043835058,0.001651443109
5.94,0.003389411189,0.000689969808
5.95,0.003439917963,-0.0003296673583
5.96,0.003191266705,-0.001319289534
5.97,0.002665055756,-0.002193275092
5.98,0.001906774897,-0.002875854413
5.99,0.000981991863,-0.003307600591
6,-2.917425411E-05,-0.003450573369
