"Freq [GHz]","re(S(Rx_p1,Tx_p1)) []","im(S(Rx_p1,Tx_p1)) []"
1,-0.02495152,-0.1512218636
1.01,-0.0680167411,-0.1372041534
1.02,-0.1050778058,-0.1112039174
1.03,-0.1328840738,-0.07550631485
1.04,-0.1489973533,-0.03325307904
1.05,-0.1520097759,0.01183356181
1.06,-0.1416708602,0.05577988306
1.07,-0.1189117346,0.09471343094
1.08,-0.08576367446,0.1252079551
1.09,-0.04517769618,0.1445893098
1.1,-0.0007610469732,0.1511744161
1.11,0.04354582606,0.1444212923
1.12,0.08382260435,0.1249761977
1.13,0.1165205402,0.09461335132
1.14,0.1387798663,0.05607261838
1.15,0.1486840953,0.01281004266
1.16,0.1454279648,-0.03131577082
1.17,0.1293838397,-0.07239244961
1.18,0.1020608871,-0.1068056302
1.19,0.0659613739,-0.1315613694
1.2,0.02434801562,-0.1445497701
1.21,-0.0190554907,-0.1447261149
1.22,-0.06040259905,-0.1321937223
1.23,-0.09606927919,-0.1081820819
1.24,-0.122974932,-0.07492365184
1.25,-0.1388499327,-0.03544206056
1.26,-0.1424263234,0.006727571386
1.27,-0.1335357215,0.0478596065
1.28,-0.1131073782,0.08437035276
1.29,-0.08306862142,0.1131318414
1.3,-0.04615875125,0.1317392028
1.31,-0.005674995484,0.1387088659
1.32,0.03482527779,0.133591677
1.33,0.07183870781,0.1169931159
1.34,0.1022184701,0.09050127609
1.35,0.1234391409,0.05653137628
1.36,0.1338020143,0.01810256412
1.37,0.1325648965,-0.02143191114
1.38,0.1199874349,-0.05867682056
1.39,0.09729052759,-0.09048400508
1.4,0.06653562997,-0.114214144
1.41,0.03043623191,-0.1279501548
1.42,-0.007881064098,-0.1306458489
1.43,-0.04514491514,-0.1221992899
1.44,-0.07821441539,-0.1034467164
1.45,-0.1043385836,-0.07607935863
1.46,-0.1213795486,-0.04249151367
1.47,-0.1279822068,-0.005573424655
1.48,-0.1236777003,0.03153350332
1.49,-0.1089134511,0.06569904725
1.5,-0.08500828106,0.09406294663
1.51,-0.05403694821,0.1142695482
1.52,-0.01865382832,0.1246597992
1.53,0.01812988044,0.1244054729
1.54,0.05319747832,0.1135750242
1.55,0.08358640761,0.09312578319
1.56,0.106735265,0.06482295724
1.57,0.1206980627,0.03109170615
1.58,0.1243080205,-0.005186028214
1.59,0.1172770116,-0.04091364655
1.6,0.1002218263,-0.07304125587
1.61,0.07461429874,-0.098824642
1.62,0.04265863872,-0.116060031
1.63,0.007105501714,-0.1232744492
1.64,-0.02898210212,-0.1198548796
1.65,-0.06249152632,-0.1061043468
1.66,-0.09052944144,-0.08321917018
1.67,-0.1106736641,-0.05318841408
1.68,-0.1211855891,-0.01862344429
1.69,-0.1211640699,0.01746815688
1.7,-0.1106265183,0.05194485892
1.71,-0.09050933206,0.0818066357
1.72,-0.06258694663,0.1044591034
1.73,-0.02931618746,0.1179425834
1.74,0.006380520148,0.1211052851
1.75,0.04137382196,0.1137047388
1.76,0.07260475496,0.09642808142
1.77,0.09735565891,0.07082920803
1.78,0.1134901355,0.03918844457
1.79,0.1196403331,0.004307540052
1.8,0.115324704,-0.03074127479
1.81,0.1009858279,-0.06288923225
1.82,0.07794530113,-0.08934302932
1.83,0.04828033547,-0.1078302745
1.84,0.0146338626,-0.1167964037
1.85,-0.02002408156,-0.1155357521
1.86,-0.0526616684,-0.1042456872
1.87,-0.08045311385,-0.08399986845
1.88,-0.1010249973,-0.05664410955
1.89,-0.1126593559,-0.02462527035
1.9,-0.114436131,0.009230532189
1.91,-0.1063033221,0.04196986119
1.92,-0.08906990665,0.07077122894
1.93,-0.06432356431,0.09318871493
1.94,-0.03428186118,0.1073588495
1.95,-0.001591210243,0.1121534062
1.96,0.03090784088,0.1072659025
1.97,0.0604279675,0.09322568722
1.98,0.08447347573,0.0713399174
1.99,0.1010494869,0.04356993503
2,0.1088246473,0.01235399881
2.01,0.1072345117,-0.01960741282
2.02,0.09651809724,-0.04958476148
2.03,0.07768591461,-0.07505103278
2.04,0.05242355998,-0.0938923369
2.05,0.02294020776,-0.1045803364
2.06,-0.008224313379,-0.1062928761
2.07,-0.0384170807,-0.09897376611
2.08,-0.0650958373,-0.08332785275
2.09,-0.08604038922,-0.06075287849
2.1,-0.09953444226,-0.03321474383
2.11,-0.1045033898,-0.003077257945
2.12,-0.1005973686,0.02709903697
2.13,-0.08821348161,0.05477210661
2.14,-0.06845608047,0.0776299656
2.15,-0.04303900156,0.09378126866
2.16,-0.01413829031,0.101909574
2.17,0.01579214215,0.1013789712
2.18,0.04422659059,0.09228278379
2.19,0.06877835881,0.07543170777
2.2,0.08739799929,0.05228266419
2.21,0.09854277721,0.02481444537
2.22,0.1013035253,-0.004639459255
2.23,0.09547854532,-0.03358699885
2.24,0.08158854036,-0.05958644037
2.25,0.06083138738,-0.08045072115
2.26,0.03498049789,-0.09443035274
2.27,0.006235169089,-0.1003596845
2.28,-0.02296468335,-0.09775431926
2.29,-0.0501440263,-0.08685147977
2.3,-0.07300131851,-0.06858983104
2.31,-0.08960276874,-0.04453029536
2.32,-0.09854589934,-0.01672433308
2.33,-0.09907856066,0.01245940221
2.34,-0.0911632093,0.04053557031
2.35,-0.07548081635,0.06511297972
2.36,-0.05337383616,0.08409794835
2.37,-0.02673282042,0.09587291238
2.38,0.002163928085,0.09943499936
2.39,0.03084421627,0.09448259111
2.4,0.05685294838,0.081442258
2.41,0.07796228546,0.06143349069
2.42,0.09236297673,0.03617396294
2.43,0.09882036165,0.007833177844
2.44,0.09678147204,-0.02115316278
2.45,0.08642378818,-0.04829226375
2.46,0.06864117863,-0.07124888755
2.47,0.04496795835,-0.08804702971
2.48,0.017447368,-0.09724110696
2.49,-0.01154435803,-0.09804168787
2.5,-0.03950323796,-0.09038466274
2.51,-0.06401436441,-0.07493761695
2.52,-0.08296145549,-0.05304262259
2.53,-0.09471082704,-0.02660022289
2.54,-0.09825363077,0.002095437404
2.55,-0.09329379497,0.0305560475
2.56,-0.08027382807,0.05631574316
2.57,-0.06033609108,0.07714592995
2.58,-0.03522283106,0.09124944616
2.59,-0.007123688241,0.09741696805
2.6,0.02151594398,0.09513186266
2.61,0.04820883705,0.08461423745
2.62,0.07064326174,0.06680031792
2.63,0.08688456709,0.0432590226
2.64,0.09554323727,0.01605318215
2.65,0.0958946568,-0.01244223944
2.66,0.08794013386,-0.03974876292
2.67,0.07240398074,-0.06350134672
2.68,0.05066715352,-0.08165449112
2.69,0.02464359052,-0.09265935298
2.7,-0.003389548921,-0.09559639621
2.71,-0.03099251422,-0.09025214087
2.72,-0.05577659174,-0.07713360961
2.73,-0.07561184092,-0.05741964035
2.74,-0.08881072476,-0.03285383042
2.75,-0.09427171595,-0.00558899475
2.76,-0.09157064841,0.02200279697
2.77,-0.08099231578,0.04753765526
2.78,-0.06350015562,0.0688264841
2.79,-0.04064731381,0.08406276957
2.8,-0.01443747035,0.09197541443
2.81,0.01285191977,0.09193375173
2.82,0.03886822105,0.08399620763
2.83,0.06138662751,0.06889909212
2.84,0.07850004192,0.0479872242
2.85,0.08877967124,0.02309308496
2.86,0.09139294624,-0.00362448977
2.87,0.08616923121,-0.02986777196
2.88,0.0736083894,-0.05339744488
2.89,0.05483220161,-0.0722228489
2.9,0.03148347438,-0.08476912744
2.91,0.005582014463,-0.09000742268
2.92,-0.02064986217,-0.08753758232
2.93,-0.04497724764,-0.07761697048
2.94,-0.06534186632,-0.06113356754
2.95,-0.08003475742,-0.03952620823
2.96,-0.08783814086,-0.01465916379
2.97,-0.08812491251,0.01133802737
2.98,-0.08090784494,0.03625181995
2.99,-0.06683480038,0.05797174715
3,-0.04713074624,0.07466772044
3.01,-0.02349173914,0.08494286193
3.02,0.002060038308,0.08794929997
3.03,0.02734794919,0.08345747763
3.04,0.05022489994,0.07187339237
3.05,0.06875431437,0.05420249318
3.06,0.08137301771,0.03196336236
3.07,0.08702247518,0.007058452329
3.08,0.08523744845,-0.01838730041
3.09,0.07618465274,-0.04220648935
3.1,0.06064813821,-0.06237281229
3.11,0.03996254843,-0.0771728003
3.12,0.01589976728,-0.08535123125
3.13,-0.009481605244,-0.08621790151
3.14,-0.03401133768,-0.07970661767
3.15,-0.05559246262,-0.06638125003
3.16,-0.07238031774,-0.04738813798
3.17,-0.08294046692,-0.02435868653
3.18,-0.08637193646,0.0007297407715
3.19,-0.0823850747,0.02572291129
3.2,-0.07132716,0.04847442604
3.21,-0.05415332736,0.06703022845
3.22,-0.03234508125,0.07979702373
3.23,-0.007783207982,0.08568000079
3.24,0.01741410421,0.08417781782
3.25,0.04107404114,0.07542645274
3.26,0.06115703935,0.06018792548
3.27,0.07593343916,0.03978468871
3.28,0.08413349082,0.01598523875
3.29,0.08505755638,-0.009149203949
3.3,0.07863679025,-0.03344364036
3.31,0.06543889963,-0.0547982628
3.32,0.04661840206,-0.07137092064
3.33,0.02381568476,-0.08173708802
3.34,-0.000986308854,-0.08501329555
3.35,-0.02563519209,-0.08093319592
3.36,-0.04799683682,-0.06986960923
3.37,-0.06614116765,-0.05280066563
3.38,-0.07850973262,-0.03122310274
3.39,-0.08405036778,-0.007020440406
3.4,-0.0823072101,0.01770227372
3.41,-0.07345828918,0.04080253209
3.42,-0.05829758366,0.06028701947
3.43,-0.03816334336,0.07448445573
3.44,-0.01481921156,0.08218952822
3.45,0.00970118963,0.08276544001
3.46,0.03327238942,0.07619631827
3.47,0.05386218038,0.06308519696
3.48,0.06970747302,0.04459810432
3.49,0.07946558836,0.02235951688
3.5,0.08232796145,-0.001691332796
3.51,0.07808663444,-0.02547045764
3.52,0.06714813626,-0.04693040369
3.53,0.05049399486,-0.0642369573
3.54,0.02959179146,-0.07592596393
3.55,0.006264932798,-0.08102684235
3.56,-0.0174671824,-0.07914241913
3.57,-0.03956448908,-0.07047861526
3.58,-0.05814178209,-0.05582193476
3.59,-0.07162931676,-0.03646724038
3.6,-0.07890482994,-0.01410255862
3.61,-0.07938595741,0.009338731031
3.62,-0.07307556351,0.0318452992
3.63,-0.06055662848,0.05150032867
3.64,-0.04293769234,0.06664425923
3.65,-0.02175405507,0.07601406133
3.66,0.001166374229,0.0788474609
3.67,0.02386080546,0.07494366222
3.68,0.04439925908,0.06467590592
3.69,0.06104794268,0.04895532346
3.7,0.07241458,0.02914965519
3.71,0.07756364645,0.006964143756
3.72,0.07609213315,-0.01570500684
3.73,0.06815987006,-0.03693204707
3.74,0.0544722956,-0.05492431634
3.75,0.03621753856,-0.06817248747
3.76,0.01496345265,-0.075575982
3.77,-0.007476492662,-0.07653329599
3.78,-0.0291970646,-0.07098997211
3.79,-0.04836192649,-0.05944051345
3.8,-0.06335770347,-0.04288436365
3.81,-0.07292868763,-0.0227398638
3.82,-0.07628108557,-0.0007235360994
3.83,-0.07314827501,0.02129513667
3.84,-0.06381178234,0.0414512902
3.85,-0.04907635656,0.0580414907
3.86,-0.03020130104,0.06966674608
3.87,-0.008793829012,0.07534983693
3.88,0.01332665824,0.07461721153
3.89,0.03428206245,0.06753861255
3.9,0.05229405326,0.05472109266
3.91,0.06583426881,0.03725785148
3.92,0.07375365992,0.01663608302
3.93,0.07538007392,-0.005388546699
3.94,0.0705757768,-0.02694035022
3.95,0.05974992316,-0.04618258211
3.96,0.04382473661,-0.06147354507
3.97,0.02415805305,-0.07150662494
3.98,0.00242858089,-0.07542230901
3.99,-0.01950656485,-0.07288252933
4,-0.03977007264,-0.06410080141
4.01,-0.05662497444,-0.04982534428
4.02,-0.0686237985,-0.03127636262
4.03,-0.07473348573,-0.01004260796
4.04,-0.0744252023,0.01205412567
4.05,-0.06772112017,0.03311508714
4.06,-0.05519389314,0.05132788451
4.07,-0.03791861928,0.06512295682
4.08,-0.01738120237,0.07330961769
4.09,0.00464915625,0.07517976962
4.1,0.026272427,0.07057012645
4.11,0.0456220267,0.05987734691
4.12,0.06102663385,0.04402456829
4.13,0.07115541894,0.02438207827
4.14,0.07513394976,0.002648899574
4.15,0.07262055219,-0.01929447539
4.16,0.06383634431,-0.03954938648
4.17,0.04954621683,-0.05636407774
4.18,0.03099234556,-0.06828607764
4.19,0.009786008663,-0.07428851359
4.2,-0.01223283362,-0.0738592639
4.21,-0.03315588638,-0.0670451169
4.22,-0.05117272164,-0.0544470731
4.23,-0.06472824773,-0.03716723629
4.24,-0.07265764139,-0.01671200957
4.25,-0.07428694384,0.005139841437
4.26,-0.0694905711,0.02649261528
4.27,-0.05870080711,0.04549890771
4.28,-0.04286859056,0.06052014553
4.29,-0.0233791949,0.07026838038
4.3,-0.001930352061,0.0739170065
4.31,0.01961636524,0.07117085222
4.32,0.03939779483,0.06228970792
4.33,0.05571083949,0.04806346774
4.34,0.06715942959,0.02974130928
4.35,0.07277407301,0.00892134021
4.36,0.07209375057,-0.01258944964
4.37,0.06520327163,-0.03293257137
4.38,0.05272313447,-0.05035897667
4.39,0.03575309003,-0.06337957202
4.4,0.0157746183,-0.07089234144
4.41,-0.005478952682,-0.0722752463
4.42,-0.02617322732,-0.06743712457
4.43,-0.04453125599,-0.05682250895
4.44,-0.05898606287,-0.04137029622
4.45,-0.06831410634,-0.02243017674
4.46,-0.07173834744,-0.00164433186
4.47,-0.06899231413,0.01919517793
4.48,-0.06033997093,0.03830092089
4.49,-0.04655003349,0.05404317863
4.5,-0.02882727337,0.06508852949
4.51,-0.008707005205,0.07051220643
4.52,0.01207796916,0.0698748431
4.53,0.03174642293,0.06325733211
4.54,0.04862097445,0.05125113068
4.55,0.0612706009,0.03490514971
4.56,0.06863136185,0.01563403042
4.57,0.07009523549,-0.004904158644
4.58,0.06555973974,-0.02495024771
4.59,0.05543437143,-0.042794144
4.6,0.04060356403,-0.056920111
4.61,0.02234952778,-0.06613489101
4.62,0.00224169256,-0.06966792908
4.63,-0.0179977543,-0.06723536061
4.64,-0.03664078071,-0.05906251173
4.65,-0.0521004229,-0.04586316993
4.66,-0.06306529713,-0.02877752022
4.67,-0.06861039084,-0.009274107327
4.68,-0.06827483786,0.01097580897
4.69,-0.062100176,0.03024083718
4.7,-0.05062591759,0.04687690113
4.71,-0.03484285643,0.05946707928
4.72,-0.01610809206,0.06694201044
4.73,0.003971022309,0.06867067618
4.74,0.02367417554,0.06451386166
4.75,0.04131499944,0.05483573934
4.76,0.05538510376,0.04047255452
4.77,0.06468298949,0.02266102305
4.78,0.06841683593,0.002932477996
4.79,0.06627234428,-0.01701826752
4.8,0.05843976777,-0.03547818948
4.81,0.04559772049,-0.05086305409
4.82,0.02885504542,-0.0618535529
4.83,0.009655623666,-0.0675088529
4.84,-0.0103457868,-0.0673477317
4.85,-0.02942606288,-0.06139021659
4.86,-0.04594232663,-0.05015602347
4.87,-0.0584738187,-0.03461981353
4.88,-0.06594472767,-0.01612703037
4.89,-0.06771726968,0.003722477629
4.9,-0.06364686082,0.02321300911
4.91,-0.05409450144,0.04066172188
4.92,-0.03989521629,0.05456456024
4.93,-0.02228524053,0.06372665601
4.94,-0.002794269301,0.0673657891
4.95,0.01688782623,0.06517983618
4.96,0.03505815008,0.0573722896
4.97,0.05014889765,0.0446336176
4.98,0.06086344247,0.0280801312
4.99,0.06628846263,0.009155775791
5,0.06597230274,-0.01049446271
5.01,0.05996276703,-0.02916835029
5.02,0.04880114277,-0.04525471286
5.03,0.03347313436,-0.05737321564
5.04,0.01532119692,-0.06449337294
5.05,-0.004073849186,-0.06602243991
5.06,-0.02303136888,-0.06185464347
5.07,-0.03991735871,-0.05237766993
5.08,-0.05328590846,-0.03843612657
5.09,-0.06200333701,-0.02125548758
5.1,-0.0653442915,-0.002333481984
5.11,-0.0630516617,0.01669132348
5.12,-0.05535541638,0.0341820921
5.13,-0.04294911577,0.04864493092
5.14,-0.02692656372,0.05885650733
5.15,-0.008684504962,0.06396715732
5.16,0.01019985264,0.06357084182
5.17,0.02810564635,0.05773629274
5.18,0.04350756357,0.04699711967
5.19,0.05510547181,0.03230221219
5.2,0.06193349605,0.01493116065
5.21,0.06343948447,-0.003617660112
5.22,0.05952846192,-0.02175648325
5.23,0.05056682369,-0.03794382143
5.24,0.03734739281,-0.05081485599
5.25,0.02101876182,-0.05929559942
5.26,0.002985290359,-0.06269141007
5.27,-0.01521350459,-0.06074272052
5.28,-0.03203383134,-0.05364367604
5.29,-0.04605772879,-0.04202252224
5.3,-0.0561115504,-0.0268857676
5.31,-0.06136307533,-0.009531117487
5.32,-0.06138936861,0.008563304826
5.33,-0.0562100017,0.02586406194
5.34,-0.04628314152,0.04091135522
5.35,-0.0324650821,0.05244112488
5.36,-0.01593678359,0.05949023588
5.37,0.001896338569,0.06147613663
5.38,0.01952297511,0.05824451082
5.39,0.03545296757,0.05008108782
5.4,0.04834230226,0.03768672297
5.41,0.0571057056,0.0221178702
5.42,0.06100751595,0.004697408656
5.43,0.05972328788,-0.01309677599
5.44,0.05336698302,-0.02975621059
5.45,0.04248142982,-0.04386891232
5.46,0.02799276605,-0.05423852719
5.47,0.01113257053,-0.05998554439
5.48,-0.006665900813,-0.06062204285
5.49,-0.02388876028,-0.05609358724
5.5,-0.03906969836,-0.04678460235
5.51,-0.0509145703,-0.03348659908
5.52,-0.0584117991,-0.01733175347
5.53,-0.06091915523,0.0003027099381
5.54,-0.05821940529,0.01791135889
5.55,-0.05053991399,0.03398877749
5.56,-0.03853432285,0.04715828264
5.57,-0.0232276631,0.05629011457
5.58,-0.005929410944,0.06059890207
5.59,0.0118782119,0.05971191085
5.6,0.02866719918,0.05370204342
5.61,0.04299510276,0.04308256677
5.62,0.05362942464,0.0287638417
5.63,0.05965425917,0.01197563037
5.64,0.06054986778,-0.005838425711
5.65,0.05623817707,-0.02314510471
5.66,0.04709013077,-0.03845394546
5.67,0.0338941397,-0.05044614637
5.68,0.01778827284,-0.05808879483
5.69,0.0001620134908,-0.0607244467
5.7,-0.017463915,-0.05812820543
5.71,-0.03356920982,-0.05052728016
5.72,-0.04676566781,-0.0385812801
5.73,-0.05591740078,-0.02332494117
5.74,-0.060239102,-0.006078273015
5.75,-0.05936380035,0.01166803119
5.76,-0.05337421445,0.0283819162
5.77,-0.04279501025,0.0426227309
5.78,-0.02854669041,0.05316586654
5.79,-0.01186519743,0.05910842517
5.8,0.005805700009,0.05994675845
5.81,0.0229398097,0.05561919681
5.82,0.03806075511,0.04651034626
5.83,0.04986953902,0.03341669268
5.84,0.05735636789,0.01747662506
5.85,0.05988708676,7.107355173E-05
5.86,0.05725682184,-0.01729651265
5.87,0.0497063095,-0.03313036619
5.88,0.03789964954,-0.04607146512
5.89,0.02286557108,-0.05501429637
5.9,0.005907449616,-0.05920127732
5.91,-0.01151000917,-0.05828677914
5.92,-0.02788752811,-0.05236536599
5.93,-0.0418204611,-0.04196198393
5.94,-0.05211929089,-0.02798512971
5.95,-0.05791108589,-0.01164721496
5.96,-0.05871327883,0.005640856374
5.97,-0.05447356116,0.02239170067
5.98,-0.04557263648,0.03716948685
5.99,-0.03278978657,0.04871296176
6,-0.01723439553,0.05604293625
