"Freq [GHz]","re(S(Rx_p1,Tx_p1)) []","im(S(Rx_p1,Tx_p1)) []"
1,-0.06526831609,-0.02965201915
1.01,-0.07051161075,-0.008967080536
1.02,-0.06943886315,0.01214908459
1.03,-0.06226513529,0.03183936796
1.04,-0.04972871884,0.04841123298
1.05,-0.03301402741,0.06047625394
1.06,-0.01364024274,0.06705936664
1.07,0.006673602947,0.06767065176
1.08,0.0261554831,0.06233589658
1.09,0.04312757417,0.05158542661
1.1,0.05614296958,0.03640354984
1.11,0.0641023641,0.01814332692
1.12,0.0663427538,-0.00158671004
1.13,0.06269199008,-0.02105574566
1.14,0.05348499985,-0.03855442549
1.15,0.03953968222,-0.05253889309
1.16,0.0220929741,-0.06176430505
1.17,0.002700363642,-0.0653969658
1.18,-0.01689485406,-0.06309489338
1.19,-0.03491324034,-0.05504820798
1.2,-0.04969970953,-0.04197335452
1.21,-0.0598787374,-0.02505881259
1.22,-0.06448927132,-0.005864411714
1.23,-0.06308495497,0.01381874281
1.24,-0.05578762186,0.03213598201
1.25,-0.0432860447,0.04734872597
1.26,-0.02677735389,0.05800788113
1.27,-0.007854800637,0.06310225785
1.28,0.01164812269,0.0621650141
1.29,0.02984163437,0.05532509882
1.3,0.04497216183,0.04329651534
1.31,0.05560215739,0.02730528104
1.32,0.06075691211,0.008961331104
1.33,0.06002156678,-0.009910691079
1.34,0.05357726011,-0.02746273361
1.35,0.04217259007,-0.042014971
1.36,0.0270343336,-0.0522260467
1.37,0.009728617614,-0.05722299675
1.38,-0.008010526925,-0.05667711614
1.39,-0.02446482806,-0.05081887015
1.4,-0.03810648518,-0.04039248445
1.41,-0.04774471931,-0.02655802341
1.42,-0.05262926369,-0.01075462544
1.43,-0.05250187046,0.005457629984
1.44,-0.04759363728,0.02055839927
1.45,-0.03857247441,0.03321260125
1.46,-0.02645046588,0.04238636876
1.47,-0.01246457706,0.04742378096
1.48,0.002054213309,0.04808022249
1.49,0.01580872784,0.04451358533
1.5,0.02764793441,0.0372390504
1.51,0.03665483278,0.02705634341
1.52,0.04220488523,0.01495991223
1.53,0.043993877,0.002042467227
1.54,0.04203733297,-0.01059895173
1.55,0.03664586462,-0.02194731288
1.56,0.02838196611,-0.03113566959
1.57,0.01800392586,-0.03750055366
1.58,0.006401950512,-0.04061800586
1.59,-0.005469324391,-0.0403226506
1.6,-0.01665867576,-0.0367106796
1.61,-0.02628385226,-0.03012762437
1.62,-0.03359242389,-0.02114164845
1.63,-0.03801530841,-0.01050306893
1.64,-0.03920995448,0.0009088490681
1.65,-0.03708980147,0.01214998843
1.66,-0.03183661141,0.02228332842
1.67,-0.02389281406,0.03045429284
1.68,-0.01393224147,0.03596371978
1.69,-0.002809512811,0.03833177899
1.7,0.008509334257,0.03734600131
1.71,0.01902991481,0.03308735411
1.72,0.02781904803,0.02593003418
1.73,0.03409207776,0.01651321542
1.74,0.03728876351,0.005686078028
1.75,0.03712922809,-0.005569363197
1.76,0.03364329477,-0.01623028628
1.77,0.02716935459,-0.02533057025
1.78,0.01832231426,-0.03205349917
1.79,0.007933725261,-0.03580974491
1.8,-0.003029600851,-0.03629232428
1.81,-0.01355976338,-0.03350286403
1.82,-0.02270467408,-0.02774680551
1.83,-0.02965754956,-0.0195986882
1.84,-0.03382997828,-0.009841904825
1.85,-0.03490167646,0.0006100840559
1.86,-0.03284285453,0.01080243749
1.87,-0.02790820464,0.01982831681
1.88,-0.02060449089,0.02691024793
1.89,-0.01163623495,0.03146613883
1.9,-0.001835799844,0.03315465986
1.91,0.007914836688,0.03189706044
1.92,0.01676315694,0.02787489308
1.93,0.0239591092,0.02150528917
1.94,0.0289162205,0.01339720158
1.95,0.03125643582,0.004293301879
1.96,0.03083591397,-0.004997021593
1.97,0.0277506339,-0.01366783432
1.98,0.02232219776,-0.0209843843
1.99,0.0150655957,-0.02634322609
2,0.006641890596,-0.02932029063
2.01,-0.002200228865,-0.02970338639
2.02,-0.01068931575,-0.02750674705
2.03,-0.01809724457,-0.02296654018
2.04,-0.0238011158,-0.01651768206
2.05,-0.02733579758,-0.008753797375
2.06,-0.02843254115,-0.0003736178984
2.07,-0.02704016805,0.007881605399
2.08,-0.02332678705,0.01529414749
2.09,-0.01766175452,0.02123329821
2.1,-0.01057948194,0.02521037577
2.11,-0.002728512663,0.0269200641
2.12,0.00518918608,0.02626417987
2.13,0.0124827443,0.02335574785
2.14,0.01853437436,0.01850330552
2.15,0.02285280962,0.01217742179
2.16,0.02511320908,0.004963240815
2.17,0.0251801193,-0.002495782573
2.18,0.02311200914,-0.009557072196
2.19,0.01914790682,-0.01563515571
2.2,0.01367850636,-0.02024971473
2.21,0.007205545287,-0.02306148213
2.22,0.0002941276658,-0.02389359547
2.23,-0.006477085676,-0.022737716
2.24,-0.01256324187,-0.01974579902
2.25,-0.0174944506,-0.01520966043
2.26,-0.02090806651,-0.009531302521
2.27,-0.02257062847,-0.003187303907
2.28,-0.02238907809,0.003309505943
2.29,-0.02041174058,0.009448265375
2.3,-0.01682011157,0.01475593055
2.31,-0.01191276344,0.01882906802
2.32,-0.006082735073,0.02136036911
2.33,0.0002102880212,0.02215896599
2.34,0.006471743659,0.02116376767
2.35,0.01220659528,0.01844907179
2.36,0.01695484259,0.01422174988
2.37,0.02032627982,0.00880946047
2.38,0.02203225254,0.002639708395
2.39,0.02191184756,-0.003789820217
2.4,0.0199498421,-0.009948384302
2.41,0.01628395938,-0.01531455174
2.42,0.01119959665,-0.01942063799
2.43,0.005111206882,-0.02189531814
2.44,-0.001469157069,-0.0225001451
2.45,-0.007974143266,-0.02115584231
2.46,-0.01383082185,-0.01795493527
2.47,-0.01851324428,-0.01315850868
2.48,-0.02159257538,-0.007176503132
2.49,-0.02277946492,-0.0005327974383
2.5,-0.02195392434,0.006181884231
2.51,-0.01917919427,0.0123646979
2.52,-0.01469778591,0.01745749882
2.53,-0.008909839338,0.02099987111
2.54,-0.002335906825,0.02267284837
2.55,0.004432016852,0.02232882711
2.56,0.01078614984,0.02000471495
2.57,0.0161595664,0.01591720578
2.58,0.02007816963,0.01044099161
2.59,0.0222030077,0.004072467505
2.6,0.02235913242,-0.00261713866
2.61,0.02054871839,-0.009034410034
2.62,0.0169478119,-0.01461704962
2.63,0.01188766217,-0.01888297895
2.64,0.005822939611,-0.02147103979
2.65,-0.0007098442142,-0.02217012614
2.66,-0.00713978618,-0.02093476727
2.67,-0.01291075882,-0.01788641826
2.68,-0.01752826708,-0.01330087839
2.69,-0.02060036697,-0.007583275212
2.7,-0.02186962153,-0.001232880185
2.71,-0.02123380809,0.005199349605
2.72,-0.0187539174,0.01115717877
2.73,-0.01464886575,0.0161258845
2.74,-0.009277255796,0.01967581663
2.75,-0.003107446381,0.02149926596
2.76,0.003321905448,0.02143755565
2.77,0.009447839494,0.0194958859
2.78,0.01473195271,0.01584432062
2.79,0.01870800445,0.01080438188
2.8,0.02102401601,0.004821952213
2.81,0.02147486988,-0.001571524183
2.82,0.02002208758,-0.00780633446
2.83,0.01679853709,-0.01332608609
2.84,0.01209721288,-0.01763876881
2.85,0.006344810148,-0.02036232133
2.86,6.240483265E-05,-0.0212601282
2.87,-0.006183041992,-0.02026279483
2.88,-0.01183159728,-0.01747391757
2.89,-0.01638240159,-0.01315923031
2.9,-0.0194396297,-0.007720272042
2.91,-0.02074781396,-0.0016553621
2.92,-0.02021316167,0.004488012706
2.93,-0.01790904953,0.01016446654
2.94,-0.01406559867,0.01488045999
2.95,-0.009044904221,0.01823769428
2.96,-0.003304908831,0.01996620472
2.97,0.002644089711,0.01994447256
2.98,0.008285816633,0.01820535285
2.99,0.01314284166,0.01492810426
3,0.01681591176,0.01041812605
3.01,0.01901473124,0.005077015455
3.02,0.01957820072,-0.0006338218176
3.03,0.01848325125,-0.006232560113
3.04,0.01584244409,-0.01125603686
3.05,0.01189135018,-0.01529563884
3.06,0.006967326003,-0.01802767381
3.07,0.001481664563,-0.01923653695
3.08,-0.004112737534,-0.01882957776
3.09,-0.009356029498,-0.0168430926
3.1,-0.01381624775,-0.01343930093
3.11,-0.01712228656,-0.008894537046
3.12,-0.0189929952,-0.003579246624
3.13,-0.01926047078,0.002069234919
3.14,-0.01788574272,0.007579700499
3.15,-0.01496528644,0.01248396643
3.16,-0.01072721736,0.01635521641
3.17,-0.005516637882,0.01884492291
3.18,0.0002295637312,0.01971519407
3.19,0.006017182393,0.0188633761
3.2,0.01133611488,0.01633606372
3.21,0.01570544755,0.01233037139
3.22,0.01871819633,0.007181374146
3.23,0.02008131183,0.001335957039
3.24,0.01964666372,-0.00468522428
3.25,0.01742933704,-0.01033455049
3.26,0.01361068543,-0.01508871147
3.27,0.008525091119,-0.01849937922
3.28,0.002631116174,-0.02023799919
3.29,-0.003530515629,-0.02012981668
3.3,-0.009388114812,-0.01817324996
3.31,-0.01439426492,-0.01454221437
3.32,-0.01807939238,-0.009570822213
3.33,-0.02009803294,-0.003721811942
3.34,-0.02026289224,0.002458138634
3.35,-0.01856310122,0.008391608853
3.36,-0.0151647835,0.01352661024
3.37,-0.01039397206,0.01738991772
3.38,-0.004703804339,0.01963210332
3.39,0.001370433002,0.02005978927
3.4,0.007263632321,0.01865208007
3.41,0.01243514104,0.01555986484
3.42,0.01641952269,0.01108849268
3.43,0.01886888743,0.005666007795
3.44,0.0195829168,-0.0001994925006
3.45,0.01852409797,-0.005968876735
3.46,0.01581725168,-0.01112244978
3.47,0.01173400641,-0.01520704448
3.48,0.006664278548,-0.01787547061
3.49,0.001077933144,-0.01891500028
3.5,-0.004519462261,-0.01826276335
3.51,-0.009632555788,-0.01600723545
3.52,-0.01381965219,-0.01237629064
3.53,-0.01672997563,-0.007713446894
3.54,-0.01813179046,-0.002444863435
3.55,-0.01792935277,0.00295970147
3.56,-0.0161677054,0.008028424659
3.57,-0.01302538114,0.0123278668
3.58,-0.008796060596,0.01549901402
3.59,-0.003861075064,0.01728609064
3.6,0.001344700478,0.01755601162
3.61,0.006370588095,0.01630716316
3.62,0.01078831659,0.01366708522
3.63,0.01422759105,0.009879515417
3.64,0.01640620133,0.00528207858
3.65,0.01715234189,0.0002766131776
3.66,0.01641747576,-0.004705333142
3.67,0.01427885133,-0.009238968303
3.68,0.01093161408,-0.012941698
3.69,0.006671283638,-0.01550468285
3.7,0.001868125564,-0.01671799061
3.71,-0.003064420665,-0.01648736076
3.72,-0.007704639376,-0.01484128735
3.73,-0.01165789786,-0.01192791171
3.74,-0.0145895844,-0.008002036197
3.75,-0.01625295164,-0.003403360002
3.76,-0.01650961018,0.001472263287
3.77,-0.01534101013,0.006206192623
3.78,-0.01284996996,0.01039226816
3.79,-0.00925210573,0.0136711022
3.8,-0.004857821184,0.01576057922
3.81,-4.62796946E-05,0.0164800362
3.82,0.004766562901,0.01576607773
3.83,0.009163279962,0.01367862865
3.84,0.01276075209,0.01039659743
3.85,0.01524341088,0.006203360322
3.86,0.01639110042,0.001463121356
3.87,0.01609908633,-0.003410010089
3.88,0.01438833619,-0.007987716772
3.89,0.01140497096,-0.01186495616
3.9,0.007408689725,-0.01469598875
3.91,0.002750932485,-0.01622573386
3.92,-0.002155514828,-0.0163135414
3.93,-0.006872937726,-0.01494705389
3.94,-0.01097795988,-0.01224465995
3.95,-0.0141001157,-0.008446048041
3.96,-0.01595613516,-0.003891469823
3.97,-0.01637664249,0.001008587764
3.98,-0.01532260088,0.005810652916
3.99,-0.01288975523,0.01007903107
4,-0.009300452949,0.01342624075
4.01,-0.004883449668,0.01554923261
4.02,-4.350737186E-05,0.01625784375
4.03,0.004776363311,0.01549265475
4.04,0.009136393194,0.01333043926
4.05,0.012641245,0.009976623118
4.06,0.01497687822,0.00574547247
4.07,0.01593948832,0.001029967932
4.08,0.01545372376,-0.003735640847
4.09,0.01357847875,-0.008116882967
4.1,0.01049982602,-0.01171966868
4.11,0.006511951849,-0.01422649394
4.12,0.001988145055,-0.01542479989
4.13,-0.002655156083,-0.01522489311
4.14,-0.006997635651,-0.01366593273
4.15,-0.01065383899,-0.01090971234
4.16,-0.01330769969,-0.007223173444
4.17,-0.01473971512,-0.00295165388
4.18,-0.01484446293,0.001514305257
4.19,-0.01363717324,0.005775271538
4.2,-0.01124916703,0.009458883214
4.21,-0.007913023241,0.01225219223
4.22,-0.003939242795,0.01392762016
4.23,0.0003131422798,0.01436048849
4.24,0.004469159711,0.01353695319
4.25,0.008170714461,0.01155208522
4.26,0.0111068133,0.008598705303
4.27,0.01303876234,0.004948328251
4.28,0.01381846265,0.0009261471614
4.29,0.01339859662,-0.00311764009
4.3,0.01183420781,-0.00683769681
4.31,0.009275871382,-0.009922177305
4.32,0.005955281974,-0.01211790324
4.33,0.00216461712,-0.01325022282
4.34,-0.001768558325,-0.01323614969
4.35,-0.005508809438,-0.01208991015
4.36,-0.008740603747,-0.00992059756
4.37,-0.01119418638,-0.006922209135
4.38,-0.01266755895,-0.00335689439
4.39,-0.01304285014,0.0004672546591
4.4,-0.01229577382,0.004222122564
4.41,-0.01049738188,0.007587143332
4.42,-0.007807905741,0.0102763051
4.43,-0.004463108018,0.01206236083
4.44,-0.0007541883141,0.01279619223
4.45,0.002997147035,0.01241962452
4.46,0.00646638498,0.01097050183
4.47,0.009354312989,0.008579474119
4.48,0.01141307388,0.005458665454
4.49,0.01246783386,0.001883126722
4.5,0.01243207803,-0.001833347396
4.51,0.0113150969,-0.005365908956
4.52,0.009220930529,-0.008407367204
4.53,0.006338827686,-0.0106953057
4.54,0.002926076802,-0.01203512107
4.55,-0.000715210093,-0.0123168726
4.56,-0.004265205928,-0.0115244174
4.57,-0.007414854562,-0.009736042324
4.58,-0.009893108787,-0.007116614716
4.59,-0.01149044455,-0.00390207424
4.6,-0.01207656561,-0.0003777939716
4.61,-0.01161079766,0.003147119405
4.62,-0.01014438428,0.00636719016
4.63,-0.007814662775,0.009007120424
4.64,-0.004831835214,0.01084518867
4.65,-0.001459689734,0.01173153092
4.66,0.002007888868,0.01159986027
4.67,0.005272485635,0.01047180705
4.68,0.008056574414,0.008453724578
4.69,0.01012666842,0.005726442888
4.7,0.01131235447,0.002529011874
4.71,0.01151976713,-0.0008620835337
4.72,0.01073855081,-0.004156452494
4.73,0.009041892292,-0.007074137232
4.74,0.006579743855,-0.009368822873
4.75,0.003565862358,-0.01084810926
4.76,0.0002597363927,-0.01138928341
4.77,-0.003055160485,-0.01094937659
4.78,-0.00609508343,-0.009568712207
4.79,-0.008599831793,-0.007367628264
4.8,-0.01035476558,-0.004536566807
4.81,-0.01120921734,-0.001320235823
4.82,-0.01108972442,0.002002965664
4.83,-0.01000686969,0.005144646666
4.84,-0.008055000169,0.007831314937
4.85,-0.005404667828,0.009828346391
4.86,-0.002288263924,0.01096091071
4.87,0.001020054137,0.01112991146
4.88,0.004228477148,0.01032137247
4.89,0.007053589746,0.008608249704
4.9,0.009245974426,0.006144327908
4.91,0.01061296147,0.003150612655
4.92,0.01103631697,-0.0001046251762
4.93,0.01048310311,-0.003330336831
4.94,0.009008588137,-0.006239406606
4.95,0.006750865113,-0.00857501454
4.96,0.003917674701,-0.01013408389
4.97,0.0007667245207,-0.01078552672
4.98,-0.002418537013,-0.01048153035
4.99,-0.005355278853,-0.009260848161
5,-0.007787171857,-0.007243887819
5.01,-0.009507286339,-0.004620231779
5.02,-0.01037585153,-0.001629981826
5.03,-0.01033131021,0.001459094583
5.04,-0.00939383395,0.004376285354
5.05,-0.007661254271,0.006872102489
5.06,-0.005298118916,0.008739651269
5.07,-0.002519216816,0.009831351018
5.08,0.0004306337344,0.0100697218
5.09,0.003298507395,0.009451602757
5.1,0.005844971234,0.008045826104
5.11,0.007863522722,0.005984962929
5.12,0.009196378861,0.003452225707
5.13,0.009745578007,0.0006649245391
5.14,0.009478840565,-0.002143979913
5.15,0.00843009933,-0.004744690615
5.16,0.006695012548,-0.006928348987
5.17,0.004422088086,-0.008522577673
5.18,0.00180026878,-0.009403857025
5.19,-0.0009560350487,-0.009506071211
5.2,-0.003623412319,-0.008824819529
5.21,-0.005986344401,-0.007417328623
5.22,-0.007853464909,-0.005398023077
5.23,-0.009072162708,-0.002930023985
5.24,-0.009540566354,-0.0002130567993
5.25,-0.009216045038,0.002531533943
5.26,-0.008119507972,0.005077748554
5.27,-0.006334995357,0.007212757902
5.28,-0.004004336864,0.008754310887
5.29,-0.001317003607,0.009566351017
5.3,0.001504322322,0.009571478482
5.31,0.004221524452,0.008759029418
5.32,0.006600857187,0.007187816611
5.33,0.008433162888,0.004982978747
5.34,0.009552714644,0.002326890945
5.35,0.009852896835,-0.0005553479488
5.36,0.009297120953,-0.003414775952
5.37,0.007923743412,-0.006000209875
5.38,0.005844277648,-0.008080742623
5.39,0.003234824827,-0.009466993252
5.4,0.0003213198439,-0.0100290442
5.41,-0.002640172832,-0.009709257088
5.42,-0.005386348504,-0.008528614811
5.43,-0.007670611307,-0.006585847924
5.44,-0.00928581019,-0.004049304383
5.45,-0.01008357375,-0.001142237255
5.46,-0.009988365197,0.001877160677
5.47,-0.009004879798,0.00473912355
5.48,-0.007218047083,0.007186890365
5.49,-0.004785611049,0.009000184415
5.5,-0.001923971433,0.01001539145
5.51,0.001111393415,0.01014055362
5.52,0.004049097041,0.009363793076
5.53,0.00662645806,0.007754401409
5.54,0.00861328513,0.005456517404
5.55,0.009832654994,0.00267600039
5.56,0.01017679618,-0.000338273009
5.57,0.00961665122,-0.00331695947
5.58,0.008204275451,-0.005994578353
5.59,0.006067886326,-0.00813340188
5.6,0.003400045552,-0.009544739903
5.61,0.0004400772548,-0.01010569982
5.62,-0.00254765559,-0.009769921604
5.63,-0.005297623592,-0.008571342132
5.64,-0.007566970907,-0.006620682947
5.65,-0.009157153022,-0.004095022858
5.66,-0.009931414697,-0.001221450566
5.67,-0.00982654432,0.001743666962
5.68,-0.008857880678,0.004537869096
5.69,-0.007117182638,0.00691609588
5.7,-0.004763640066,0.00867234181
5.71,-0.002008939896,0.009657517049
5.72,0.0009021584786,0.009791947355
5.73,0.003713892486,0.009071472053
5.74,0.006182158323,0.007566716974
5.75,0.008095710256,0.005415762033
5.76,0.00929403611,0.002811025099
5.77,0.009680412568,-1.831449236E-05
5.78,0.009229135142,-0.002826674358
5.79,0.007986479144,-0.005373350498
5.8,0.006065519651,-0.007442864
5.81,0.003635463216,-0.008862684833
5.82,0.0009065754268,-0.009516952183
5.83,-0.001887905574,-0.009355214434
5.84,-0.004511313243,-0.008395664601
5.85,-0.006742969637,-0.006722803393
5.86,-0.008395984102,-0.004479883977
5.87,-0.009332133758,-0.001856852502
5.88,-0.009472786898,0.0009252190722
5.89,-0.008805134673,0.003632011189
5.9,-0.007383322421,0.006034829126
5.91,-0.00532440466,0.007929106539
5.92,-0.002799377492,0.009151199071
5.93,-1.98626021E-05,0.009592214804
5.94,0.002778678915,0.009207783459
5.95,0.005356047806,0.008022892374
5.96,0.007487335478,0.006131217677
5.97,0.00898232838,0.003688751642
5.98,0.009702667175,0.0009019604747
5.99,0.009575194218,-0.001988823398
6,0.008600121145,-0.004729601443
