"Freq [GHz]","re(S(Rx_p1,Tx_p1)) []","im(S(Rx_p1,Tx_p1)) []"
1,-0.02974080526,-0.1610855405
1.01,-0.07572828684,-0.1448102619
1.02,-0.1147650863,-0.1157226107
1.03,-0.1433768699,-0.07648030984
1.04,-0.1590431966,-0.03065358403
1.05,-0.1604275584,0.01760360368
1.06,-0.1474971237,0.06393699886
1.07,-0.1215204177,0.1041938197
1.08,-0.0849430442,0.134804445
1.09,-0.04115354421,0.1531074743
1.1,0.00583768369,0.1575871762
1.11,0.05177495376,0.1480010828
1.12,0.0925526117,0.1253864949
1.13,0.1245908568,0.09194675159
1.14,0.1451562531,0.0508300088
1.15,0.1525971807,0.005823687144
1.16,0.1464734804,-0.03900439674
1.17,0.1275704605,-0.07968269455
1.18,0.0977990599,-0.1126941044
1.19,0.05999503,-0.135282332
1.2,0.01763936863,-0.145679321
1.21,-0.02547102291,-0.1432353353
1.22,-0.06556995493,-0.1284434096
1.23,-0.0992532131,-0.1028603365
1.24,-0.1237649509,-0.06893600534
1.25,-0.1372154885,-0.02977081674
1.26,-0.1387145022,0.01117361853
1.27,-0.1284122728,0.05038260179
1.28,-0.1074503715,0.08458752963
1.29,-0.07783103349,0.111031066
1.3,-0.04222082342,0.1276779542
1.31,-0.003708586984,0.1333572071
1.32,0.03446006779,0.127828145
1.33,0.06914934829,0.1117694266
1.34,0.09758015255,0.08669627547
1.35,0.1175395522,0.05481610655
1.36,0.1275392303,0.01883648095
1.37,0.1269137715,-0.01825832727
1.38,0.1158543714,-0.05344481034
1.39,0.09537802156,-0.08389450542
1.4,0.06723632282,-0.1071888849
1.41,0.03377167038,-0.1215005075
1.42,-0.00226843169,-0.1257285365
1.43,-0.03794576373,-0.1195796951
1.44,-0.07035957882,-0.1035891073
1.45,-0.09687264381,-0.07907919958
1.46,-0.1153189773,-0.04805880635
1.47,-0.1241778399,-0.01306870041
1.48,-0.1227002645,0.02301625567
1.49,-0.1109772146,0.0572145366
1.5,-0.08994228897,0.08667824928
1.51,-0.06130659767,0.1089277061
1.52,-0.02742873654,0.1220611465
1.53,0.008871713951,0.1249214969
1.54,0.04454353729,0.1172047335
1.55,0.07655807229,0.09949865797
1.56,0.1021672032,0.07324645679
1.57,0.1191428183,0.04063584988
1.58,0.1259761426,0.004421363474
1.59,0.122018168,-0.03230636731
1.6,0.1075471469,-0.06638502325
1.61,0.0837554038,-0.0948557987
1.62,0.0526549714,-0.1152247837
1.63,0.01690909088,-0.1256866305
1.64,-0.02039634189,-0.1252896163
1.65,-0.0560214634,-0.1140263072
1.66,-0.08685732253,-0.09284072316
1.67,-0.1102012372,-0.06355056362
1.68,-0.1239975762,-0.02869091574
1.69,-0.1270219649,0.008706837218
1.7,-0.1189920483,0.04538117326
1.71,-0.1005946591,0.07812776433
1.72,-0.07342687699,0.104082178
1.73,-0.03985628757,0.1209726251
1.74,-0.002813024854,0.127320232
1.75,0.03446775709,0.1225691408
1.76,0.06873002541,0.1071351058
1.77,0.09698245182,0.08236856048
1.78,0.1167603112,0.05043569946
1.79,0.1263408168,0.01412828634
1.8,0.124893226,-0.02338095013
1.81,0.1125508292,-0.0588158462
1.82,0.090398758,-0.08908303765
1.83,0.06037883462,-0.1115420291
1.84,0.0251198152,-0.1242356954
1.85,-0.01229222719,-0.1260612524
1.86,-0.04858350058,-0.1168668488
1.87,-0.08057873763,-0.0974653047
1.88,-0.1054792562,-0.06956362158
1.89,-0.1211086118,-0.03561414657
1.9,-0.1261042877,0.00139991934
1.91,-0.1200384093,0.03822619277
1.92,-0.1034565287,0.07162922228
1.93,-0.07783061645,0.0986759676
1.94,-0.04542992746,0.1169953868
1.95,-0.009120729824,0.1249889237
1.96,0.02788765489,0.1219728394
1.97,0.06232805743,0.108239259
1.98,0.09116643191,0.08503002588
1.99,0.1118723565,0.05442531647
2,0.1226444804,0.01915677439
2.01,0.122570291,-0.0176380804
2.02,0.1117055067,-0.05269789559
2.03,0.09106577438,-0.08293023429
2.04,0.06253147578,-0.1056882057
2.05,0.02867454413,-0.119005626
2.06,-0.007476529937,-0.1217692467
2.07,-0.04271158548,-0.1138125317
2.08,-0.07392802337,-0.09592288636
2.09,-0.09840767167,-0.06976240542
2.1,-0.1140559792,-0.03771030344
2.11,-0.1195820519,-0.002642423841
2.12,-0.114603871,0.03233111992
2.13,-0.09967025992,0.06414556292
2.14,-0.07619905311,0.09005262059
2.15,-0.0463386806,0.1078587178
2.16,-0.01276726022,0.1161095021
2.17,0.02155135649,0.1142052795
2.18,0.05363176833,0.1024387248
2.19,0.08072748208,0.08195348932
2.2,0.1005647867,0.05462946174
2.21,0.1115303166,0.02290674816
2.22,0.1127973417,-0.01043459871
2.23,0.1043816976,-0.04251884571
2.24,0.08712465887,-0.07062128036
2.25,0.06260637205,-0.09239640146
2.26,0.03299915157,-0.1060690105
2.27,0.0008745703851,-0.1105733994
2.28,-0.03101846791,-0.1056306291
2.29,-0.05998577197,-0.0917592563
2.3,-0.08361096728,-0.07022032901
2.31,-0.0999519321,-0.0429026209
2.32,-0.1076954383,-0.01215855171
2.33,-0.1062584947,0.01939523253
2.34,-0.09582923316,0.04909625699
2.35,-0.07734491109,0.0744560908
2.36,-0.05240941477,0.09336432837
2.37,-0.02315721422,0.104260685
2.38,0.007925239288,0.1062617166
2.39,0.03820643207,0.09923214764
2.4,0.06512854336,0.08379501753
2.41,0.08642050357,0.06127956866
2.42,0.1002880647,0.03361068152
2.43,0.1055651661,0.003148375608
2.44,0.101813728,-0.02750992734
2.45,0.08936297387,-0.05574838744
2.46,0.06928421046,-0.07915489057
2.47,0.04330233075,-0.09572760319
2.48,0.01365071824,-0.1040480989
2.49,-0.01711874415,-0.1034057013
2.5,-0.04635469329,-0.09386160361
2.51,-0.07153558161,-0.07624638961
2.52,-0.09048921936,-0.05209036648
2.53,-0.1015830455,-0.02349212675
2.54,-0.1038679314,0.007063589043
2.55,-0.09716228903,0.03692290177
2.56,-0.08206853566,0.06349547862
2.57,-0.0599200754,0.08448207395
2.58,-0.032663319,0.0980764221
2.59,-0.002685258398,0.1031232324
2.6,0.02739785055,0.09921802883
2.61,0.05497156171,0.08673992761
2.62,0.07765316173,0.06681463741
2.63,0.09349974204,0.04121138726
2.64,0.1011758717,0.01218351727
2.65,0.1000661921,-0.01773247922
2.66,0.09032344116,-0.04594106584
2.67,0.07284839916,-0.07001468892
2.68,0.04920444214,-0.08790354183
2.69,0.02147520017,-0.09810979853
2.7,-0.007921279796,-0.09981156728
2.71,-0.03644490369,-0.09292657114
2.72,-0.06165351885,-0.07811107368
2.73,-0.08141138526,-0.05669530945
2.74,-0.09406844743,-0.03056212886
2.75,-0.09859565676,-0.001980261569
2.76,-0.09466568476,0.02659283028
2.77,-0.08267321806,0.05272134837
2.78,-0.06369419828,0.07419695029
2.79,-0.03938842741,0.08922287622
2.8,-0.01185450256,0.09656149641
2.81,0.01655026072,0.09563364335
2.82,0.04340966216,0.08656220177
2.83,0.06645161224,0.07015703126
2.84,0.08373767117,0.04784303082
2.85,0.09382377165,0.02153767109
2.86,0.09587919186,-0.006511706573
2.87,0.08975424394,-0.03391737651
2.88,0.07599126313,-0.05835195151
2.89,0.05577802287,-0.07774389216
2.9,0.03084732853,-0.09045172826
2.91,0.003330915371,-0.09540255583
2.92,-0.02442044421,-0.09218317465
2.93,-0.05003583639,-0.08107600576
2.94,-0.07132558371,-0.06303640479
2.95,-0.08646817267,-0.03961282813
2.96,-0.09416678693,-0.01281612881
2.97,-0.09376185185,0.01505134444
2.98,-0.08528955541,0.0415925863
2.99,-0.06948081279,0.0645220155
3,-0.04770022222,0.08186306198
3.01,-0.02182978699,0.09212002105
3.02,0.005892912708,0.09440896673
3.03,0.0330682786,0.08853594147
3.04,0.05734319727,0.07501518001
3.05,0.07661620328,0.0550253884
3.06,0.08922115777,0.0303076118
3.07,0.09407308808,0.003013479248
3.08,0.09076313188,-0.02448288475
3.09,0.07959404332,-0.04979267036
3.1,0.06155303576,-0.07072148316
3.11,0.03822436397,-0.08546116297
3.12,0.01164946232,-0.09274730324
3.13,-0.01585284926,-0.09196855817
3.14,-0.04189003781,-0.08321818657
3.15,-0.06420528596,-0.06728348844
3.16,-0.08087413942,-0.0455743566
3.17,-0.09047109423,-0.01999757576
3.18,-0.09219164156,0.007211734274
3.19,-0.085919348,0.03368644032
3.2,-0.07223248702,0.05713408156
3.21,-0.0523500976,0.07553577592
3.22,-0.02802264531,0.08732006584
3.23,-0.001377235821,0.09149678385
3.24,0.02526882656,0.08773964325
3.25,0.04960974526,0.07641081171
3.26,0.06955066067,0.0585257955
3.27,0.08338762482,0.03566210978
3.28,0.08995276832,0.009819998797
3.29,0.0887124138,-0.01675249804
3.3,0.07981000293,-0.04175488735
3.31,0.06405046695,-0.0630330872
3.32,0.0428276824,-0.07876473305
3.33,0.01800149727,-0.08761508179
3.34,-0.008264912466,-0.08885024242
3.35,-0.03369324185,-0.08239814688
3.36,-0.05608754266,-0.06885216414
3.37,-0.07352395284,-0.0494171841
3.38,-0.08451630328,-0.02580294076
3.39,-0.08814331378,-7.389204318E-05
3.4,-0.08412640328,0.02553126503
3.41,-0.07285141467,0.04879471821
3.42,-0.05533243088,0.06771228427
3.43,-0.033120919,0.08066694271
3.44,-0.008168239093,0.08656799483
3.45,0.01734633209,0.08494369849
3.46,0.04120686084,0.07597933511
3.47,0.06135439112,0.06049750426
3.48,0.0760658508,0.03988258116
3.49,0.08410247011,0.01595624677
3.5,0.08481472257,-0.009184648118
3.51,0.07819474217,-0.03335329578
3.52,0.0648719272,-0.05446464094
3.53,0.04605256715,-0.07071653199
3.54,0.02340934797,-0.08074434437
3.55,-0.001068965721,-0.08373564013
3.56,-0.02525391436,-0.07949516151
3.57,-0.04706387473,-0.0684550302
3.58,-0.06464414026,-0.05162999805
3.59,-0.07652479165,-0.03052250159
3.6,-0.08174285145,-0.006986655345
3.61,-0.07991864103,0.01693621459
3.62,-0.07128051023,0.03919564277
3.63,-0.05663677544,0.05790798083
3.64,-0.03729834395,0.0715150708
3.65,-0.01495970057,0.07891234462
3.66,0.008450671242,0.07953604238
3.67,0.0309370392,0.07340302186
3.68,0.05060585739,0.06110084536
3.69,0.06582358276,0.04373009006
3.7,0.07534994867,0.02280477041
3.71,0.07843617607,0.0001200667262
3.72,0.07488078276,-0.02240101875
3.73,0.06503930961,-0.04286906392
3.74,0.049788102,-0.05958437243
3.75,0.03044595834,-0.07117531159
3.76,0.008660709943,-0.07670800892
3.77,-0.01372959866,-0.07575907116
3.78,-0.03484946678,-0.06844605111
3.79,-0.05294028663,-0.05541376782
3.8,-0.06650399929,-0.0377780339
3.81,-0.07442474311,-0.01703161549
3.82,-0.07605897669,0.00507987857
3.83,-0.07128704226,0.02670220344
3.84,-0.06052213121,0.04602527453
3.85,-0.04467591355,0.06143236877
3.86,-0.02508346724,0.07163377612
3.87,-0.003393354043,0.07577408139
3.88,0.01856850094,0.07350423369
3.89,0.03895027699,0.06501225765
3.9,0.05602883501,0.05100969549
3.91,0.06835471765,0.03267441247
3.92,0.07487544657,0.01155398154
3.93,0.07502655925,-0.01056280009
3.94,0.06878231345,-0.03179590498
3.95,0.05666122205,-0.05033320586
3.96,0.03968531928,-0.06458534483
3.97,0.01929599759,-0.07332304189
3.98,-0.002766945009,-0.07578479771
3.99,-0.0246130865,-0.07174528813
4,-0.04436350528,-0.06153800659
4.01,-0.06031328588,-0.04602961989
4.02,-0.07108018495,-0.02654772631
4.03,-0.07572625125,-0.004767863435
4.04,-0.07384142037,0.01743067915
4.05,-0.06558136497,0.03812778324
4.06,-0.05165589232,0.05552988912
4.07,-0.03326858107,0.06812703747
4.08,-0.01201273476,0.07482556696
4.09,0.01026730956,0.07504456408
4.1,0.03163731601,0.0687673597
4.11,0.05024246141,0.05654337666
4.12,0.06446978648,0.03944008435
4.13,0.07308934848,0.01894929774
4.14,0.07536154899,-0.003143845749
4.15,0.0711011564,-0.02491756483
4.16,0.06069243798,-0.04448183456
4.17,0.04505419891,-0.06014357464
4.18,0.02555799214,-0.07055404251
4.19,0.003906907304,-0.07482550325
4.2,-0.01801420223,-0.0726070472
4.21,-0.03830374052,-0.06411310323
4.22,-0.0552090731,-0.05010241196
4.23,-0.0672783972,-0.03180959704
4.24,-0.0734855874,-0.01083561385
4.25,-0.07331729639,0.01099309683
4.26,-0.06681497253,0.03178427078
4.27,-0.05456844293,0.04974428236
4.28,-0.03766194745,0.06333308819
4.29,-0.01757762718,0.0713962759
4.3,0.003934884132,0.07326293008
4.31,0.02501125216,0.0688010714
4.32,0.04383425687,0.05842615154
4.33,0.05879058652,0.04306217099
4.34,0.06860909789,0.02405907659
4.35,0.07246871713,0.003073841018
4.36,0.07006684844,-0.01807428902
4.37,0.06164261862,-0.03756172594
4.38,0.04795321405,-0.05371794283
4.39,0.03020562487,-0.06516875418
4.4,0.009949948344,-0.0709531811
4.41,-0.01105630793,-0.07060395616
4.42,-0.03100102612,-0.06418492139
4.43,-0.04817406933,-0.05228234134
4.44,-0.06111409826,-0.03595116157
4.45,-0.06873297353,-0.01662114339
4.46,-0.07040712535,0.00402874405
4.47,-0.06602820702,0.02421659085
4.48,-0.0560089371,0.04221167086
4.49,-0.04124395642,0.05648303171
4.5,-0.02302943535,0.06582974293
4.51,-0.002948717496,0.06948169389
4.52,0.01726583036,0.06716248798
4.53,0.03588262533,0.05910934718
4.54,0.05131930849,0.04604871739
4.55,0.06227705239,0.02913011192
4.56,0.06784933649,0.009824308837
4.57,0.06759612911,-0.01020498225
4.58,0.06157750372,-0.02924470126
4.59,0.05034427618,-0.04567882378
4.6,0.03488695889,-0.05812503881
4.61,0.01654786439,-0.06555020792
4.62,-0.003095746537,-0.06735506416
4.63,-0.02236724005,-0.06342135321
4.64,-0.0396332464,-0.05411788793
4.65,-0.05344127595,-0.04026549247
4.66,-0.06264082727,-0.02306425364
4.67,-0.06647804211,-0.003989591161
4.68,-0.06465629703,0.01533384272
4.69,-0.05735804195,0.03326971018
4.7,-0.04522644965,0.04830744955
4.71,-0.02930875945,0.05918826342
4.72,-0.01096631519,0.06500930822
4.73,0.008241029402,0.06529764112
4.74,0.02668644042,0.06004801756
4.75,0.04281264246,0.0497216169
4.76,0.05526219453,0.03520596762
4.77,0.06299078713,0.01773949711
4.78,0.06535425283,-0.001193001132
4.79,0.06216213165,-0.01998532819
4.8,0.05369335609,-0.03704494263
4.81,0.04067270765,-0.05092695219
4.82,0.02420990816,-0.06045590814
4.83,0.005706292956,-0.06482522431
4.84,-0.01326327789,-0.06366582707
4.85,-0.03108350232,-0.05707813309
4.86,-0.0462356124,-0.04562445931
4.87,-0.05742671314,-0.03028225777
4.88,-0.0637004813,-0.01236187149
4.89,-0.06451968295,0.006604449613
4.9,-0.05981326352,0.02499301381
4.91,-0.04998371413,0.04122760538
4.92,-0.03587378605,0.0539149771
4.93,-0.01869512766,0.06196520484
4.94,7.524892719E-05,0.0646863802
4.95,0.01882189909,0.06184524653
4.96,0.03593036874,0.0536882832
4.97,0.04992700775,0.04092116814
4.98,0.05960693794,0.02464820075
4.99,0.06413889789,0.006276818067
5,0.06313766394,-0.01260453648
5.01,0.05669757761,-0.03036452233
5.02,0.04538414219,-0.04547085349
5.03,0.03018437715,-0.05662357846
5.04,0.01242029688,-0.06286792422
5.05,-0.00636682826,-0.06367675599
5.06,-0.02455116979,-0.05899542065
5.07,-0.04056406782,-0.04924510924
5.08,-0.053030268,-0.03528458135
5.09,-0.06088669249,-0.01833380016
5.1,-0.063473387,0.0001336085653
5.11,-0.0605888225,0.01851944141
5.12,-0.05250494477,0.03524008272
5.13,-0.03994095864,0.0488634981
5.14,-0.0239984748,0.05823211463
5.15,-0.006064009292,0.06256101175
5.16,0.01231238886,0.06150312697
5.17,0.02955163323,0.05517615448
5.18,0.04418146853,0.04414920773
5.19,0.05496199871,0.02939081989
5.2,0.06099021065,0.01218316318
5.21,0.06177477754,-0.005989803658
5.22,0.05727508444,-0.02357043225
5.23,0.04790154394,-0.0390606542
5.24,0.03447758719,-0.05114906526
5.25,0.01816694184,-0.05882114001
5.26,0.0003726779059,-0.06144344809
5.27,-0.01738321454,-0.05881503225
5.28,-0.03358942939,-0.05118192783
5.29,-0.04687319135,-0.03921391384
5.3,-0.05611566051,-0.02394572895
5.31,-0.06054533504,-0.006687909714
5.32,-0.05980178629,0.01108511922
5.33,-0.05396456251,0.02786024428
5.34,-0.04354500232,0.04221364619
5.35,-0.02944177173,0.0529308763
5.36,-0.0128639345,0.05910902063
5.37,0.004771955379,0.06023244596
5.38,0.02196210147,0.05621581739
5.39,0.03724297221,0.04741079132
5.4,0.04931536754,0.03457580583
5.41,0.05715460684,0.01881146918
5.42,0.06009752768,0.001466934319
5.43,0.05789889596,-0.0159748947
5.44,0.05075237119,-0.03202365943
5.45,0.0392741428,-0.04530866078
5.46,0.02445050998,-0.05469597642
5.47,0.007553754001,-0.05938555812
5.48,-0.00996661467,-0.0589799372
5.49,-0.02660800071,-0.05351855007
5.5,-0.04094365003,-0.04347461666
5.51,-0.0517452766,-0.02971471539
5.52,-0.05808879458,-0.01342442327
5.53,-0.05943397194,0.003993653069
5.54,-0.05567104428,0.02104070351
5.55,-0.04713017433,0.03625096975
5.56,-0.03455286592,0.0483182302
5.57,-0.0190277591,0.05620852373
5.58,-0.001896350714,0.05924929818
5.59,0.01536317567,0.05718721381
5.6,0.03126390243,0.05020956676
5.61,0.0444387692,0.03892747909
5.62,0.0537586054,0.02432234962
5.63,0.05842933987,0.007660274164
5.64,0.0580599603,-0.009618060387
5.65,0.05269537007,-0.02602237375
5.66,0.0428113732,-0.04014177075
5.67,0.02927233321,-0.05076647548
5.68,0.01325530648,-0.05699176782
5.69,-0.00385264341,-0.05829516196
5.7,-0.0205749379,-0.05458023438
5.71,-0.03547326444,-0.04618343939
5.72,-0.04727154709,-0.03384348207
5.73,-0.05496539558,-0.01863606804
5.74,-0.05790763677,-0.001879833428
5.75,-0.05586265299,0.01497827974
5.76,-0.04902498789,0.03048820714
5.77,-0.03800079055,0.04332165312
5.78,-0.02375388193,0.05238592321
5.79,-0.007521266463,0.05691694505
5.8,0.009294483102,0.05654357013
5.81,0.02524658934,0.05131776341
5.82,0.03896867066,0.04170825105
5.83,0.04929184317,0.02855835204
5.84,0.05534428818,0.01301179574
5.85,0.05662480686,-0.003586938792
5.86,0.05304416281,-0.019809067
5.87,0.04493081345,-0.03426463007
5.88,0.03300071143,-0.04572169043
5.89,0.0182939511,-0.05321135814
5.9,0.002083875773,-0.05610968448
5.91,-0.0142333937,-0.05418949515
5.92,-0.02925940203,-0.04763786079
5.93,-0.04171335723,-0.03703788625
5.94,-0.05054136062,-0.0233165842
5.95,-0.05500553368,-0.007663513104
5.96,-0.0547454954,0.008572645994
5.97,-0.04980707619,0.02400054172
5.98,-0.04063601397,0.0373055377
5.99,-0.02803741267,0.04736175298
6,-0.01310468855,0.0533271896
