"Freq [GHz]","re(S(Rx_p1,Tx_p1)) []","im(S(Rx_p1,Tx_p1)) []"
1,-0.1466521486,-0.1073768727
1.01,-0.1701146978,-0.05791580748
1.02,-0.177576148,-0.004331885842
1.03,-0.1687388867,0.04838342315
1.04,-0.1448093057,0.09544317132
1.05,-0.1083469911,0.1327020864
1.06,-0.06299195091,0.1570219656
1.07,-0.01309905082,0.1665329997
1.08,0.03668323044,0.1607696015
1.09,0.08184850264,0.140671904
1.1,0.1184413891,0.1084571233
1.11,0.1434023941,0.06737714028
1.12,0.1548188091,0.02138880724
1.13,0.152061703,-0.02522928925
1.14,0.1358004999,-0.06827615062
1.15,0.1078984263,-0.1040063039
1.16,0.07120307997,-0.129452417
1.17,0.02925549697,-0.1426652272
1.18,-0.01405238929,-0.1428522554
1.19,-0.05483859845,-0.1304069209
1.2,-0.08957681834,-0.1068300968
1.21,-0.115396495,-0.07455584396
1.22,-0.13031241,-0.0367011823
1.23,-0.1333664308,0.003234377611
1.24,-0.1246728494,0.04169060754
1.25,-0.1053677331,0.07536027856
1.26,-0.07747117006,0.1014676843
1.27,-0.04367846791,0.1179893298
1.28,-0.007101707228,0.1238003663
1.29,0.02901378916,0.1187376292
1.3,0.06157265446,0.1035777638
1.31,0.08788829345,0.0799362179
1.32,0.1058965768,0.05009924512
1.33,0.1143085182,0.01680603293
1.34,0.1126919043,-0.01699867286
1.35,0.1014781836,-0.04841966751
1.36,0.08189719415,-0.07485276176
1.37,0.0558480203,-0.09419339035
1.38,0.02571902445,-0.1049966248
1.39,-0.005826413932,-0.1065774181
1.4,-0.03607987723,-0.09904510661
1.41,-0.06251450795,-0.0832716157
1.42,-0.08299007962,-0.06079804598
1.43,-0.09592068306,-0.0336889978
1.44,-0.1003925788,-0.004347801094
1.45,-0.09622401004,0.02469147792
1.46,-0.08396352334,0.05097794638
1.47,-0.06482825527,0.07234630915
1.48,-0.04058835649,0.08709163749
1.49,-0.01340790083,0.09410276372
1.5,0.01434403785,0.09294407182
1.51,0.04029621384,0.08387971634
1.52,0.06227503494,0.06783901904
1.53,0.07848484789,0.04632660453
1.54,0.08765385297,0.02128536401
1.55,0.08913374111,-0.005075785044
1.56,0.08294506771,-0.03047447314
1.57,0.06976498645,-0.05275124636
1.58,0.05085888563,-0.07005291059
1.59,0.02796228241,-0.08098719985
1.6,0.003123617169,-0.084735643
1.61,-0.02147803527,-0.0811151901
1.62,-0.04372417216,-0.07058369512
1.63,-0.06174010797,-0.05418933576
1.64,-0.07405418074,-0.03346903567
1.65,-0.07971909874,-0.01030548014
1.66,-0.07838511842,0.01324403865
1.67,-0.07031918942,0.03513129079
1.68,-0.05636916354,0.05349667184
1.69,-0.03787717376,0.06682861963
1.7,-0.01655086918,0.07408891012
1.71,0.005695090708,0.07479320245
1.72,0.02691237403,0.06904049583
1.73,0.0452911708,0.05748997798
1.74,0.05931572127,0.04128861469
1.75,0.06788955978,0.021957282
1.76,0.07041999598,0.001246854937
1.77,0.06685540067,-0.01902189129
1.78,0.05767339652,-0.03711964386
1.79,0.04382262333,-0.05155662603
1.8,0.02662490858,-0.0612045543
1.81,0.00764803985,-0.06538251651
1.82,-0.01143838741,-0.0639004907
1.83,-0.02901055788,-0.0570583356
1.84,-0.04362825697,-0.04560220818
1.85,-0.05415121529,-0.03064410574
1.86,-0.05982476445,-0.01355325398
1.87,-0.06032879523,0.00416987918
1.88,-0.05578757453,0.02102520562
1.89,-0.04674154662,0.03563869757
1.9,-0.03408548362,0.04687173745
1.91,-0.01897998524,0.05390577772
1.92,-0.002745163175,0.05629657355
1.93,0.01325371894,0.05399517822
1.94,0.02771885108,0.04733583673
1.95,0.03952172707,0.03699361452
1.96,0.0477867173,0.02391684623
1.97,0.05195080627,0.009241136565
1.98,0.05179617501,-0.005807381348
1.99,0.04745460908,-0.02001153239
2,0.03938488921,-0.03225766727
2.01,0.02832622411,-0.04161851353
2.02,0.0152323081,-0.04741878191
2.03,0.00119167057,-0.04927954216
2.04,-0.01265938963,-0.04713906384
2.05,-0.02522480949,-0.0412495219
2.06,-0.03553145677,-0.03215059625
2.07,-0.04280084726,-0.02062247152
2.08,-0.04650510155,-0.007622009502
2.09,-0.04640348705,0.005793122421
2.1,-0.04255720694,0.01854686404
2.11,-0.03532154191,0.02962781333
2.12,-0.02531595961,0.03816695709
2.13,-0.01337431028,0.04350442786
2.14,-0.0004786432804,0.04524030608
2.15,0.01231857996,0.04326551464
2.16,0.02397813183,0.03777020175
2.17,0.03355717107,0.0292286137
2.18,0.0402853841,0.01836122812
2.19,0.04362792738,0.006076727023
2.2,0.04332982683,-0.006601905711
2.21,0.03943782149,-0.01862143007
2.22,0.03229738179,-0.02898576416
2.23,0.02252466204,-0.03683948072
2.24,0.01095529807,-0.04154020476
2.25,-0.001425959171,-0.04271348344
2.26,-0.01356897674,-0.04028506891
2.27,-0.02444819757,-0.03448744358
2.28,-0.03315095265,-0.02583966869
2.29,-0.03895624396,-0.01510204764
2.3,-0.04139684814,-0.003209432876
2.31,-0.04029902287,0.008810964092
2.32,-0.03579610975,0.01992988955
2.33,-0.02831472935,0.02920629455
2.34,-0.01853482602,0.03586927115
2.35,-0.007327283161,0.03938419313
2.36,0.004325053971,0.03949706575
2.37,0.01541555993,0.03625316763
2.38,0.02500300129,0.0299885262
2.39,0.03229346782,0.02129535746
2.4,0.03670762037,0.01096505608
2.41,0.03792732263,-8.560425137E-05
2.42,0.03591779056,-0.01089791499
2.43,0.03092379789,-0.0205564196
2.44,0.02344096776,-0.02826797668
2.45,0.01416550379,-0.03342763547
2.46,0.003927638029,-0.03566572751
2.47,-0.006384582985,-0.03487253929
2.48,-0.01590390373,-0.0311991695
2.49,-0.02385766877,-0.02503545282
2.5,-0.02963041865,-0.01696792011
2.51,-0.03281020449,-0.007722461589
2.52,-0.03321531171,0.001902482301
2.53,-0.03090005306,0.011105841
2.54,-0.02614026142,0.01915068185
2.55,-0.01940089119,0.02542224115
2.56,-0.01128956132,0.02947278131
2.57,-0.002500835027,0.03105030459
2.58,0.006243523506,0.03010977104
2.59,0.01425313944,0.02680706457
2.6,0.02092180613,0.02147737861
2.61,0.02577066674,0.01460083359
2.62,0.0284791183,0.006758920638
2.63,0.02890196712,-0.001414237468
2.64,0.02707255379,-0.009281791362
2.65,0.02319263489,-0.01625151265
2.66,0.01761068376,-0.02181739991
2.67,0.01079091395,-0.02559305908
2.68,0.003275727166,-0.02733515175
2.69,-0.004355541154,-0.02695598737
2.7,-0.01152872712,-0.02452506858
2.71,-0.01771511537,-0.02026004836
2.72,-0.02246749018,-0.01450810793
2.73,-0.02544991865,-0.007719214924
2.74,-0.0264596298,-0.0004130800676
2.75,-0.0254397965,0.006858093642
2.76,-0.02248250386,0.01354877671
2.77,-0.01782169859,0.01915878277
2.78,-0.01181645687,0.02326900389
2.79,-0.004925475698,0.02557185597
2.8,0.002325735436,0.02589429154
2.81,0.009382942453,0.02421159767
2.82,0.01570406283,0.02065071026
2.83,0.0207999912,0.01548243425
2.84,0.02427236346,0.009102731759
2.85,0.02584529479,0.002004077668
2.86,0.02538842033,-0.005261283008
2.87,0.02292911087,-0.0121235878
2.88,0.01865250755,-0.01804014074
2.89,0.01288896715,-0.02253869468
2.9,0.006089556996,-0.02525603767
2.91,-0.001208710711,-0.02596844986
2.92,-0.008425263024,-0.02461127626
2.93,-0.01498257488,-0.02128572
2.94,-0.02035314066,-0.01625202903
2.95,-0.02410282273,-0.00990942925
2.96,-0.02592683385,-0.00276433619
2.97,-0.02567520673,0.004610561643
2.98,-0.02336550188,0.01162291871
2.99,-0.01918161972,0.01770909307
3,-0.01345880708,0.0223801354
3.01,-0.006656162292,0.02526150775
3.02,0.0006809714433,0.02612320725
3.03,0.007965479425,0.02489783875
3.04,0.01461602399,0.0216852571
3.05,0.02010368176,0.01674357435
3.06,0.02399384707,0.01046748862
3.07,0.02598007237,0.003355930217
3.08,0.02590727892,-0.004028151674
3.09,0.02378271955,-0.01110248551
3.1,0.01977411425,-0.01731103671
3.11,0.01419541282,-0.0221668731
3.12,0.007481578412,-0.02528912527
3.13,0.0001545616386,-0.02643140456
3.14,-0.007216800939,-0.02549978016
3.15,-0.01405990186,-0.02255924533
3.16,-0.01984133688,-0.01782845329
3.17,-0.02410670947,-0.01166331275
3.18,-0.02651454821,-0.004530753662
3.19,-0.02686207858,0.003025427108
3.2,-0.02510115489,0.01042427324
3.21,-0.02134329263,0.01709025397
3.22,-0.01585341178,0.022495892
3.23,-0.009032582871,0.0262015864
3.24,-0.001390736726,0.0278899122
3.25,0.006489065549,0.02739194719
3.26,0.01399262579,0.02470358408
3.27,0.02052019263,0.01999032891
3.28,0.02553258338,0.0135797563
3.29,0.02859456502,0.005941572198
3.3,0.02941218066,-0.002343905558
3.31,0.02786089887,-0.01062714469
3.32,0.02400190293,-0.01823810318
3.33,0.01808453127,-0.02453890414
3.34,0.01053380863,-0.02897655897
3.35,0.001923126498,-0.03113149093
3.36,-0.007066636632,-0.03075761173
3.37,-0.01569901541,-0.02781007361
3.38,-0.02324119063,-0.02245757104
3.39,-0.02902594191,-0.01507717341
3.4,-0.03251111976,-0.006231064697
3.41,-0.03333128059,0.003373858511
3.42,-0.0313364623,0.01294095987
3.43,-0.02661391434,0.02164933195
3.44,-0.01948989524,0.02872445521
3.45,-0.01051032007,0.03350793196
3.46,-0.000400940692,0.03551990522
3.47,0.009990301727,0.03450809775
3.48,0.01976429359,0.03047834093
3.49,0.02804918795,0.02370294991
3.5,0.0340793293,0.0147052236
3.51,0.03726736565,0.004220534777
3.52,0.03726258329,-0.006863279342
3.53,0.03398952826,-0.01758143638
3.54,0.02766263015,-0.02697715092
3.55,0.01877467661,-0.03418838315
3.56,0.008059406277,-0.03852835114
3.57,-0.003569039325,-0.03955210675
3.58,-0.01509478233,-0.03710257806
3.59,-0.02549011286,-0.03133125542
3.6,-0.03380851152,-0.02269098591
3.61,-0.03927218794,-0.01190092765
3.62,-0.04134587011,0.0001136480173
3.63,-0.03978971869,0.01230158988
3.64,-0.03468608241,0.02357903949
3.65,-0.02643718711,0.03292711625
3.66,-0.01573353627,0.03948514234
3.67,-0.00349553861,0.04263073638
3.68,0.009206593608,0.04203922897
3.69,0.02124755886,0.03771670022
3.7,0.0315477567,0.03000333403
3.71,0.03917098844,0.0195465023
3.72,0.0434101248,0.007245777161
3.73,0.04385284908,-0.005825339973
3.74,0.04042136872,-0.01851402943
3.75,0.03338233528,-0.02969064212
3.76,0.02332590628,-0.03834985849
3.77,0.01111567231,-0.04370140284
3.78,-0.002186195441,-0.04524211811
3.79,-0.01541198625,-0.04280286369
3.8,-0.02739144773,-0.0365659418
3.81,-0.03705560732,-0.02705138052
3.82,-0.04353219627,-0.01507316888
3.83,-0.04622418543,-0.001669204283
3.84,-0.0448644199,0.0119889576
3.85,-0.03954143244,0.02469866947
3.86,-0.03069403755,0.03533209465
3.87,-0.0190750387,0.04293614834
3.88,-0.005687084109,0.04681767456
3.89,0.008303850929,0.04660631269
3.9,0.02166990381,0.04228942109
3.91,0.03322889992,0.03421583067
3.92,0.04194869434,0.02306789494
3.93,0.04703913349,0.009804055849
3.94,0.04802350159,-0.004423276782
3.95,0.04478303717,-0.01836755116
3.96,0.03757039171,-0.03079702379
3.97,0.02699056738,-0.04060337885
3.98,0.01395068994,-0.04690049496
3.99,-0.0004172928773,-0.04910459448
4,-0.01485448399,-0.04698853703
4.01,-0.02808509625,-0.040705196
4.02,-0.03892913861,-0.03077750571
4.03,-0.0464078115,-0.0180556672
4.04,-0.04983220184,-0.003644903628
4.05,-0.04886721222,0.01119019218
4.06,-0.04356473915,0.02513651329
4.07,-0.03436276229,0.03694882152
4.08,-0.02204999633,0.04556134621
4.09,-0.007698831831,0.0501845631
4.1,0.007427825422,0.05037829752
4.11,0.02198777729,0.04609429492
4.12,0.03467903362,0.03768405461
4.13,0.04435691693,0.0258708026
4.14,0.05013816545,0.01168771373
4.15,0.05148246503,-0.003612411696
4.16,0.04824376869,-0.01866814311
4.17,0.04068642264,-0.03213122624
4.18,0.02946427445,-0.04278823113
4.19,0.01556430997,-0.04967095888
4.2,0.0002196373513,-0.05214543397
4.21,-0.0152004956,-0.04997117246
4.22,-0.0293137771,-0.04332507256
4.23,-0.04084983198,-0.03278748451
4.24,-0.04876571167,-0.0192914862
4.25,-0.05234123288,-0.004039795833
4.26,-0.05124531814,0.01160322779
4.27,-0.04556712265,0.02623470206
4.28,-0.03580895993,0.03854021478
4.29,-0.02284156044,0.04741305415
4.3,-0.007825684184,0.05205471674
4.31,0.00789277179,0.05204744494
4.32,0.02290457057,0.04739212065
4.33,0.03586467189,0.03850804218
4.34,0.04561381926,0.02619463433
4.35,0.05128305556,0.01155865454
4.36,0.05237164553,-0.004086368754
4.37,0.04879136337,-0.01933919338
4.38,0.04087322698,-0.03283748089
4.39,0.02933622876,-0.04338039726
4.4,0.01522110204,-0.05003605481
4.41,-0.0002046562479,-0.05222411315
4.42,-0.01556170304,-0.04976619817
4.43,-0.02948315425,-0.0428997923
4.44,-0.04073696112,-0.03225461308
4.45,-0.04833532202,-0.01879391447
4.46,-0.05162137863,-0.003726301044
4.47,-0.05032560197,0.01160374618
4.48,-0.04458709263,0.02583660332
4.49,-0.03493823188,0.03771856946
4.5,-0.02225442952,0.04621243821
4.51,-0.007673817828,0.05058782184
4.52,0.007505636487,0.0504834061
4.53,0.02194221575,0.04593591547
4.54,0.03436929532,0.03737359403
4.55,0.04370640769,0.02557517993
4.56,0.04915281554,0.01159838704
4.57,0.05025555467,-0.003315460001
4.58,0.0469462605,-0.01785198474
4.59,0.03954390437,-0.03073964371
4.6,0.02872358588,-0.04086073419
4.61,0.01545448717,-0.04734788179
4.62,0.0009127392367,-0.04965775315
4.63,-0.01362294202,-0.04761582185
4.64,-0.0268835955,-0.04142860155
4.65,-0.03772049564,-0.03166261873
4.66,-0.04520421331,-0.01919228044
4.67,-0.04870378737,-0.005121452478
4.68,-0.04793934151,0.009314221479
4.69,-0.04300383443,0.02285564183
4.7,-0.03435232893,0.03432976529
4.71,-0.0227599726,0.04275083962
4.72,-0.009252562378,0.04740468515
4.73,0.004984109293,0.04790887363
4.74,0.01870815176,0.04424377991
4.75,0.03072965837,0.03675202063
4.76,0.04001361379,0.02610652942
4.77,0.0457687676,0.01325021534
4.78,0.04751487348,-0.0006874171645
4.79,0.04512259679,-0.01448935064
4.8,0.03882277945,-0.02695718271
4.81,0.029184413,-0.0370150736
4.82,0.01706337976,-0.04380251378
4.83,0.003526545931,-0.04674791653
4.84,-0.0102420896,-0.04561673343
4.85,-0.0230449533,-0.04053002648
4.86,-0.0337751101,-0.03195201447
4.87,-0.0415120554,-0.02064781803
4.88,-0.04560077738,-0.00761522211
4.89,-0.04570727255,0.006003471526
4.9,-0.04184578263,0.01902171221
4.91,-0.03437551484,0.03031227062
4.92,-0.0239672907,0.03890504209
4.93,-0.01154320352,0.04407056156
4.94,0.001805282045,0.04538200493
4.95,0.01491349048,0.04275037957
4.96,0.02664544728,0.03642999303
4.97,0.03599258017,0.02699391991
4.98,0.04216058994,0.0152818267
4.99,0.04463697304,0.002324928693
5,0.04323343715,-0.01074517293
5.01,0.03809970556,-0.0227956633
5.02,0.02970775137,-0.0327909523
5.03,0.01880810888,-0.03988178149
5.04,0.006362343925,-0.04347730597
5.05,-0.006542186537,-0.04329403024
5.06,-0.01878767128,-0.03937757243
5.07,-0.02932286809,-0.03209565434
5.08,-0.03725335742,-0.02210324837
5.09,-0.04191726704,-0.01028322904
5.1,-0.04294007491,0.002332033506
5.11,-0.04026400215,0.01465111834
5.12,-0.03414977439,0.02561807061
5.13,-0.02515095318,0.03430278657
5.14,-0.01406340429,0.03997954002
5.15,-0.001854572526,0.0421870611
5.16,0.01042110386,0.04076526395
5.17,0.02171321685,0.03586579631
5.18,0.03106499421,0.02793586535
5.19,0.03769387536,0.01767707934
5.2,0.04105633321,0.005983140282
5.21,0.0408916581,-0.006138046562
5.22,0.03724127969,-0.01765105044
5.23,0.03044231585,-0.0275809497
5.24,0.02109622244,-0.0350952914
5.25,0.01001549006,-0.03957316348
5.26,-0.001846874435,-0.04065574207
5.27,-0.01347897602,-0.0382742991
5.28,-0.0238958217,-0.03265358259
5.29,-0.03222206939,-0.0242905518
5.3,-0.037764871,-0.0139104893
5.31,-0.04007084184,-0.002404358678
5.32,-0.03896256139,0.009247217315
5.33,-0.03455174161,0.020056933
5.34,-0.02722814507,0.02911378974
5.35,-0.01762533737,0.03565921266
5.36,-0.006566255519,0.03915002035
5.37,0.005006783958,0.03930309259
5.38,0.01611175728,0.0361181122
5.39,0.02580963302,0.02987657632
5.4,0.03328321765,0.02111723252
5.41,0.0379055981,0.01059003867
5.42,0.03929249998,-0.0008074835561
5.43,0.03733421232,-0.01210617716
5.44,0.03220442146,-0.02234711585
5.45,0.02434521074,-0.03066256232
5.46,0.01442946483,-0.03634923614
5.47,0.003303806031,-0.03892773262
5.48,-0.008083172407,-0.03818307291
5.49,-0.0187613601,-0.03418292944
5.5,-0.02782149973,-0.02727193336
5.51,-0.03449251065,-0.01804248013
5.52,-0.03820719624,-0.00728443781
5.53,-0.0386507166,0.004082036984
5.54,-0.03578764378,0.01508491301
5.55,-0.02986521921,0.02478327901
5.56,-0.02139245303,0.03234784305
5.57,-0.01109677152,0.03713203646
5.58,0.0001381454064,0.03872759276
5.59,0.01134805853,0.03699977578
5.6,0.0215709252,0.03209916135
5.61,0.02992960661,0.02444888712
5.62,0.03570738916,0.01470840196
5.63,0.03840977629,0.003716786922
5.64,0.03780717363,-0.007579496792
5.65,0.03395473225,-0.01820820774
5.66,0.02718759043,-0.02725521584
5.67,0.01809189156,-0.0339434117
5.68,0.007454067196,-0.03769977872
5.69,-0.003807226253,-0.03820479328
5.7,-0.01472061047,-0.03541985343
5.71,-0.02434601799,-0.02959035002
5.72,-0.0318559477,-0.02122412019
5.73,-0.03660687931,-0.0110471721
5.74,-0.03819464666,5.944729214E-05
5.75,-0.03648897601,0.01113612756
5.76,-0.03164422093,0.02122784314
5.77,-0.02408540691,0.02946673503
5.78,-0.01447085407,0.03514695216
5.79,-0.003634683381,0.03778527198
5.8,0.007485745793,0.03716227779
5.81,0.01793112474,0.03334057969
5.82,0.02680313312,0.02665857479
5.83,0.03334183182,0.01770037339
5.84,0.03699082846,0.007244584298
5.85,0.03744462288,-0.00380352608
5.86,0.0346741093,-0.01449056607
5.87,0.0289281216,-0.02389741019
5.88,0.02071099028,-0.03121831688
5.89,0.01073815249,-0.03582995752
5.9,-0.0001262595291,-0.03734444696
5.91,-0.01094439142,-0.03564187509
5.92,-0.02078568649,-0.03087962839
5.93,-0.0288069496,-0.0234778021
5.94,-0.0343245698,-0.01408206442
5.95,-0.0368727244,-0.003507265902
5.96,-0.03624262164,0.007333274386
5.97,-0.03249949067,0.0175066677
5.98,-0.02597595288,0.02614072697
5.99,-0.01724244115,0.03249871098
6,-0.007057299516,0.03604214556
