"Freq [GHz]","re(S(Rx_p1,Tx_p1)) []","im(S(Rx_p1,Tx_p1)) []"
1,-0.06102909757,-0.04065098527
1.01,-0.07004944234,-0.02059741254
1.02,-0.07268912845,0.001147716053
1.03,-0.06875540738,0.02260878459
1.04,-0.05865275776,0.04184762828
1.05,-0.04334335077,0.05714021215
1.06,-0.024256283,0.0671331466
1.07,-0.003154054346,0.07096546343
1.08,0.01803116182,0.06834433704
1.09,0.03737603687,0.05956780905
1.1,0.05314259296,0.04549263204
1.11,0.06393615202,0.02745058682
1.12,0.06883004901,0.007121522983
1.13,0.06744571739,-0.0136245654
1.14,0.05998112181,-0.03290128823
1.15,0.04718551446,-0.04897896812
1.16,0.03028361876,-0.06044093774
1.17,0.0108570861,-0.06630870703
1.18,-0.009305034754,-0.06612487869
1.19,-0.02837239297,-0.05998688564
1.2,-0.04464033166,-0.0485293798
1.21,-0.05668239893,-0.03285793763
1.22,-0.06347470895,-0.01444119533
1.23,-0.06448143531,0.00502782686
1.24,-0.05969456664,0.02378792083
1.25,-0.04962540534,0.04016889404
1.26,-0.03524971917,0.05273940981
1.27,-0.01791255417,0.06043052891
1.28,0.0007978693953,0.06262455574
1.29,0.01919530111,0.05920215705
1.3,0.0356464392,0.05054457948
1.31,0.04871440131,0.03749178601
1.32,0.05728235303,0.02126111751
1.33,0.0606469805,0.003334354724
1.34,0.05857431656,-0.01467643784
1.35,0.05131379411,-0.03117233541
1.36,0.03957001809,-0.04470775291
1.37,0.02443532248,-0.05411542932
1.38,0.007289432533,-0.05860567537
1.39,-0.01032476398,-0.05783167066
1.4,-0.02683841817,-0.05191554609
1.41,-0.04079497374,-0.04143334223
1.42,-0.05097753624,-0.02736042879
1.43,-0.05651439347,-0.01098232689
1.44,-0.05695361052,0.006221175411
1.45,-0.05230028261,0.02270842688
1.46,-0.04301325134,0.03701320206
1.47,-0.02996161444,0.04787478155
1.48,-0.01434489064,0.05434931449
1.49,0.002416065398,0.0558925551
1.5,0.01880766049,0.05240656407
1.51,0.03336013148,0.04424615838
1.52,0.04477976209,0.03218450701
1.53,0.05206475858,0.01734098063
1.54,0.05459423531,0.00107782975
1.55,0.05218219377,-0.01512484346
1.56,0.04509159043,-0.02980432144
1.57,0.03400728329,-0.04164824949
1.58,0.01997047731,-0.04961309282
1.59,0.004280884318,-0.05301717473
1.6,-0.01162417528,-0.05159980272
1.61,-0.02630236997,-0.04554120298
1.62,-0.03843825293,-0.03544169472
1.63,-0.04696220305,-0.02226238122
1.64,-0.05114547757,-0.00723323785
1.65,-0.05066279672,0.008262511586
1.66,-0.04561703009,0.02281670888
1.67,-0.03652418361,0.03512519214
1.68,-0.02426063478,0.04410538227
1.69,-0.009978067426,0.04899181145
1.7,0.005005517503,0.04940111931
1.71,0.01932826059,0.04536103879
1.72,0.0317088659,0.03730134252
1.73,0.04106152889,0.02600828276
1.74,0.04659102876,0.01254739456
1.75,0.04785969141,-0.00183766509
1.76,0.04482069149,-0.01584054463
1.77,0.03781536055,-0.02821111315
1.78,0.02753549629,-0.03786701719
1.79,0.01495481672,-0.04398795309
1.8,0.001236392743,-0.04608452397
1.81,-0.01237510517,-0.04403602923
1.82,-0.02466635376,-0.03809445607
1.83,-0.03456329145,-0.02885503159
1.84,-0.04122445845,-0.01719667286
1.85,-0.0441117346,-0.004198280619
1.86,-0.04303263683,0.008961159347
1.87,-0.03815099314,0.0211094366
1.88,-0.02996568719,0.03118528578
1.89,-0.01926000914,0.03833065394
1.9,-0.007026706336,0.04196309974
1.91,0.005624117033,0.04182228438
1.92,0.0175657211,0.03798693773
1.93,0.02775494437,0.0308613805
1.94,0.03532300901,0.0211334125
1.95,0.03964903161,0.009707892388
1.96,0.04041005537,-0.002377583654
1.97,0.03760364339,-0.01404702973
1.98,0.03154160851,-0.02428183887
1.99,0.02281606789,-0.03220942586
2,0.0122414603,-0.03717702693
2.01,0.0007782304492,-0.03880444634
2.02,-0.01055461384,-0.03701157476
2.03,-0.02077005441,-0.03201886462
2.04,-0.02899864406,-0.02432140991
2.05,-0.03456170302,-0.01463961089
2.06,-0.03702603413,-0.003851397012
2.07,-0.03623588279,0.007087537645
2.08,-0.03232001071,0.01722818144
2.09,-0.02567400698,0.025709862
2.1,-0.01692011583,0.03183214179
2.11,-0.006848727756,0.03511107646
2.12,0.003652894774,0.03531552208
2.13,0.01367820663,0.03248104181
2.14,0.02237854796,0.02690095105
2.15,0.02903345121,0.01909597161
2.16,0.03310846676,0.009765680396
2.17,0.03429612681,-0.0002736939378
2.18,0.03253719926,-0.01015964035
2.19,0.02802106588,-0.01905596406
2.2,0.02116575171,-0.02622171086
2.21,0.01257970655,-0.03107099699
2.22,0.003008787669,-0.03321919353
2.23,-0.006727067147,-0.0325120851
2.24,-0.01580230853,-0.02903599736
2.25,-0.0234539311,-0.02310836632
2.26,-0.02904396542,-0.01524970421
2.27,-0.03211143716,-0.006139307461
2.28,-0.03240974452,0.003441733608
2.29,-0.02992651117,0.01267570275
2.3,-0.02488429659,0.02077643849
2.31,-0.01772200568,0.02705508338
2.32,-0.00905834268,0.03097807501
2.33,0.0003599047311,0.03221257397
2.34,0.009720693144,0.03065543268
2.35,0.01821560782,0.02644305826
2.36,0.02510912185,0.01994103338
2.37,0.02980236524,0.01171402526
2.38,0.03188584395,0.002478203697
2.39,0.0311763455,-0.006960040237
2.4,0.02773451524,-0.01577398019
2.41,0.02186119944,-0.02318904867
2.42,0.01407249852,-0.02855154865
2.43,0.005055394905,-0.03138736901
2.44,-0.004392364125,-0.03144524998
2.45,-0.01343291882,-0.02872043998
2.46,-0.02126319104,-0.02345631223
2.47,-0.02718721286,-0.01612351405
2.48,-0.03067920763,-0.007378315968
2.49,-0.0314315114,0.001996194374
2.5,-0.02938277744,0.01116076683
2.51,-0.02472372236,0.0192960112
2.52,-0.01787977539,0.02567674757
2.53,-0.009472177296,0.0297377624
2.54,-0.0002611227123,0.03112483864
2.55,0.008923754002,0.02972631554
2.56,0.0172590554,0.02568228106
2.57,0.02400240239,0.01937062316
2.58,0.0285593817,0.01137135386
2.59,0.03053650558,0.002412656417
2.6,0.029775396,-0.006696207831
2.61,0.02636521248,-0.01513881912
2.62,0.02063240733,-0.02216546963
2.63,0.01310901056,-0.02716020484
2.64,0.004482616523,-0.02969498683
2.65,-0.004467120376,-0.02956621233
2.66,-0.0129395161,-0.02681051633
2.67,-0.02018486685,-0.02169873723
2.68,-0.02557092226,-0.01470892421
2.69,-0.02863792871,-0.006481146462
2.7,-0.02913749161,0.002241551296
2.71,-0.02705204673,0.01068054495
2.72,-0.02259352327,0.01809123873
2.73,-0.01618165664,0.02382866639
2.74,-0.008404201499,0.02740334083
2.75,3.715089754E-05,0.02852257453
2.76,0.008390159611,0.02711385728
2.77,0.0159190065,0.02332851123
2.78,0.02196891955,0.01752559829
2.79,0.02602281479,0.0102377797
2.8,0.02774510856,0.002122374015
2.81,0.02700904248,-0.00609789913
2.82,0.0239053508,-0.01369916855
2.83,0.01873175435,-0.02001997108
2.84,0.01196444138,-0.02451857214
2.85,0.004214251054,-0.02681911156
2.86,-0.00382842338,-0.02674267284
2.87,-0.01145505705,-0.02432073629
2.88,-0.0180012909,-0.01979004508
2.89,-0.02290463877,-0.01356955072
2.9,-0.02575260283,-0.006221666647
2.91,-0.02631709403,0.001598590898
2.92,-0.02457230391,0.009201974057
2.93,-0.02069466082,0.0159256809
2.94,-0.01504509437,0.02119099467
2.95,-0.008135383239,0.02455287479
2.96,-0.0005817358671,0.02573726218
2.97,0.006950168764,0.02466299801
2.98,0.0138037647,0.02144664796
2.99,0.01938864667,0.01639004606
3,0.02323113508,0.009951885269
3.01,0.02501405515,0.002706051707
3.02,0.02460243532,-0.004709491319
3.03,0.02205310616,-0.01164870782
3.04,0.01760760644,-0.01751347531
3.05,0.01166925112,-0.02180473174
3.06,0.004766559956,-0.02416446054
3.07,-0.002493626658,-0.02440504819
3.08,-0.009479196419,-0.02252368188
3.09,-0.01558737581,-0.01870076185
3.1,-0.02029624146,-0.01328266866
3.11,-0.02320880192,-0.006750537273
3.12,-0.02408600372,0.0003221607342
3.13,-0.02286598907,0.007319525935
3.14,-0.01966811008,0.01363634903
3.15,-0.01478148863,0.01872993298
3.16,-0.008639197452,0.0221662613
3.17,-0.001780325113,0.02365665542
3.18,0.005196817656,0.02308187477
3.19,0.01168636734,0.02050166935
3.2,0.01712707088,0.0161490112
3.21,0.02105052041,0.01040951157
3.22,0.02312135987,0.003787774504
3.23,0.02316602817,-0.003136457303
3.24,0.02118755823,-0.009758632125
3.25,0.01736512343,-0.01550189029
3.26,0.01203831857,-0.01986721852
3.27,0.005677475529,-0.02247690717
3.28,-0.001157467483,-0.02310750402
3.29,-0.007866006626,-0.02170933973
3.3,-0.01385976284,-0.0184108498
3.31,-0.01861420321,-0.01350724052
3.32,-0.02171482055,-0.007434428276
3.33,-0.02289365367,-0.000730498957
3.34,-0.02205286261,0.006011932772
3.35,-0.01927321236,0.01219824469
3.36,-0.01480666506,0.01728452338
3.37,-0.009053713421,0.02082574895
3.38,-0.002527474051,0.02251511339
3.39,0.004192231897,0.02221093132
3.4,0.01051066703,0.01994872615
3.41,0.0158711554,0.01593742513
3.42,0.01980446704,0.0105400478
3.43,0.02197016708,0.004240685653
3.44,0.02218623732,-0.00239918613
3.45,0.02044436668,-0.008791068182
3.46,0.01690962831,-0.01437189116
3.47,0.0119046894,-0.01865383454
3.48,0.005880099931,-0.02126706267
3.49,-0.0006265519305,-0.02199161778
3.5,-0.007038859398,-0.02077572938
3.51,-0.01279281893,-0.01773905371
3.52,-0.017386472,-0.0131607239
3.53,-0.02042359047,-0.007453445656
3.54,-0.02164762192,-0.001126091771
3.55,-0.02096302857,0.005261773933
3.56,-0.01844230505,0.01114935743
3.57,-0.0143182382,0.01602371001
3.58,-0.008962263039,0.01946414997
3.59,-0.002850958634,0.02117823047
3.6,0.003476280137,0.02102623819
3.61,0.00946464561,0.01903223463
3.62,0.01459226229,0.01538082883
3.63,0.01841531228,0.01040009529
3.64,0.02060610044,0.004532222875
3.65,0.02098085515,-0.001705496385
3.66,0.01951495671,-0.007765935788
3.67,0.01634436394,-0.01311975289
3.68,0.01175318188,-0.0173012764
3.69,0.006148484374,-0.01994874187
3.7,2.457961242E-05,-0.02083544535
3.71,-0.006080201497,-0.01988915717
3.72,-0.01163047889,-0.01719813379
3.73,-0.01614051679,-0.01300320346
3.74,-0.01921660685,-0.007676589741
3.75,-0.02059146375,-0.001689276475
3.76,-0.02014762427,0.004430286014
3.77,-0.01792777404,0.01014256801
3.78,-0.01413104687,0.01494440855
3.79,-0.00909555968,0.01841336998
3.8,-0.003268653963,0.02024508297
3.81,0.002832589694,0.02028025217
3.82,0.008667116493,0.01851887966
3.83,0.01371790775,0.0151203798
3.84,0.01753797012,0.0103895067
3.85,0.01979018521,0.004749285852
3.86,0.02027742249,-0.001296681848
3.87,0.01896017165,-0.007209200647
3.88,0.01596006203,-0.01246172224
3.89,0.0115489072,-0.01658750813
3.9,0.006124226426,-0.01922144669
3.91,0.0001734309112,-0.02013272843
3.92,-0.005770095745,-0.0192454033
3.93,-0.01117504385,-0.01664494325
3.94,-0.01555998654,-0.01257020995
3.95,-0.01853660432,-0.007391562908
3.96,-0.01984439671,-0.001577113592
3.97,-0.01937373536,0.00434978349
3.98,-0.01717518567,0.009857912596
3.99,-0.01345428752,0.01445612258
4,-0.008552321102,0.01773743059
4.01,-0.002914866145,0.01941530334
4.02,0.002948926461,0.0193488498
4.03,0.008512595986,0.01755469027
4.04,0.0132799262,0.01420449889
4.05,0.01682946105,0.009608532779
4.06,0.01885195698,0.004186739046
4.07,0.01917742197,-0.001569846255
4.08,0.01778936703,-0.007143829444
4.09,0.01482508193,-0.01203821387
4.1,0.01056202937,-0.01582092314
4.11,0.005391714215,-0.01816308044
4.12,-0.0002164902052,-0.01886763808
4.13,-0.005758189848,-0.01788586193
4.14,-0.01073955246,-0.01532030376
4.15,-0.0147214804,-0.01141413452
4.16,-0.01735840367,-0.006527948149
4.17,-0.01842825603,-0.001106267182
4.18,-0.0178510357,0.004363114489
4.19,-0.0156944156,0.009393207624
4.2,-0.01216605689,0.01354131754
4.21,-0.007593483161,0.01644804845
4.22,-0.002393482326,0.01786837972
4.23,0.002966081981,0.01769213308
4.24,0.008008525939,0.0159521423
4.25,0.01229083149,0.01281956633
4.26,0.0154425636,0.008586948758
4.27,0.01719779884,0.003640714774
4.28,0.01741732539,-0.001574285143
4.29,0.01609928888,-0.006594908414
4.3,0.01337751955,-0.01098089228
4.31,0.009507886187,-0.01435339703
4.32,0.004844079795,-0.01642755177
4.33,-0.0001948584542,-0.01703622708
4.34,-0.005162263219,-0.01614308608
4.35,-0.009623416257,-0.01384394876
4.36,-0.01319345755,-0.01035655126
4.37,-0.01557034496,-0.005999798736
4.38,-0.01656006963,-0.00116450869
4.39,-0.01609206548,0.003721656339
4.4,-0.01422364599,0.008231916006
4.41,-0.01113327573,0.01197744178
4.42,-0.00710345321,0.01464057484
4.43,-0.00249486054,0.0160013939
4.44,0.002285848055,0.01595546076
4.45,0.006821749037,0.01452136855
4.46,0.01072173159,0.011837613
4.47,0.01365387275,0.008149223029
4.48,0.01537330489,0.003785446096
4.49,0.01574228828,-0.0008694842608
4.5,0.01474089587,-0.005409922707
4.51,0.01246753004,-0.009443828836
4.52,0.009129353894,-0.01262624905
4.53,0.005023560776,-0.01468845536
4.54,0.0005111580757,-0.01546033019
4.55,-0.004014454353,-0.01488417574
4.56,-0.008161420452,-0.01301885786
4.57,-0.01157300216,-0.01003400728
4.58,-0.01395796529,-0.006194829735
4.59,-0.01511523205,-0.001838854522
4.6,-0.01495074308,0.002653383123
4.61,-0.0134851272,0.006891229787
4.62,-0.01085154699,0.01050758038
4.63,-0.007283911409,0.01319046611
4.64,-0.003096456557,0.01470987665
4.65,0.001343573401,0.0149375236
4.66,0.005647821726,0.01385784007
4.67,0.009440566363,0.01156924767
4.68,0.01239141888,0.008275546844
4.69,0.01424414405,0.004268133319
4.7,0.01483908084,-9.94604344E-05
4.71,0.014127178,-0.004442521298
4.72,0.01217436978,-0.008378933026
4.73,0.009155850539,-0.01156282619
4.74,0.005340691583,-0.0137151336
4.75,0.001068102553,-0.01464832824
4.76,-0.003282604863,-0.01428311059
4.77,-0.007325709823,-0.01265550923
4.78,-0.01070343724,-0.009913704439
4.79,-0.01311789258,-0.006304804375
4.8,-0.01435768639,-0.002152715798
4.81,-0.01431681787,0.002170930018
4.82,-0.01300407475,0.00628018661
4.83,-0.01054206435,0.00980951279
4.84,-0.007155938326,0.01244664206
4.85,-0.003152824255,0.0139605942
4.86,0.001106159731,0.01422225994
4.87,0.005238738876,0.01321567126
4.88,0.008876141721,0.01103893215
4.89,0.01169639299,0.007894746311
4.9,0.01345317734,0.004071448084
4.91,0.01399763265,-8.367378451E-05
4.92,0.01329110177,-0.00419625695
4.93,0.01140772673,-0.00789897552
4.94,0.008526725963,-0.01086471574
4.95,0.004915159936,-0.0128357671
4.96,0.0009028708119,-0.01364638027
4.97,-0.003148007309,-0.01323669173
4.98,-0.006876095822,-0.01165684464
4.99,-0.009953308026,-0.009061064045
5,-0.01211390156,-0.005692380485
5.01,-0.01317744766,-0.001859550267
5.02,-0.01306372835,0.00209158767
5.03,-0.0117983555,0.005809611152
5.04,-0.009508782912,0.008968959073
5.05,-0.006411267979,0.0112984804
5.06,-0.002790149867,0.01260457905
5.07,0.001028526719,0.01278699838
5.08,0.004706556379,0.01184600363
5.09,0.007923583507,0.009880526224
5.1,0.01040490928,0.007077652007
5.11,0.01194469774,0.003694592901
5.12,0.01242265908,3.491101561E-05
5.13,0.01181291694,-0.003578784103
5.14,0.01018448576,-0.00683320322
5.15,0.007693527743,-0.009451329588
5.16,0.004568261243,-0.01121567047
5.17,0.001087994758,-0.01198590658
5.18,-0.002441782494,-0.01170956905
5.19,-0.005716044102,-0.01042500147
5.2,-0.008456309532,-0.008256532856
5.21,-0.01043397963,-0.005402440763
5.22,-0.01148902116,-0.002116868804
5.23,-0.01154252785,0.001312663663
5.24,-0.0106022242,0.004590194706
5.25,-0.008760579122,0.007436570477
5.26,-0.006185810552,0.009612902746
5.27,-0.003106640974,0.01094030696
5.28,0.0002078365981,0.0113143304
5.29,0.003471440602,0.01071293861
5.3,0.006405352279,0.009197472146
5.31,0.008761683464,0.006906571097
5.32,0.01034420056,0.004043645055
5.33,0.0110244962,0.0008589957418
5.34,0.0107522901,-0.002371864858
5.35,0.009559037939,-0.005371850687
5.36,0.007554590346,-0.00788588865
5.37,0.004917228257,-0.009702466598
5.38,0.001877956751,-0.01067133233
5.39,-0.001299579358,-0.01071586559
5.4,-0.004341829117,-0.009839101658
5.41,-0.006988770532,-0.008122927679
5.42,-0.009016046912,-0.00572055622
5.43,-0.01025392274,-0.002842953342
5.44,-0.01060145683,0.0002595873631
5.45,-0.01003470706,0.003319123203
5.46,-0.008608297639,0.006073120652
5.47,-0.006450252736,0.00828691213
5.48,-0.003750577648,0.009773632412
5.49,-0.0007446022959,0.01040994309
5.5,0.002307455896,0.01014622481
5.51,0.005142938287,0.009010399148
5.52,0.007519268979,0.007105092447
5.53,0.009234631357,0.004598424401
5.54,0.01014504277,0.001709246315
5.55,0.01017639141,-0.001311879027
5.56,0.009330437398,-0.004204310082
5.57,0.007684298711,-0.006719714435
5.58,0.005383498206,-0.008643301174
5.59,0.002629193097,-0.009812095095
5.6,-0.0003393021228,-0.010128709
5.61,-0.003265194406,-0.009569457518
5.62,-0.005896321547,-0.008186138309
5.63,-0.008006804373,-0.006101344448
5.64,-0.009416395457,-0.003497719687
5.65,-0.01000587469,-0.0006020821168
5.66,-0.009727177525,0.002334222145
5.67,-0.008607388958,0.005057051074
5.68,-0.006746258312,0.007331419323
5.69,-0.00430744397,0.008961782274
5.7,-0.001504236456,0.00980889998
5.71,0.001419012904,0.009801817868
5.72,0.004208153964,0.008943917832
5.73,0.00662134605,0.007312504027
5.74,0.008450086536,0.005051949207
5.75,0.009537320038,0.002360991326
5.76,0.009791037807,-0.0005247135557
5.77,0.009192168887,-0.00335325372
5.78,0.007796065979,-0.005878522155
5.79,0.005727455707,-0.00788172913
5.8,0.003169304209,-0.009190467009
5.81,0.0003465917648,-0.009693644539
5.82,-0.002493555614,-0.009350977528
5.83,-0.005103606285,-0.008196211828
5.84,-0.007257300989,-0.006333817726
5.85,-0.008769348538,-0.003929480323
5.86,-0.009511406844,-0.001195263746
5.87,-0.00942296074,0.001629202884
5.88,-0.008516174836,0.004297825772
5.89,-0.006874344885,0.006579553597
5.9,-0.004644143693,0.008278396158
5.91,-0.002022404456,0.009250213648
5.92,0.0007613437534,0.009414843291
5.93,0.003465017946,0.00876255953
5.94,0.005855019968,0.007354373966
5.95,0.007726341447,0.005316224124
5.96,0.008920014704,0.002827627138
5.97,0.009336445658,0.0001058400926
5.98,0.008943540327,-0.002613065196
5.99,0.007778995661,-0.005094566728
6,0.005946626964,-0.007125754912
