"Freq [GHz]","re(S(Rx_p1,Tx_p1)) []","im(S(Rx_p1,Tx_p1)) []"
1,-0.01774868309,0.01122447516
1.01,-0.01328048347,0.01609615119
1.02,-0.007546195424,0.01930159712
1.03,-0.00114046932,0.02053878648
1.04,0.005281125366,0.01971108169
1.05,0.01107115271,0.01693443767
1.06,0.01565744642,0.01252196437
1.07,0.01860110256,0.006947912952
1.08,0.01963926126,0.0007953812168
1.09,0.01870842595,-0.005306275976
1.1,0.01594631107,-0.0107473753
1.11,0.01167260712,-0.0150000532
1.12,0.00635132579,-0.01767014678
1.13,0.0005392858442,-0.01853364531
1.14,-0.005173374778,-0.01755439025
1.15,-0.01022414512,-0.01488182852
1.16,-0.01413413222,-0.01082978949
1.17,-0.01655347097,-0.00583922095
1.18,-0.0172918794,-0.0004293804848
1.19,-0.01633182856,0.004857012439
1.2,-0.01382372155,0.009508780401
1.21,-0.01006436889,0.01309582407
1.22,-0.005461709454,0.01530840112
1.23,-0.0004899942295,0.0159826491
1.24,0.00435958617,0.01511043842
1.25,0.008627642174,0.01283333969
1.26,0.01192984546,0.009422116526
1.27,0.01399067953,0.005244546016
1.28,0.01466483841,0.0007253923486
1.29,0.01394484026,-0.00369706972
1.3,0.01195489395,-0.007613499353
1.31,0.008932433206,-0.01068079884
1.32,0.005199875155,-0.01265095941
1.33,0.001129964807,-0.01338917974
1.34,-0.002891529147,-0.01288021476
1.35,-0.00650201299,-0.01122315084
1.36,-0.009393800665,-0.008615925901
1.37,-0.01133872452,-0.005331808793
1.38,-0.01220388129,-0.001690644667
1.39,-0.01195777524,0.001972074188
1.4,-0.01066709927,0.005335333444
1.41,-0.008485245025,0.008119309357
1.42,-0.005634276351,0.01010664641
1.43,-0.002382494992,0.01115698806
1.44,0.0009801368531,0.01121418966
1.45,0.00416654878,0.01030632829
1.46,0.006915199794,0.008539191106
1.47,0.009009307741,0.00608433204
1.48,0.01029162207,0.003163028861
1.49,0.01067412614,2.75630265E-05
1.5,0.01014243686,-0.003058781108
1.51,0.008754977193,-0.005841700981
1.52,0.006637230414,-0.008094679981
1.53,0.00397156225,-0.009635580783
1.54,0.000983243958,-0.01034011925
1.55,-0.002076547209,-0.01015142302
1.56,-0.004949815735,-0.009085001717
1.57,-0.007391814797,-0.007228616031
1.58,-0.009190807921,-0.004736758386
1.59,-0.01018609684,-0.00181976603
1.6,-0.01028281799,0.001272021278
1.61,-0.009462060691,0.004268194097
1.62,-0.007785066889,0.006900961688
1.63,-0.005390651531,0.008928834903
1.64,-0.002485525721,0.01015923029
1.65,0.0006721279912,0.01046779048
1.66,0.003794753701,0.009812315347
1.67,0.006591422765,0.008239553075
1.68,0.008795393579,0.005883698555
1.69,0.0101905279,0.002956241881
1.7,0.01063378407,-0.00027227991
1.71,0.01007124936,-0.00349715366
1.72,0.008545730206,-0.006408693517
1.73,0.006194743339,-0.008722886452
1.74,0.003238756897,-0.01021029257
1.75,-3.939614907E-05,-0.01072007315
1.76,-0.003321998347,-0.0101964459
1.77,-0.00628806414,-0.008685622101
1.78,-0.008645804518,-0.006332283266
1.79,-0.01016248765,-0.003365791096
1.8,-0.01068847139,-7.746086827E-05
1.81,-0.01017278327,0.003208770433
1.82,-0.008668527626,0.006169203482
1.83,-0.006327503789,0.008513282803
1.84,-0.003384594821,0.01001305716
1.85,-0.0001335975949,0.01052608044
1.86,0.003102915605,0.0100093631
1.87,0.006006488744,0.008522966589
1.88,0.008294947857,0.006222959361
1.89,0.009750482709,0.003344594261
1.9,0.01024077043,0.0001775957433
1.91,0.009731053678,-0.00296375024
1.92,0.008286080507,-0.005772513247
1.93,0.006061901619,-0.007979707674
1.94,0.003288582566,-0.009380434522
1.95,0.0002458096959,-0.0098529956
1.96,-0.002765944898,-0.009369196945
1.97,-0.005455648202,-0.007995018766
1.98,-0.007570214907,-0.005881845911
1.99,-0.008918464649,-0.00324941639
2,-0.009388248813,-0.0003624563067
2.01,-0.008955240538,0.002496451715
2.02,-0.007682781737,0.005054924837
2.03,-0.005713109786,0.007076928255
2.04,-0.003251145879,0.008384482356
2.05,-0.0005427304494,0.008872943109
2.06,0.002150328341,0.008518597445
2.07,0.004575809246,0.007378139318
2.08,0.006514707705,0.005580422343
2.09,0.007800723102,0.003311634578
2.1,0.008333905579,0.0007956362562
2.11,0.008087428319,-0.001728411887
2.12,0.007107181711,-0.004028851954
2.13,0.005504602923,-0.005902574289
2.14,0.00344378428,-0.007192417106
2.15,0.00112438707,-0.00779950183
2.16,-0.001237815379,-0.00768966127
2.17,-0.003430845977,-0.006893731788
2.18,-0.005265062838,-0.005502066404
2.19,-0.006588772785,-0.003654126109
2.2,-0.007299750034,-0.001524379397
2.21,-0.007351947303,0.0006940382034
2.22,-0.006757159586,0.002806385762
2.23,-0.005581841919,0.004632654996
2.24,-0.003939654462,0.006021927935
2.25,-0.001980587531,0.006863764248
2.26,0.0001223029727,0.007095936976
2.27,0.00218743902,0.006708152465
2.28,0.004039435742,0.005741689553
2.29,0.005522950652,0.00428515794
2.3,0.006514744481,0.002466798798
2.31,0.006933177638,0.0004439323535
2.32,0.006744533287,-0.00160969843
2.33,0.005965741549,-0.003517826843
2.34,0.004663279898,-0.005115861294
2.35,0.002948244787,-0.006264393051
2.36,0.0009678294502,-0.00686101559
2.37,-0.001106301801,-0.006849506243
2.38,-0.003091993765,-0.006225536339
2.39,-0.004811944089,-0.005038269035
2.4,-0.006109221739,-0.003387477213
2.41,-0.00686164807,-0.001416158553
2.42,-0.006993708824,0.000700980111
2.43,-0.006484771884,0.002772385711
2.44,-0.005372627785,0.004606701695
2.45,-0.003751741312,0.006030514798
2.46,-0.00176607771,0.006905143615
2.47,0.0004030961255,0.007140779421
2.48,0.002553492927,0.006706442718
2.49,0.004480741876,0.005634552592
2.5,0.005998190101,0.004019397551
2.51,0.006955587305,0.002009400879
2.52,0.007254689971,-0.0002062722737
2.53,0.006860059909,-0.002415588667
2.54,0.005803775574,-0.004404293905
2.55,0.004183381972,-0.005977261831
2.56,0.00215311256,-0.006978330436
2.57,-9.085472769E-05,-0.007306506631
2.58,-0.002329679509,-0.006926760991
2.59,-0.004343728095,-0.005874180614
2.6,-0.005934762442,-0.004250945162
2.61,-0.006946112835,-0.002216360385
2.62,-0.007278688941,2.906246006E-05
2.63,-0.006901115218,0.002263840785
2.64,-0.005852901324,0.004267953212
2.65,-0.004240305701,0.005845112779
2.66,-0.002225336236,0.006842540651
2.67,-9.066892223E-06,0.00716617506
2.68,0.002188948945,0.006789750059
2.69,0.004152985329,0.005756845517
2.7,0.005692827404,0.004175767277
2.71,0.006662584523,0.002207879054
2.72,0.00697472299,5.069105951E-05
2.73,0.006607945583,-0.002082459294
2.74,0.005608218271,-0.003983976642
2.75,0.004082977169,-0.005472584241
2.76,0.002189259685,-0.006410821419
2.77,0.0001171165408,-0.006717748567
2.78,-0.001929886955,-0.006375689492
2.79,-0.003755024579,-0.005430490241
2.8,-0.005187538001,-0.003985455809
2.81,-0.006098654658,-0.002189767629
2.82,-0.006412990961,-0.0002227191251
2.83,-0.006114359938,0.001724518134
2.84,-0.005245604741,0.003467701485
2.85,-0.003902694604,0.004847019632
2.86,-0.002223883219,0.005741621679
2.87,-0.0003751852234,0.006079872233
2.88,0.0014662668,0.005844513405
2.89,0.003129288132,0.005072453369
2.9,0.004464475822,0.003849439041
2.91,0.005357359456,0.002300352849
2.92,0.005737751905,0.0005762552505
2.93,0.005584606211,-0.001160456189
2.94,0.004926148388,-0.002751299409
2.95,0.003835511232,-0.00405594711
2.96,0.002422497397,-0.004964206266
2.97,0.0008224157731,-0.005404774412
2.98,-0.0008168592316,-0.00535016067
2.99,-0.002348370804,-0.004817540267
3,-0.003638902706,-0.003865683224
3.01,-0.004580075185,-0.002588427804
3.02,-0.005096863428,-0.001105431549
3.03,-0.005152958382,0.0004488885196
3.04,-0.004752684892,0.001937226226
3.05,-0.003939485055,0.003231065307
3.06,-0.002791242472,0.004221241498
3.07,-0.001412948424,0.004826600855
3.08,7.261744854E-05,0.005000152047
3.09,0.001535406823,0.004732323018
3.1,0.002848984796,0.004051156833
3.11,0.003900940389,0.003019503699
3.12,0.004602047064,0.001729474612
3.13,0.004893496008,0.0002946075617
3.14,0.004751665137,-0.001159647804
3.15,0.004190059072,-0.002506403222
3.16,0.003258252463,-0.003627963925
3.17,0.00203788221,-0.004425795085
3.18,0.0006359530846,-0.004829025275
3.19,-0.0008240667249,-0.004800773742
3.2,-0.002212693251,-0.004341729284
3.21,-0.00340559807,-0.003490602603
3.22,-0.00429458528,-0.002321312201
3.23,-0.004797426032,-0.0009370315015
3.24,-0.004865651359,0.0005384979412
3.25,-0.004489536135,0.00197171982
3.26,-0.003699718759,0.0032311941
3.27,-0.002565180183,0.004199661674
3.28,-0.001187631044,0.004785131802
3.29,0.0003073017212,0.004929917611
3.3,0.001781370885,0.004616689175
3.31,0.003096494496,0.003870859584
3.32,0.004127846774,0.002758948866
3.33,0.004775989049,0.001382954433
3.34,0.004976820273,-0.0001288424457
3.35,0.004708300127,-0.001633828926
3.36,0.003993188185,-0.002988657678
3.37,0.002897424617,-0.004063170141
3.38,0.001524214044,-0.004753253739
3.39,4.319150359E-06,-0.004991312181
3.4,-0.001516524015,-0.004753241993
3.41,-0.00289183739,-0.004061146706
3.42,-0.003988851063,-0.002981449221
3.43,-0.004701696939,-0.001618538171
3.44,-0.004961980683,-0.0001045539098
3.45,-0.004745625597,0.001413667763
3.46,-0.004075263661,0.002789167846
3.47,-0.003017912674,0.00388945773
3.48,-0.001678173789,0.004609631336
3.49,-0.000187655906,0.004882647109
3.5,0.001308270118,0.004685731225
3.51,0.002665007818,0.004042266133
3.52,0.00375305602,0.003019008118
3.53,0.004470645377,0.001718970102
3.54,0.004753416635,0.0002707569575
3.55,0.004580196134,-0.001184499548
3.56,0.003974349185,-0.002507228613
3.57,0.003000664129,-0.003573075489
3.58,0.001758185854,-0.004284747733
3.59,0.0003698261916,-0.00458090064
3.6,-0.001030113059,-0.004441249494
3.61,-0.002309191097,-0.003887510393
3.62,-0.003349507077,-0.002980211921
3.63,-0.004058570829,-0.001811837987
3.64,-0.004377362756,-0.0004971135941
3.65,-0.004284906503,0.000838504241
3.66,-0.003799056584,0.002070939867
3.67,-0.002973591043,0.003089026177
3.68,-0.001892054887,0.003804375217
3.69,-0.000659088674,0.00415874113
3.7,0.0006098264155,0.004128312805
3.71,0.001799183276,0.003724696282
3.72,0.002803811986,0.002992668539
3.73,0.00353788649,0.002005073185
3.74,0.003941851275,0.0008554597496
3.75,0.003986775665,-0.0003507741323
3.76,0.003675897802,-0.001505901235
3.77,0.00304337264,-0.002509208606
3.78,0.002150466754,-0.003275401608
3.79,0.001079631415,-0.003741427988
3.8,-7.297583074E-05,-0.003871245087
3.81,-0.00120586598,-0.003658237889
3.82,-0.002220803021,-0.003125186033
3.83,-0.003030928529,-0.002321861318
3.84,-0.003567816769,-0.001320503522
3.85,-0.003786945785,-0.0002095642938
3.86,-0.00367119306,0.0009137787982
3.87,-0.003232108254,0.001951756899
3.88,-0.002508873229,0.002814169242
3.89,-0.001565023944,0.003425938984
3.9,-0.0004831716307,0.003733473082
3.91,0.0006418867841,0.003709310157
3.92,0.001711147049,0.003354655869
3.93,0.002629841726,0.002699555776
3.94,0.00331566736,0.00180063372
3.95,0.003706102202,0.0007365184038
3.96,0.003764168045,-0.0003987221809
3.97,0.003482093034,-0.001503635916
3.98,0.002882489135,-0.00247827754
3.99,0.002016858793,-0.003233178563
4,0.0009614753416,-0.003697598017
4.01,-0.0001890786346,-0.003826285309
4.02,-0.001330203627,-0.003604089089
4.03,-0.002356703262,-0.003047916982
4.04,-0.003172494142,-0.002205778276
4.05,-0.003699706069,-0.001152906196
4.06,-0.003886295778,1.476573222E-05
4.07,-0.003711406333,0.001189234531
4.08,-0.003187893586,0.002260403809
4.09,-0.002361695582,0.003126485113
4.1,-0.001308018036,0.003703831424
4.11,-0.0001246208782,0.003935232426
4.12,0.001077213795,0.003795821945
4.13,0.002183204035,0.003295958767
4.14,0.003087079199,0.002480724958
4.15,0.003701001201,0.001426014627
4.16,0.00396434731,0.0002315285427
4.17,0.0038499447,-0.000988689038
4.18,0.003367083631,-0.002117269909
4.19,0.002560949315,-0.003045017081
4.2,0.001508471671,-0.003681723107
4.21,0.0003109604535,-0.003965206053
4.22,-0.0009157683185,-0.003867621722
4.23,-0.002052797476,-0.003398377759
4.24,-0.002989895129,-0.002603318902
4.25,-0.00363647847,-0.001560237462
4.26,-0.003930624984,-0.0003711478969
4.27,-0.003845197093,0.0008478930149
4.28,-0.003390444493,0.001978376847
4.29,-0.002612817379,0.00291115001
4.3,-0.001590123011,0.003557217909
4.31,-0.0004235435923,0.003856437337
4.32,0.0007726380086,0.003783216315
4.33,0.001882523011,0.00334866366
4.34,0.002800094556,0.002599011246
4.35,0.00343954677,0.00161052732
4.36,0.003743406607,0.0004815046402
4.37,0.003687663041,-0.000677797664
4.38,0.003283450078,-0.00175618631
4.39,0.002575201793,-0.002652395464
4.4,0.001635566389,-0.00328468563
4.41,0.000557691282,-0.003598255213
4.42,-0.0005542617106,-0.003569799164
4.43,-0.001595366644,-0.003208867096
4.44,-0.00246991169,-0.002556012175
4.45,-0.00310014442,-0.001678044044
4.46,-0.003432994227,-0.0006609702107
4.47,-0.003444222837,0.000398594668
4.48,-0.00313973383,0.001402668388
4.49,-0.002554058935,0.00226089736
4.5,-0.001746302501,0.002898495289
4.51,-0.0007940416105,0.003262460097
4.52,0.0002141688431,0.003325604086
4.53,0.001186956892,0.003088156886
4.54,0.002038222427,0.002576926689
4.55,0.00269447208,0.001842212203
4.56,0.003100824523,0.0009528301417
4.57,0.003225253459,-1.024889559E-05
4.58,0.003060798915,-0.0009610838742
4.59,0.002625647015,-0.001816162502
4.6,0.001961142188,-0.002501425647
4.61,0.001127944624,-0.002958378197
4.62,0.0002006728534,-0.003148831353
4.63,-0.0007385279768,-0.003057930485
4.64,-0.001606980924,-0.002695250895
4.65,-0.002328486041,-0.002093884607
4.66,-0.00283979112,-0.001307588094
4.67,-0.003096006088,-0.0004062060322
4.68,-0.003074513466,0.0005302786648
4.69,-0.002777033354,0.001418602763
4.7,-0.002229638524,0.002179436707
4.71,-0.001480675877,0.002744355617
4.72,-0.0005967237768,0.003061967251
4.73,0.0003431128858,0.003102646693
4.74,0.001254112232,0.002861427958
4.75,0.002053468179,0.002358748797
4.76,0.002667787688,0.001638926427
4.77,0.003039873232,0.0007664437581
4.78,0.00313415334,-0.000179670251
4.79,0.002940228284,-0.001112896275
4.8,0.002474157347,-0.001947097275
4.81,0.001777315376,-0.002604493515
4.82,0.0009128714272,-0.003022995215
4.83,-3.983019148E-05,-0.00316218898
4.84,-0.0009924988442,-0.0030073845
4.85,-0.00185608275,-0.002571299186
4.86,-0.002549149699,-0.001893175312
4.87,-0.003005666755,-0.001035366743
4.88,-0.003181423319,-7.767723029E-05
4.89,-0.003058457423,0.0008900444574
4.9,-0.002647025873,0.001776368174
4.91,-0.001984888576,0.002497004116
4.92,-0.00113393483,0.002982941509
4.93,-0.0001744397424,0.003187204461
4.94,0.0008025233023,0.003089546292
4.95,0.001703797281,0.002698594555
4.96,0.002443142633,0.002051202527
4.97,0.002949641665,0.001209036155
4.98,0.003174668384,0.0002527015028
4.99,0.003096716709,-0.0007260312938
5,0.002723585249,-0.001633152085
5.01,0.002091677265,-0.002381601195
5.02,0.001262464343,-0.002899807042
5.03,0.0003164519573,-0.003138708305
5.04,-0.0006547560221,-0.003076545303
5.05,-0.001557497063,-0.002720929261
5.06,-0.002305278851,-0.002107976237
5.07,-0.002827259594,-0.001298595565
5.08,-0.003075118742,-0.0003723180788
5.09,-0.003027625704,0.0005806952073
5.1,-0.002692456909,0.001468636157
5.11,-0.002105101712,0.002207098568
5.12,-0.001325003347,0.002727269481
5.13,-0.0004293681156,0.002982440272
5.14,0.0004946872946,0.002952203475
5.15,0.001358819836,0.002643954778
5.16,0.002082076964,0.002091608672
5.17,0.00259857796,0.001351727996
5.18,0.002863513579,0.0004975293791
5.19,0.002856915749,-0.0003885697248
5.2,0.002584897613,-0.001223071474
5.21,0.002078333985,-0.001929358398
5.22,0.001389212503,-0.002444719705
5.23,0.0005851084095,-0.00272579892
5.24,-0.0002576008557,-0.002752008346
5.25,-0.00106107499,-0.0025266805
5.26,-0.001753185153,-0.002075959573
5.27,-0.002273864335,-0.001445651992
5.28,-0.002580094962,-0.0006964331911
5.29,-0.002649157268,0.0001020670104
5.3,-0.002479946006,0.0008777127538
5.31,-0.002092348256,0.001562251351
5.32,-0.001524843597,0.002097098899
5.33,-0.0008306260177,0.002438068849
5.34,-7.2646337E-05,0.002558709967
5.35,0.0006819687649,0.002452054791
5.36,0.00136764832,0.00213071606
5.37,0.001925805815,0.001625396291
5.38,0.002309560422,0.000981987014
5.39,0.002487416981,0.0002575247196
5.4,0.002445657275,-0.0004846619672
5.41,0.002189290905,-0.001180235448
5.42,0.001741514538,-0.001769163561
5.43,0.001141729506,-0.002200668349
5.44,0.0004422659836,-0.00243743698
5.45,-0.0002959466526,-0.002458769548
5.46,-0.001008443777,-0.00226240715
5.47,-0.001632641177,-0.00186487237
5.48,-0.002113179322,-0.001300260151
5.49,-0.002406760812,-0.0006175347037
5.5,-0.002486065978,0.0001234898894
5.51,-0.002342387056,0.0008571907284
5.52,-0.001986711276,0.001517803063
5.53,-0.001449103318,0.002045243058
5.54,-0.0007763798433,0.002390578447
5.55,-2.822177131E-05,0.002520645135
5.56,0.0007279803816,0.00242136092
5.57,0.001423121483,0.002099386526
5.58,0.001992692152,0.001581922627
5.59,0.0023828265,0.0009145984476
5.6,0.002555509801,0.0001575877027
5.61,0.002492426059,-0.0006197364377
5.62,0.00219703715,-0.001345142253
5.63,0.001694642448,-0.001950297193
5.64,0.001030356893,-0.002377302496
5.65,0.0002651480935,-0.002584365775
5.66,-0.0005297308818,-0.002550037954
5.67,-0.00127940752,-0.002275566498
5.68,-0.001912525943,-0.001785091914
5.69,-0.002368161158,-0.001123622662
5.7,-0.002601825024,-0.0003529443829
5.71,-0.002589953108,0.0004541697978
5.72,-0.002332401662,0.001220902486
5.73,-0.001852675539,0.001873816421
5.74,-0.001195832301,0.002350027146
5.75,-0.0004242423633,0.002603404726
5.76,0.0003883947738,0.002609173471
5.77,0.001164195674,0.002366433509
5.78,0.001828692286,0.0018983345
5.79,0.002318125378,0.001249868787
5.8,0.002585697671,0.0004834941426
5.81,0.002606154548,-0.0003269807162
5.82,0.002378229048,-0.00110363548
5.83,0.00192470559,-0.001772073997
5.84,0.001290100695,-0.002268687738
5.85,0.0005362026725,-0.002546818278
5.86,-0.0002640699432,-0.002581205992
5.87,-0.001033862847,-0.002370291293
5.88,-0.001699903127,-0.001936157603
5.89,-0.002199584163,-0.001322147634
5.9,-0.002486917172,-0.0005884204919
5.91,-0.002536773938,0.0001940783737
5.92,-0.002347027955,0.0009506103663
5.93,-0.001938420508,0.001609891428
5.94,-0.001352210057,0.002110875563
5.95,-0.0006458831251,0.002408419088
5.96,0.000112609829,0.002477298708
5.97,0.0008514973996,0.00231423386
5.98,0.001502044452,0.001937770177
5.99,0.002004959175,0.001386094133
6,0.00231575142,0.0007130470039
