"Freq [GHz]","re(S(Rx_p1,Tx_p1)) []","im(S(Rx_p1,Tx_p1)) []"
1,-0.05010561365,-0.009005476034
1.01,-0.0502444788,0.006537176597
1.02,-0.04567127502,0.0213292412
1.03,-0.03685406768,0.03396962497
1.04,-0.02467083122,0.04327287539
1.05,-0.01032064784,0.04838743106
1.06,0.004798682471,0.04887904201
1.07,0.01923319069,0.04477006832
1.08,0.03161960002,0.03653054385
1.09,0.04082024693,0.02502259975
1.1,0.04603146404,0.01140529495
1.11,0.04685428972,-0.002988641853
1.12,0.04332112424,-0.0167897735
1.13,0.03587731377,-0.02872726323
1.14,0.02532185931,-0.03774815806
1.15,0.01271582911,-0.04310896673
1.16,-0.0007299295871,-0.04443177871
1.17,-0.01377482204,-0.04172170985
1.18,-0.02526364539,-0.03534695286
1.19,-0.03422598582,-0.02598656628
1.2,-0.03995185981,-0.01455392311
1.21,-0.0420389566,-0.002105234903
1.22,-0.040410217,0.01025722729
1.23,-0.03530342157,0.02147848123
1.24,-0.02723665578,0.0306336626
1.25,-0.01695484669,0.03699525799
1.26,-0.005363072172,0.04008167294
1.27,0.00654778722,0.03968579075
1.28,0.01777799354,0.03588347148
1.29,0.02739406009,0.0290227955
1.3,0.03459812727,0.01969538449
1.31,0.03878805682,0.008691517287
1.32,0.03960486865,-0.003058807212
1.33,0.0369642678,-0.01455607861
1.34,0.03106927058,-0.02480910044
1.35,0.02240153972,-0.03291572861
1.36,0.01169012668,-0.03814077197
1.37,-0.0001420550375,-0.03998451377
1.38,-0.0120516223,-0.03823505354
1.39,-0.0229632587,-0.03299817287
1.4,-0.03186643684,-0.02469982482
1.41,-0.03791158862,-0.01405861715
1.42,-0.04049602165,-0.00202862518
1.43,-0.03933000692,0.01028379797
1.44,-0.03447481122,0.02172227984
1.45,-0.02634696827,0.03119209449
1.46,-0.0156865382,0.03776981787
1.47,-0.0034910974,0.04079909304
1.48,0.009078773888,0.03996160838
1.49,0.02081321878,0.03531477064
1.5,0.03057423126,0.02729107641
1.51,0.03741120117,0.01665842894
1.52,0.0406582683,0.004445081706
1.53,0.04000277112,-0.00816304951
1.54,0.03551725967,-0.01994179395
1.55,0.0276516169,-0.02975205614
1.56,0.01718628528,-0.03665389566
1.57,0.005151877119,-0.03999933492
1.58,-0.00727595643,-0.0394943797
1.59,-0.01889501786,-0.03522425763
1.6,-0.02859587825,-0.02763996487
1.61,-0.03546973836,-0.01750836358
1.62,-0.03889414437,-0.005831816872
1.63,-0.03858852474,0.006253711026
1.64,-0.03463488962,0.01759129934
1.65,-0.02746271931,0.02711501524
1.66,-0.01780065464,0.03395025208
1.67,-0.006600731086,0.03749314674
1.68,0.005056706208,0.03746216731
1.69,0.01606778398,0.03391789038
1.7,0.02540944901,0.02725012109
1.71,0.0322336961,0.01813455179
1.72,0.03594327508,0.007463845525
1.73,0.03624243777,-0.003739834981
1.74,0.03315872205,-0.01442239486
1.75,0.02703445771,-0.02359635242
1.76,0.01848939773,-0.03043137704
1.77,0.008358412202,-0.03432872744
1.78,-0.002389662051,-0.03497306451
1.79,-0.01274431486,-0.03235722311
1.8,-0.02174816738,-0.02677801005
1.81,-0.02858548908,-0.01880374909
1.82,-0.03265625183,-0.009216891396
1.83,-0.03362892417,0.001062679734
1.84,-0.03146723297,0.01106621922
1.85,-0.0264286171,0.01986802621
1.86,-0.01903483515,0.02667185781
1.87,-0.01001789857,0.03088360339
1.88,-0.0002469044161,0.03216338231
1.89,0.00935681961,0.03045233244
1.9,0.01790777285,0.0259719414
1.91,0.02463887182,0.01919656063
1.92,0.02897062489,0.01080242954
1.93,0.03056048745,0.001598827819
1.94,0.02932817662,-0.007551380224
1.95,0.02545528923,-0.01581371436
1.96,0.01936021569,-0.02245851879
1.97,0.01165177476,-0.02692473094
1.98,0.003066948398,-0.02886543967
1.99,-0.005600621485,-0.02817178631
2,-0.01357419946,-0.0249740776
2.01,-0.02016267012,-0.01962124725
2.02,-0.0248184179,-0.01264177643
2.03,-0.02717984005,-0.004690678125
2.04,-0.0270957094,0.003511944114
2.05,-0.02463043648,0.01124495937
2.06,-0.02005099783,0.01784736096
2.07,-0.0137977442,0.02277169556
2.08,-0.006442386692,0.02562599256
2.09,0.001362855782,0.02620161273
2.1,0.008940655165,0.02448566125
2.11,0.01564424027,0.02065776812
2.12,0.02090931398,0.01507206908
2.13,0.02429864856,0.008226098572
2.14,0.02553635689,0.0007190372436
2.15,0.02452950675,-0.006797648864
2.16,0.0213755061,-0.01367367326
2.17,0.016354543,-0.01931366311
2.18,0.009907316132,-0.02322716354
2.19,0.002599326139,-0.02507096318
2.2,-0.004925930729,-0.02468011021
2.21,-0.01200149297,-0.02208461895
2.22,-0.01799492786,-0.01750982675
2.23,-0.02236490963,-0.01135962245
2.24,-0.02471126881,-0.004183253868
2.25,-0.02481364405,0.003371996482
2.26,-0.02265463332,0.01061846823
2.27,-0.01842460643,0.01689106023
2.28,-0.01250701388,0.02160957732
2.29,-0.005444948987,0.02433437287
2.3,0.002108316824,0.02480958218
2.31,0.009450333597,0.02298930261
2.32,0.01589615713,0.01904370041
2.33,0.02084410658,0.01334404687
2.34,0.02383393383,0.006427882513
2.35,0.02459143123,-0.00105237792
2.36,0.02305486548,-0.008392304903
2.37,0.01938050874,-0.01490344745
2.38,0.01392672585,-0.01997958555
2.39,0.007218316388,-0.02315457536
2.4,-0.0001051553071,-0.02414604952
2.41,-0.007351706847,-0.02288076615
2.42,-0.01384362341,-0.01949934738
2.43,-0.01898183492,-0.01434028339
2.44,-0.0223017272,-0.007905161964
2.45,-0.02351514768,-0.0008088949101
2.46,-0.02253487358,0.006279925254
2.47,-0.01947962725,0.01270260835
2.48,-0.01465964654,0.01787177609
2.49,-0.008544654173,0.02132489462
2.5,-0.001717647031,0.02276515258
2.51,0.005180883169,0.0220862293
2.52,0.01151296608,0.01937907147
2.53,0.01670185509,0.01492046817
2.54,0.02028413636,0.009144837717
2.55,0.02195067744,0.002602084477
2.56,0.02157292361,-0.004094455652
2.57,0.01921239186,-0.01032516591
2.58,0.01511270994,-0.01552119864
2.59,0.009675084789,-0.01921628402
2.6,0.003419542015,-0.02108864576
2.61,-0.00306445855,-0.02098925902
2.62,-0.009173464108,-0.01895390727
2.63,-0.01434638692,-0.01519795896
2.64,-0.01811652054,-0.01009437368
2.65,-0.02015432032,-0.004137022075
2.66,-0.02029689045,0.002107182068
2.67,-0.01856136675,0.008052731336
2.68,-0.01514093746,0.01315127092
2.69,-0.01038395582,0.01694319619
2.7,-0.004758294201,0.01910005016
2.71,0.001195412194,0.01945359486
2.72,0.006916854618,0.01800880178
2.73,0.01188006889,0.01493968071
2.74,0.01564293393,0.01056865997
2.75,0.01788725188,0.005331940092
2.76,0.01844559299,-0.0002653300859
2.77,0.01731257516,-0.005699227176
2.78,0.01463996018,-0.01047732738
2.79,0.01071667992,-0.0141840075
2.8,0.005936450146,-0.01651643529
2.81,0.0007568087321,-0.01730810034
2.82,-0.004345895548,-0.01653821607
2.83,-0.008920894905,-0.0143269005
2.84,-0.01258249394,-0.01091752146
2.85,-0.01504121126,-0.006648800859
2.86,-0.01612426043,-0.001920087909
2.87,-0.0157843379,0.002846427698
2.88,-0.01409693264,0.007242879315
2.89,-0.0112474421,0.01090905079
2.9,-0.007510164851,0.01355939814
2.91,-0.003221692043,0.01500217801
2.92,0.001248658734,0.01514998396
2.93,0.005528879123,0.01402177646
2.94,0.009272635785,0.0117371003
2.95,0.01218427129,0.008503586686
2.96,0.01403919652,0.004599051174
2.97,0.01469882498,0.0003495708454
2.98,0.01411950626,-0.00389508199
2.99,0.01235514144,-0.007787293302
3,0.009553344013,-0.01100738427
3.01,0.005945196724,-0.01328789633
3.02,0.001828900005,-0.01443489194
3.03,-0.002452055273,-0.01434472348
3.04,-0.006535125177,-0.01301475331
3.05,-0.01006779824,-0.01054668951
3.06,-0.01273747394,-0.007141581774
3.07,-0.01429967886,-0.003086114146
3.08,-0.01460195575,0.001269392694
3.09,-0.01360082605,0.005539969116
3.1,-0.01136961741,0.00933978481
3.11,-0.008095670502,0.01231778747
3.12,-0.004066441381,0.01419173968
3.13,0.0003548035106,0.01477706508
3.14,0.004761786947,0.01400720542
3.15,0.008743514236,0.01194291292
3.16,0.01192425722,0.008768995201
3.17,0.01400103837,0.00477837562
3.18,0.01477452804,0.0003447658443
3.19,0.01416987365,-0.004113414487
3.2,0.01224502805,-0.0081741715
3.21,0.00918551278,-0.01145378033
3.22,0.005286070546,-0.01364486028
3.23,0.0009211393123,-0.01454660435
3.24,-0.003492671043,-0.01408396957
3.25,-0.007538052903,-0.01231388926
3.26,-0.01083800009,-0.009418030953
3.27,-0.0130920487,-0.00568311078
3.28,-0.01410410705,-0.001471101938
3.29,-0.01379924647,0.002817311329
3.3,-0.01222810011,0.006782090313
3.31,-0.009558880038,0.01006194024
3.32,-0.006058306799,0.01236740998
3.33,-0.002063809294,0.01350596348
3.34,0.002049908337,0.01339697541
3.35,0.005906474664,0.01207572324
3.36,0.009162194706,0.009686568948
3.37,0.01153604714,0.006466527116
3.38,0.01283287085,0.002721210928
3.39,0.01295806185,-0.001204318729
3.4,0.01192295625,-0.00495701989
3.41,0.009840911644,-0.008206875843
3.42,0.006914849753,-0.01067489225
3.43,0.003417642039,-0.01215593344
3.44,-0.0003328157977,-0.01253475991
3.45,-0.004001691253,-0.01179421083
3.46,-0.007266167592,-0.01001508528
3.47,-0.009842963753,-0.007367884581
3.48,-0.01151226032,-0.004097162112
3.49,-0.01213613764,-0.0004997635156
3.5,-0.01167002433,0.003101292623
3.51,-0.01016616274,0.006385176372
3.52,-0.007768704619,0.009061497643
3.53,-0.004700727061,0.01089602524
3.54,-0.001244158685,0.01173157768
3.55,0.002285727832,0.01150212538
3.56,0.005569039205,0.01023868446
3.57,0.008310594791,0.008066297624
3.58,0.01026710918,0.005192229659
3.59,0.01126958325,0.001886374137
3.6,0.01123866618,-0.001544321909
3.61,0.01019141285,-0.004784954585
3.62,0.008238719681,-0.007542409557
3.63,0.005573686144,-0.009572780444
3.64,0.002452107348,-0.01070370479
3.65,-0.0008328605126,-0.01084939973
3.66,-0.003979209643,-0.01001697052
3.67,-0.00670480546,-0.008303516812
3.68,-0.008773400935,-0.005884557968
3.69,-0.01001538278,-0.002995216351
3.7,-0.01034134297,9.36747078E-05
3.71,-0.009747414987,0.003101918718
3.72,-0.008312243505,0.005766007858
3.73,-0.006186348638,0.007862316711
3.74,-0.003575394397,0.009225345075
3.75,-0.0007193908833,0.009759588439
3.76,0.00212989427,0.009444388244
3.77,0.004731073338,0.008331883699
3.78,0.006872861978,0.006538856621
3.79,0.008389885378,0.004233758577
3.8,0.009173620525,0.001620496316
3.81,0.009178095782,-0.001079376061
3.82,0.0084204724,-0.003644522286
3.83,0.006977019022,-0.005870454879
3.84,0.004975235516,-0.007583951813
3.85,0.002582992209,-0.008654594581
3.86,-4.445756973E-06,-0.0090030342
3.87,-0.002578696983,-0.008605790282
3.88,-0.004933105159,-0.007496512529
3.89,-0.006877450014,-0.005763704227
3.9,-0.008251835821,-0.0035449594
3.91,-0.008939022533,-0.001017840008
3.92,-0.008874401744,0.001612349104
3.93,-0.008052777571,0.004127424709
3.94,-0.006531138831,0.006313093714
3.95,-0.004426746039,0.007976581444
3.96,-0.001910130732,0.008963782583
3.97,0.0008069844747,0.009174385031
3.98,0.003488318508,0.00857334815
3.99,0.005893123429,0.007197241673
4,0.00779810438,0.005154293615
4.01,0.009019119002,0.00261754415
4.02,0.009430389786,-0.0001887895039
4.03,0.008979006975,-0.003008844782
4.04,0.007692832329,-0.005578885398
4.05,0.005680520791,-0.007653025312
4.06,0.003123200102,-0.009028220548
4.07,0.0002582929819,-0.009565755709
4.08,-0.0026430869,-0.009206706415
4.09,-0.005302912758,-0.007979443429
4.1,-0.007464364698,-0.005998098444
4.11,-0.0089182105,-0.003451933849
4.12,-0.009524490192,-0.000586620327
4.13,-0.009227039982,0.002320610988
4.14,-0.008059194894,0.004989238528
4.15,-0.006140024083,0.00716402704
4.16,-0.003661548487,0.008640762722
4.17,-0.000868426528,0.009286348087
4.18,0.001967561849,0.009051142085
4.19,0.0045753535,0.007972357336
4.2,0.006711692788,0.006168372125
4.21,0.008184585515,0.003824844833
4.22,0.008870742915,0.00117440428
4.23,0.008725414555,-0.001527672928
4.24,0.007783928216,-0.004029063976
4.25,0.006155199074,-0.006104559106
4.26,0.004008322407,-0.0075763821
4.27,0.001554026511,-0.008328849249
4.28,-0.0009768288069,-0.008316276527
4.29,-0.003355393777,-0.007563833057
4.3,-0.005375433218,-0.006161783522
4.31,-0.006870574745,-0.004254179628
4.32,-0.007726890073,-0.002023494631
4.33,-0.007890079336,0.0003270800853
4.34,-0.007367103627,0.002591935735
4.35,-0.006222617187,0.004580354046
4.36,-0.004570945002,0.006131507153
4.37,-0.002564614308,0.007126178993
4.38,-0.0003805821655,0.007494601109
4.39,0.001794674848,0.00722013754
4.4,0.003780099871,0.00633884859
4.41,0.005414022828,0.004935202775
4.42,0.0065662878,0.003134394088
4.43,0.007147817267,0.001091869895
4.44,0.007117040152,-0.001019203429
4.45,0.006482772288,-0.00302170553
4.46,0.005303320681,-0.004748638338
4.47,0.003681795878,-0.006056532008
4.48,0.001757862537,-0.006837179527
4.49,-0.0003035709081,-0.007026742983
4.5,-0.002325946321,-0.006611400425
4.51,-0.004135905196,-0.005628920362
4.52,-0.005578174559,-0.004165858016
4.53,-0.006529177778,-0.002350444305
4.54,-0.006908091254,-0.0003416504536
4.55,-0.006684240256,0.001684688335
4.56,-0.005880034334,0.003551469164
4.57,-0.004569059499,0.005096190908
4.58,-0.002869427067,0.006185573304
4.59,-0.0009329712318,0.006727493437
4.6,0.001068672183,0.006679063297
4.61,0.002959741697,0.006050065909
4.62,0.004576237073,0.004901452648
4.63,0.005780468958,0.003339120889
4.64,0.006472892939,0.001503674727
4.65,0.006600169214,-0.0004427369126
4.66,0.006158813711,-0.002331155774
4.67,0.005194279229,-0.004000681346
4.68,0.003795765379,-0.005312097178
4.69,0.002087449074,-0.006159095668
4.7,0.0002171120173,-0.00647625515
4.71,-0.001656703864,-0.006243291842
4.72,-0.003377859126,-0.005485481315
4.73,-0.004805034806,-0.004270475505
4.74,-0.005822517078,-0.002702000836
4.75,-0.006348679791,-0.0009110962441
4.76,-0.006341725734,0.0009543611169
4.77,-0.005802458616,0.002741074488
4.78,-0.004774034752,0.004301947785
4.79,-0.003338784263,0.005507211793
4.8,-0.001612305532,0.006254410458
4.81,0.000264859755,0.006476646271
4.82,0.002137553676,0.006148527171
4.83,0.003847786454,0.005289314127
4.84,0.005247288424,0.003962859258
4.85,0.006209990854,0.002274069696
4.86,0.006643469658,0.0003618457331
4.87,0.00649831474,-0.001611277061
4.88,0.005774407599,-0.0034722203
4.89,0.004523229074,-0.005052280617
4.9,0.002845590808,-0.006202648167
4.91,0.0008845800469,-0.00680907253
4.92,-0.001186003819,-0.006804132688
4.93,-0.003176914289,-0.006175654591
4.94,-0.004901118716,-0.004970099343
4.95,-0.006192154034,-0.003290205196
4.96,-0.006921252024,-0.00128676537
4.97,-0.007011305807,0.0008549064811
4.98,-0.006445988551,0.002932615941
4.99,-0.005272804391,0.004747275033
5,-0.003599502949,0.006123116306
5.01,-0.001584045599,0.006925897822
5.02,0.0005809226435,0.00707702359
5.03,0.002687469375,0.006561930243
5.04,0.004533526603,0.005431734538
5.05,0.005943454318,0.003797917034
5.06,0.006785730658,0.001820633846
5.07,0.00698582604,-0.0003080070197
5.08,0.006532900056,-0.002383793458
5.09,0.005479701446,-0.004211138962
5.1,0.003935853572,-0.005622404026
5.11,0.002055464086,-0.006493753285
5.12,2.061099251E-05,-0.006755968974
5.13,-0.001977345655,-0.006399288125
5.14,-0.003756537377,-0.005472055685
5.15,-0.005161477278,-0.004073690004
5.16,-0.006076444416,-0.002343051424
5.17,-0.006434251538,-0.000443720874
5.18,-0.006219880094,0.001452104216
5.19,-0.005469060098,0.003179408998
5.2,-0.0042623887,0.004594379953
5.21,-0.002715963385,0.005585521414
5.22,-0.0009697233379,0.006081176996
5.23,0.0008252566106,0.006053200143
5.24,0.002519367683,0.005516904777
5.25,0.003976007853,0.004527722759
5.26,0.005081352871,0.003175180946
5.27,0.005751901726,0.001574890732
5.28,0.005939560662,-0.0001407614372
5.29,0.005634195569,-0.001832590392
5.3,0.004863690649,-0.003364696946
5.31,0.003691614336,-0.004614165091
5.32,0.002212634912,-0.005479911057
5.33,0.0005458746393,-0.00589023077
5.34,-0.001173535389,-0.005808585023
5.35,-0.002804326102,-0.005237164349
5.36,-0.004209868,-0.004217816056
5.37,-0.00526917588,-0.002830018286
5.38,-0.005887316776,-0.001185763175
5.39,-0.006004305512,0.0005785395551
5.4,-0.005601568191,0.002312726672
5.41,-0.004705162024,0.00386538544
5.42,-0.003385168143,0.005097185239
5.43,-0.001751010243,0.005893819871
5.44,5.713637585E-05,0.006177261319
5.45,0.001880242234,0.005914093215
5.46,0.003554617197,0.00511991649
5.47,0.004927072005,0.003859184058
5.48,0.005869540748,0.00224028739
5.49,0.006291648655,0.00040623
5.5,0.006149880149,-0.001478283356
5.51,0.005452335778,-0.003242101351
5.52,0.004258524495,-0.004723708493
5.53,0.002674163945,-0.005786514773
5.54,0.0008414910676,-0.006331811707
5.55,-0.001073945599,-0.006308105454
5.56,-0.002898686611,-0.005715927415
5.57,-0.004467428923,-0.00460770023
5.58,-0.005638201668,-0.003082743898
5.59,-0.006305224564,-0.001277983991
5.6,-0.006408294429,0.0006446788866
5.61,-0.005937916581,0.002513098989
5.62,-0.004935822172,0.004160331384
5.63,-0.003490942494,0.005439404967
5.64,-0.0017313051,0.006236152665
5.65,0.0001873576603,0.006479048326
5.66,0.002095259266,0.006145289198
5.67,0.003823298699,0.005262690962
5.68,0.005217672104,0.003907301064
5.69,0.006153179284,0.002196962578
5.7,0.006544163619,0.0002813582598
5.71,0.006352204218,-0.001670679532
5.72,0.005589913119,-0.003485602044
5.73,0.004320468373,-0.005000183468
5.74,0.002652825664,-0.006075951929
5.75,0.0007328836871,-0.006611798663
5.76,-0.001268785481,-0.006553640832
5.77,-0.003171713331,-0.005900196404
5.78,-0.004801622786,-0.004704206435
5.79,-0.006006440503,-0.003068800939
5.8,-0.006670765729,-0.001139127737
5.81,-0.006727378825,0.0009101845544
5.82,-0.006164568489,0.002890721724
5.83,-0.005028394071,0.004617758037
5.84,-0.0034194566,0.005927872046
5.85,-0.001484289229,0.006694964364
5.86,0.0005979600302,0.006843016412
5.87,0.002632357156,0.006354195264
5.88,0.004426906856,0.00527134538
5.89,0.005811298274,0.003694472221
5.9,0.006653737749,0.001771455071
5.91,0.006874092445,-0.0003161458643
5.92,0.006451932459,-0.00237077558
5.93,0.00542859141,-0.004198252268
5.94,0.003903006224,-0.005626807044
5.95,0.002021770554,-0.006523813447
5.96,-3.553780111E-05,-0.006808478219
5.97,-0.002074191746,-0.006459213501
5.98,-0.003903427018,-0.005514999312
5.99,-0.00535484292,-0.004070702078
6,-0.006298224711,-0.002266960668
