"Freq [GHz]","re(S(Antenna1_1_1,Antenna1_1_1)) []","im(S(Antenna1_1_1,Antenna1_1_1)) []"
3,-0.194845009133393,-0.170997912720326
3.0175,-0.207351498895113,-0.153959417853694
3.035,-0.213889688090577,-0.135042093383135
3.0525,-0.218188866913528,-0.119297115690154
3.07,-0.223588765925973,-0.103571634249774
3.0875,-0.227764027561116,-0.0843346635833111
3.105,-0.225149862901493,-0.0659461725592729
3.1225,-0.222838307409642,-0.0524748949409398
3.14,-0.221048456973517,-0.0401563912228418
3.1575,-0.222935049489542,-0.02731702217333
3.175,-0.221031941262847,-0.0102487914543757
3.1925,-0.218935991875567,0.003093115393697
3.21,-0.216665399693643,0.0218257517438935
3.2275,-0.208030831454898,0.039262994448907
3.245,-0.197035522497488,0.0537251306085647
3.2625,-0.187691942529122,0.0642914394434737
3.28,-0.177294203214695,0.0794597271524707
3.2975,-0.159670704314446,0.0875897223160073
3.315,-0.150366338274238,0.0896456028997836
3.3325,-0.145466262153174,0.0989178987543471
3.35,-0.13153768190653,0.113824310329148
3.3675,-0.111967075709088,0.116256618415012
3.385,-0.104118245755526,0.118343108426613
3.4025,-0.0913402449106052,0.128194486408757
3.42,-0.0711898319621445,0.134304765529361
3.4375,-0.0504759432590872,0.129834899468451
3.455,-0.0400454839630284,0.125158370337213
3.4725,-0.025779493672579,0.124757380320226
3.49,-0.0133260442647215,0.120227116653546
3.5075,0.000560295520548705,0.118854114199848
3.525,0.0164290994250739,0.111632660522772
3.5425,0.0275746649511429,0.102905952987134
3.56,0.0379850965292276,0.0966371237216442
3.5775,0.0525882588279105,0.0891087899022556
3.595,0.0644839428635724,0.0738281509695434
3.6125,0.068709086955613,0.0612913233665833
3.63,0.0762191718662797,0.053261968350455
3.6475,0.0866986523364567,0.0393445268421825
3.665,0.0889242385113196,0.0225733339692499
3.6825,0.0913239257505762,0.0132915293202759
3.7,0.0988097069669312,-0.000519108025045723
3.7175,0.100871484265053,-0.0179858416123002
3.735,0.100086594631726,-0.0337746096851986
3.7525,0.0984760524679017,-0.0481513180334919
3.77,0.09691916738263,-0.0648099374449587
3.7875,0.0884702502751248,-0.0811340104555199
3.805,0.0806421321980687,-0.0903724260552459
3.8225,0.0769739722210634,-0.101215001782711
3.84,0.0712188588903762,-0.115681880624784
3.8575,0.0592943643181956,-0.128526328075182
3.875,0.0495531493413063,-0.13385482698563
3.8925,0.0461396645070333,-0.1440795533003
3.91,0.0350975653362703,-0.162020398977277
3.9275,0.0142810331297426,-0.170977729757269
3.945,0.0020771704183108,-0.172480433550373
3.9625,-0.00880089831004431,-0.182080863801447
3.98,-0.028141762281502,-0.19016989673805
3.9975,-0.0490805288765682,-0.189391737752147
4.015,-0.0618562271508807,-0.184430484209408
4.0325,-0.073353314051359,-0.184808102253456
4.05,-0.0856002092035466,-0.183112420140086
4.0675,-0.0972166792831226,-0.184067920206049
4.085,-0.111482997523618,-0.183530139480608
4.1025,-0.125976361112241,-0.182133404175202
4.12,-0.140180501426759,-0.179737089589821
4.1375,-0.158962488659726,-0.178398039430431
4.155,-0.178877221682065,-0.166833070315412
4.1725,-0.192171764465562,-0.154180176670485
4.19,-0.202872859044005,-0.14003303660546
4.2075,-0.211578281803315,-0.128596447788789
4.225,-0.217878543063167,-0.113081152773547
4.2425,-0.21932036518038,-0.106713697472286
4.26,-0.23018830009687,-0.0983228822785502
4.2775,-0.234390098412481,-0.087891005543592
4.295,-0.243142446768024,-0.0825755875600934
4.3125,-0.257765041546881,-0.0736335593240176
4.33,-0.272339225508705,-0.0518166653623655
4.3475,-0.271403651545056,-0.028229393745722
4.365,-0.269598138643581,-0.0141446190420522
4.3825,-0.27142424189843,0.000266437066008193
4.4,-0.270907237500727,0.0209695773606782
4.4175,-0.258242463616944,0.0359726729676563
4.435,-0.253036540276116,0.0389269074073901
4.4525,-0.255649579565835,0.0464930586239779
4.47,-0.258355599732239,0.0608235443456535
4.4875,-0.252836703948216,0.0763137651388658
4.505,-0.250100340202207,0.0846487661941633
4.5225,-0.251457650831515,0.101235568193054
4.54,-0.242763632939458,0.121003488827831
4.5575,-0.229057793211841,0.134375477762871
4.575,-0.217172600697566,0.14190445196168
4.5925,-0.208434165240067,0.150875672166228
4.61,-0.195671948155411,0.158722127187137
4.6275,-0.186610368961317,0.162155625532902
4.645,-0.179212521169872,0.168889681659599
4.6625,-0.170606539205147,0.175773150910165
4.68,-0.160964288450064,0.182457978326152
4.6975,-0.152437550035744,0.189266920402509
4.715,-0.140178577651839,0.197905495583153
4.7325,-0.126663510246118,0.203021301632432
4.75,-0.111035943691468,0.206871670414609
4.7675,-0.0989654512764555,0.205558447729673
4.785,-0.088313224904277,0.207403387812492
4.8025,-0.0774396227611192,0.207939013523443
4.82,-0.0630608082322895,0.209909272129483
4.8375,-0.0508163902705009,0.20206579190525
4.855,-0.0477893344620797,0.201637916679508
4.8725,-0.0361337886871133,0.206033854673945
4.89,-0.0200145843291593,0.204334453089687
4.9075,-0.00844759395474051,0.19521493631014
4.925,-0.0041826453869066,0.191906600450167
4.9425,0.00702701068763012,0.192435204631452
4.96,0.0208302502232632,0.187080023213209
4.9775,0.0301113943640577,0.177784704142144
4.995,0.0367312785008626,0.172706505563487
5.0125,0.0468459873650308,0.166532959312735
5.03,0.0552986756387055,0.158479502766859
5.0475,0.0627108387733528,0.149069825102657
5.065,0.0678813882825996,0.141208100153011
5.0825,0.0747835103787459,0.132688109447224
5.1,0.0794182682916856,0.123574755623745
5.1175,0.0842845211401929,0.114730156922713
5.135,0.0883025490021779,0.106242034554038
5.1525,0.0929918918813382,0.0968011867448158
5.17,0.0963691445913881,0.0875978998679518
5.1875,0.100754189649443,0.0771667770864456
5.205,0.103277429467554,0.065581339291202
5.2225,0.103997661758425,0.0527068166665642
5.24,0.101637030697479,0.0428882246850276
5.2575,0.102540886895232,0.033227963002098
5.275,0.100643638117563,0.0216839470332234
5.2925,0.0976601312145072,0.0113020501482887
5.31,0.0930224231068538,0.00319393973086511
5.3275,0.0919428426725827,-0.00402151716237303
5.345,0.0895280104874455,-0.0140355970824889
5.3625,0.0866509529664344,-0.0232769334040674
5.38,0.0823940267150566,-0.0337405607773153
5.3975,0.077418629072397,-0.04303647830198
5.415,0.0718265847717697,-0.0536078590267799
5.4325,0.0633975959173566,-0.0643753689831256
5.45,0.0514242659119112,-0.0724661263744465
5.4675,0.0407633339138184,-0.0750532067321214
5.485,0.0347932736109024,-0.0784559612026569
5.5025,0.0269297358894373,-0.0849809137350727
5.52,0.0164821013113837,-0.0886885545442703
5.5375,0.0089083016146005,-0.0892527851433017
5.555,0.00555548973045612,-0.0931350215618556
5.5725,-0.00148599107049108,-0.102006733252936
5.59,-0.0124830707153677,-0.109820191490778
5.6075,-0.0281276596726019,-0.116686511743661
5.625,-0.045469103245742,-0.116006544820896
5.6425,-0.0593086202146086,-0.112570463519851
5.66,-0.0696597138158226,-0.108016342583048
5.6775,-0.0804487336847964,-0.106951198194808
5.695,-0.0929354512576867,-0.100105275380483
5.7125,-0.0979226158758132,-0.0931778174877818
5.73,-0.101030766998,-0.0917262564300912
5.7475,-0.108828260851565,-0.0964027229568344
5.765,-0.124262240284691,-0.0962870044452316
5.7825,-0.138126379742146,-0.0918300350473394
5.8,-0.151599335946322,-0.0847081091743716
5.8175,-0.163746361044006,-0.0773099252568683
5.835,-0.177297688449793,-0.0657312816856766
5.8525,-0.185367978811472,-0.0512059411292676
5.87,-0.189463146596807,-0.0373623480759935
5.8875,-0.190448964368814,-0.0281590059718878
5.905,-0.195112542993953,-0.0209180079067854
5.9225,-0.199998921801443,-0.0126929160813432
5.94,-0.205543907163436,-0.00362688937512643
5.9575,-0.21045707637502,0.00484393705532704
5.975,-0.218120619308946,0.0146135558054481
5.9925,-0.225520979928806,0.0274871055079522
6.01,-0.231084283485265,0.04496231653953
6.0275,-0.230035828797147,0.0618123713567622
6.045,-0.228861400725859,0.0763348684250283
6.0625,-0.225653732565567,0.0902624638171774
6.08,-0.222425449578794,0.103526303455796
6.0975,-0.217292412365116,0.115262123838055
6.115,-0.214488908599495,0.126367375328457
6.1325,-0.209476999187825,0.138754675749443
6.15,-0.204637015703508,0.149242656251846
6.1675,-0.20024384471248,0.160083536413836
6.185,-0.196281125232381,0.172762012924477
6.2025,-0.188620720802651,0.186284977556513
6.22,-0.1807477847834,0.198215259626235
6.2375,-0.170537290990203,0.211317157787541
6.255,-0.157988690696575,0.221799201192906
6.2725,-0.145285486030957,0.229859083636342
6.29,-0.134317514114736,0.237337685937913
6.3075,-0.121254107654128,0.246432200185655
6.325,-0.105574195694799,0.252291166113327
6.3425,-0.0910736541388673,0.254651244281787
6.36,-0.0797886723113586,0.256259821510556
6.3775,-0.0692368160272109,0.260597402753889
6.395,-0.0557663104123478,0.265592883613489
6.4125,-0.0408709283579966,0.267982158282555
6.43,-0.0271919552808665,0.269090185243866
6.4475,-0.0135438115747178,0.271032712502856
6.465,0.00276961340735817,0.273354902985836
6.4825,0.0221507727686387,0.271798217380461
6.5,0.0400116257967054,0.265363622175988
6.5175,0.0540727654150139,0.256377934050494
6.535,0.0658904089531921,0.248766937975715
6.5525,0.0778843108978551,0.240920567287096
6.57,0.0887578801285904,0.232399029005472
6.5875,0.0979566578766483,0.223858784036847
6.605,0.107146903272225,0.217840619393186
6.6225,0.119244293144068,0.21097388602792
6.64,0.132285055860412,0.20208271511265
6.6575,0.145465771792874,0.188687213120874
6.675,0.154135880453175,0.173245473736189
6.6925,0.160355407076379,0.158302180123162
6.71,0.165197133543827,0.145171050319003
6.7275,0.171444831776092,0.130505874252239
6.745,0.173426114059845,0.1139994384877
6.7625,0.172594370385058,0.100693656877197
6.78,0.173532448420852,0.0912870541803089
6.7975,0.179207285031342,0.0786324327355611
6.815,0.180483767058619,0.0611679015898632
6.8325,0.177614288543557,0.0455945390295727
6.85,0.174015619843892,0.0335297610609874
6.8675,0.173780335759962,0.0207625640092466
6.885,0.170399679964863,0.00469138037576952
6.9025,0.164512315373284,-0.00963453355136018
6.92,0.157024070561551,-0.0230551774358151
6.9375,0.149274127050896,-0.0346706500518646
6.955,0.141073374000566,-0.0456541927474855
6.9725,0.1320864606814,-0.0560561164465988
6.99,0.121377519988978,-0.065870925076422
7.0075,0.109668387342724,-0.0726713254582591
7.025,0.10038311934086,-0.0774072281424676
7.0425,0.0923102531852222,-0.083880118352099
7.06,0.0832716518800219,-0.0904506823821834
7.0775,0.0740327983752321,-0.0977239717262555
7.095,0.0633212230160477,-0.105282395035119
7.1125,0.0497417201861339,-0.113628737300934
7.13,0.0322071432862505,-0.117301966786607
7.1475,0.0168191506871374,-0.116881321003721
7.165,0.0030520659858928,-0.113964882306977
7.1825,-0.00707780640307885,-0.111087892300091
7.2,-0.0172705622023512,-0.109022444288834
7.2175,-0.0264051872243441,-0.106960569381105
7.235,-0.0354712807924095,-0.104690722847165
7.2525,-0.0425534346278132,-0.10404683498959
7.27,-0.0526775908458158,-0.10615809570051
7.2875,-0.066771388790152,-0.107247066185479
7.305,-0.0845028652831235,-0.103170821982451
7.3225,-0.0991398231132059,-0.0930257539466166
7.34,-0.109776817131785,-0.080938399512509
7.3575,-0.115899982659224,-0.0690775806482372
7.375,-0.120097339820135,-0.0591503050841326
7.3925,-0.122677957523409,-0.0518573950896223
7.41,-0.12577983435089,-0.0472027518777168
7.4275,-0.131181420221028,-0.0440010505078337
7.445,-0.139118166268904,-0.0393055950943081
7.4625,-0.147716258747268,-0.0328146455837478
7.48,-0.156141242661991,-0.023394974004114
7.4975,-0.162864001714468,-0.0133066422268065
7.515,-0.169381860408697,-0.00087999038938121
7.5325,-0.172521769466218,0.0128135339468245
7.55,-0.17234852925684,0.0270873153826137
7.5675,-0.167950089926679,0.0367280604266073
7.585,-0.167246426706726,0.0427853765644763
7.6025,-0.168216047689736,0.0500021497873789
7.62,-0.169409802230827,0.059192526949796
7.6375,-0.168156468385596,0.0675796495459338
7.655,-0.169165756092672,0.0752925561866468
7.6725,-0.169452268305761,0.0851521468198262
7.69,-0.168466745696832,0.0956216954201602
7.7075,-0.166024567921688,0.104999474438582
7.725,-0.164867706929449,0.115381938383303
7.7425,-0.160516066914015,0.12705818952744
7.76,-0.154493890018011,0.137780855293573
7.7775,-0.145497496688475,0.146056162634005
7.795,-0.138654797540067,0.151041375424515
7.8125,-0.132663040577972,0.156318448328179
7.83,-0.127544867317023,0.162309778820131
7.8475,-0.120552884267767,0.167621737812705
7.865,-0.116259992331722,0.171030302428318
7.8825,-0.113166826588619,0.177114650670682
7.9,-0.109325043090017,0.185637939709729
7.9175,-0.101551302621516,0.195543971839263
7.935,-0.0910233678597891,0.20345189120596
7.9525,-0.0785193020754035,0.208579111532395
7.97,-0.0669753525966506,0.210667009391411
7.9875,-0.0559606496886356,0.211129477683742
8.005,-0.0474056452780984,0.210253836136593
8.0225,-0.0393823226109963,0.210052046245101
8.04,-0.0329389657238569,0.209182993391456
8.0575,-0.027461238024325,0.210743787244127
8.075,-0.0202661251530794,0.214464202846981
8.0925,-0.00881408212813494,0.217627406060187
8.11,0.00347525111961111,0.215978357032258
8.1275,0.0123873374374547,0.212643945692494
8.145,0.0207374705119109,0.212099102495409
8.1625,0.0332954552608925,0.209741438238173
8.18,0.043332307180997,0.202038041801539
8.1975,0.0486390308651831,0.195269771392219
8.215,0.0537467020957723,0.192206661699569
8.2325,0.0622310369655329,0.188767576596672
8.25,0.0700621839755975,0.182494741350957
8.2675,0.076661047690122,0.175757849125193
8.285,0.082933382282197,0.168630870366677
8.3025,0.0881284523374252,0.16048352334133
8.32,0.0919081573383101,0.1533346628427
8.3375,0.0964687091639186,0.146039262063882
8.355,0.100152739756335,0.138526128346257
8.3725,0.10435118221992,0.130198529952812
8.39,0.106585455618987,0.121654016580229
8.4075,0.110303678817831,0.113412247092694
8.425,0.11271073265563,0.10199377550956
8.4425,0.111769179887399,0.0903906642007089
8.46,0.10810042406531,0.080938758305438
8.4775,0.105476070538534,0.0744104273332222
8.495,0.104465560760076,0.0667320708820666
8.5125,0.101175063851389,0.0578101037140646
8.53,0.0968592601189218,0.0520830375007402
8.5475,0.095467884377163,0.0459839098012136
8.565,0.0932499881403961,0.0378519952870779
8.5825,0.0894428594984908,0.0284082155851863
8.6,0.0827531761791182,0.0202394195600525
8.6175,0.0764714794568371,0.0126991060750484
8.635,0.0673312893032602,0.00509610850394631
8.6525,0.0564440987198316,0.000486239015427711
8.67,0.0460236779054071,0.00017876372630303
8.6875,0.0404850080876478,0.000725057893675851
8.705,0.0354679757160111,-0.00193439680077421
8.7225,0.0277941827769694,-0.00577816841860672
8.74,0.0188144168809035,-0.00628767079646444
8.7575,0.0130833366696533,-0.00811010180528701
8.775,0.00270629269745882,-0.0119808762252467
8.7925,-0.00967659406367011,-0.0115928404812832
8.81,-0.021490583350514,-0.00767281820359727
8.8275,-0.0295958584437873,-0.00271744891456142
8.845,-0.0391766401804032,0.00114546411683449
8.8625,-0.0473427892881449,0.00912279916519053
8.88,-0.0517014748179567,0.0158412968291194
8.8975,-0.056014667947229,0.020326140638442
8.915,-0.0618441881891093,0.024303583932068
8.9325,-0.0683948664476565,0.0291002750352138
8.95,-0.0757381281022445,0.0350345948566354
8.9675,-0.0828825125712438,0.0425134764518563
8.985,-0.0900926991109091,0.0523112810564962
9.0025,-0.0939127875640628,0.0642223356621538
9.02,-0.0955685870955603,0.0747687713936579
9.0375,-0.09662973340613,0.0842357119286258
9.055,-0.0989003769708753,0.0944088429316286
9.0725,-0.0977163502384466,0.107089522432882
9.09,-0.0935278250921052,0.115618167511121
9.1075,-0.0923964167962837,0.121836079966692
9.125,-0.0931314343484824,0.130650330993632
9.1425,-0.0910101874273455,0.141177748686345
9.16,-0.0877105660108088,0.150009107544844
9.1775,-0.0850937533309476,0.159200924158752
9.195,-0.0813418329556929,0.169852827627963
9.2125,-0.074834784316597,0.180242118255453
9.23,-0.0678154603544098,0.188705059851595
9.2475,-0.0603636774271708,0.197759516074431
9.265,-0.0506787760679223,0.205656872751119
9.2825,-0.0404186087127482,0.211741108743372
9.3,-0.0298102612046911,0.215405713841817
9.3175,-0.0219646073326704,0.217774288860499
9.335,-0.014077311142404,0.222180959590522
9.3525,-0.00555996824059628,0.225285174842461
9.37,0.00206986826290107,0.229524630510573
9.3875,0.0113460155335427,0.234537279315342
9.405,0.0232806030377782,0.239706011111011
9.4225,0.0374674785067726,0.240609534552597
9.44,0.0487203220945613,0.239700255803697
9.4575,0.060508853174874,0.239389801559729
9.475,0.0733236390701599,0.237252171703014
9.4925,0.0847342589454206,0.231687072873171
9.51,0.0924151292475132,0.227057375811766
9.5275,0.100840859736099,0.223991002254259
9.545,0.109762348303481,0.221146863581008
9.5625,0.119830097765016,0.216807910877611
9.58,0.128150495111188,0.212836784324994
9.5975,0.139895680145003,0.20826326217914
9.615,0.150361079934562,0.199167447099498
9.6325,0.158013891327873,0.188807201504844
9.65,0.162133141411937,0.179885672276966
9.6675,0.168539961053214,0.173466016091389
9.685,0.175318986848082,0.163681044623686
9.7025,0.179384536181611,0.153865124734316
9.72,0.18315860962027,0.145682514211475
9.7375,0.189039801539101,0.136879553603267
9.755,0.193873710113908,0.124742572281863
9.7725,0.195485012707076,0.11194659681135
9.79,0.195056049704484,0.101150409800201
9.8075,0.196170400366181,0.0904615984711244
9.825,0.194007491728853,0.0778521167019727
9.8425,0.190173868751953,0.0693222321822821
9.86,0.188760630612278,0.0618095594109164
9.8775,0.189061263167753,0.0527898931820625
9.895,0.187509314994397,0.0402926578350346
9.9125,0.182478362877748,0.0292452293136217
9.93,0.178077256015159,0.0189103494332966
9.9475,0.171998426297583,0.00683111951831163
9.965,0.161759341057842,-0.00463429049870458
9.9825,0.149214216738553,-0.0116492030382786
10,0.138758106490836,-0.0155213162228527
