"Freq [GHz]","re(S(Antenna1_1_1,Antenna1_1_1)) []","im(S(Antenna1_1_1,Antenna1_1_1)) []"
3,-0.198234816388393,-0.163518065765326
3.0175,-0.202577819869113,-0.148092346890694
3.035,-0.208930523068577,-0.136431604268135
3.0525,-0.218327254522528,-0.120487039843154
3.07,-0.220821509249973,-0.101306853946774
3.0875,-0.221625177202216,-0.0888550365853111
3.105,-0.228229169208493,-0.0739856210016729
3.1225,-0.228875848251742,-0.0531132222579398
3.14,-0.224295080862517,-0.0384739646448418
3.1575,-0.225242760015792,-0.02580587770833
3.175,-0.224974461167947,-0.0061144467113757
3.1925,-0.215630254796567,0.011876282593697
3.21,-0.207483215914643,0.0214590750108935
3.2275,-0.205254639204898,0.033650566299907
3.245,-0.198672138357488,0.0504864075915647
3.2625,-0.187665212560122,0.0637721254374738
3.28,-0.178221891903695,0.0750256403774707
3.2975,-0.166033079597446,0.0877598352900073
3.315,-0.151453293705238,0.0948727833277836
3.3325,-0.141808922811174,0.100111741899347
3.35,-0.13304200218653,0.110091019153248
3.3675,-0.116825293439088,0.122052819794012
3.385,-0.0963070420705257,0.124308968071613
3.4025,-0.0840839692016052,0.122456133114757
3.42,-0.0733594029571445,0.126019593900361
3.4375,-0.0576545485090872,0.130137398401451
3.455,-0.0399314064920284,0.128581763333013
3.4725,-0.026248629432579,0.125037100743226
3.49,-0.0118588930617215,0.122158278202546
3.5075,0.0019086649655487,0.116380639551848
3.525,0.0134554067740739,0.110637888352772
3.5425,0.0258625776501429,0.106465641526134
3.56,0.0423305153632276,0.0991929102696442
3.5775,0.0553106614109105,0.0843039740082556
3.595,0.0598700568669724,0.0713270480995434
3.6125,0.066382756595613,0.0653422401805833
3.63,0.0794580611014197,0.055055899910455
3.6475,0.0870482671774567,0.0374845748581825
3.665,0.0888721328303196,0.0244320035462499
3.6825,0.0952678348338762,0.0120741165202759
3.7,0.0978108215429312,-0.00535331959504572
3.7175,0.0968582196180535,-0.0186638758653002
3.735,0.0979108315657256,-0.0318186646391986
3.7525,0.0981534553439017,-0.0468138756314919
3.77,0.0948426545686299,-0.0630004146839587
3.7875,0.0900952655141248,-0.0755236802215199
3.805,0.0871910228560687,-0.0900317760722459
3.8225,0.0795056720110634,-0.105908558510711
3.84,0.0689462032723762,-0.118156191902784
3.8575,0.0598035108321956,-0.127120238417082
3.875,0.0521509654653063,-0.13762393781063
3.8925,0.0420351672570333,-0.1487269181173
3.91,0.0298101689062703,-0.160144129544277
3.9275,0.0140205119007426,-0.168374635687269
3.945,-0.0004182275706892,-0.172244731111373
3.9625,-0.0107753920000443,-0.175743819328447
3.98,-0.022295723356502,-0.18536827666605
3.9975,-0.0431418552435682,-0.191404288672147
4.015,-0.0606713648719807,-0.187930721461408
4.0325,-0.071856337200359,-0.185846366429456
4.05,-0.0836944368635466,-0.187724637761086
4.0675,-0.0993871075811226,-0.189029932367049
4.085,-0.116435542310118,-0.187713630810608
4.1025,-0.134712326719241,-0.182170527865202
4.12,-0.148369606083759,-0.172276011679821
4.1375,-0.157706704685726,-0.164748865595431
4.155,-0.167388697023065,-0.160968636642412
4.1725,-0.182674352821562,-0.157755696080485
4.19,-0.199948724434005,-0.14673039680446
4.2075,-0.210405395503315,-0.131667073455789
4.225,-0.216028668159167,-0.120630031971547
4.2425,-0.22527177451638,-0.113564916473886
4.26,-0.23766221986887,-0.10122396598755
4.2775,-0.245292757455481,-0.085888816876592
4.295,-0.250594152089024,-0.0718927114720934
4.3125,-0.255113731616881,-0.0588222504060176
4.33,-0.258782794658705,-0.0456197241813655
4.3475,-0.262168846155056,-0.033923527421722
4.365,-0.268501711353581,-0.0195231341280522
4.3825,-0.26977366032843,-0.000245119915991807
4.4,-0.264551098440727,0.0149176182806782
4.4175,-0.262232817023044,0.0231637211146563
4.435,-0.266460838571116,0.0360005897123901
4.4525,-0.263888518956435,0.0547693846299779
4.47,-0.256773637235239,0.0672903990336535
4.4875,-0.254299590851216,0.0781421363198658
4.505,-0.250282578595207,0.0939955441921633
4.5225,-0.240181749885515,0.106683990923054
4.54,-0.233487691423458,0.114613137357831
4.5575,-0.228225745373841,0.126466428212871
4.575,-0.218604161591566,0.13707865028168
4.5925,-0.211715699861067,0.144806385742228
4.61,-0.205478893440411,0.157150996847137
4.6275,-0.191844772493317,0.170167868744902
4.645,-0.175939248659872,0.173846614033599
4.6625,-0.169129613521147,0.175439051381165
4.68,-0.162422575106064,0.184752116500152
4.6975,-0.149065246862744,0.193658517648509
4.715,-0.134649064955839,0.197122110187153
4.7325,-0.123494931296118,0.199163749119432
4.75,-0.111910045021468,0.202172839277109
4.7675,-0.101572587706455,0.203807960281773
4.785,-0.091116229324277,0.207658808006492
4.8025,-0.0768496968711192,0.209789889417443
4.82,-0.0633487622522895,0.207234267745483
4.8375,-0.0545284909105009,0.20350005421125
4.855,-0.0471622650370797,0.204431434465508
4.8725,-0.0350840797721133,0.206345906297945
4.89,-0.0209175733671593,0.204658579865687
4.9075,-0.00757576250674051,0.19918584971114
4.925,0.0021478300100934,0.191569889750167
4.9425,0.00824221550263012,0.186011732927452
4.96,0.0156742035352632,0.184496957930209
4.9775,0.0276753085933577,0.181726642572144
4.995,0.0398714375968626,0.174081130745487
5.0125,0.0481026900611308,0.163824041839735
5.03,0.0526988061872055,0.156051276735859
5.0475,0.0594142247213529,0.151328914352656
5.065,0.0689759221845996,0.143860467281011
5.0825,0.0758937324957459,0.133010521197224
5.1,0.0799300571536856,0.123713449751745
5.1175,0.0850841501021929,0.115426210740713
5.135,0.0897673533841779,0.105479768212038
5.1525,0.0932310216453382,0.0963069736638158
5.17,0.0978135738113881,0.0862759053999518
5.1875,0.0999523463404432,0.0741804234978456
5.205,0.0996978352545545,0.064157046401402
5.2225,0.100827766375425,0.0558416635650642
5.24,0.103292544705479,0.0453629211661276
5.2575,0.102556586283232,0.033160800332398
5.275,0.100503871846563,0.0236535494579234
5.2925,0.0998826585355072,0.0135181499052887
5.31,0.0971064897028538,0.00217857450386511
5.3275,0.0926373165835827,-0.00740560396437303
5.345,0.0890531614904455,-0.0157252946384889
5.3625,0.0856672769414344,-0.0252491934160674
5.38,0.0805261662140566,-0.0348179360763153
5.3975,0.075023374606197,-0.04339533230898
5.415,0.0693006933447697,-0.0527374333047799
5.4325,0.0603702780315566,-0.0618500048111256
5.45,0.0512255052349112,-0.0662406213214465
5.4675,0.0464280979269184,-0.0711939011001214
5.485,0.0401653730179024,-0.0795755514026569
5.5025,0.0308887557171373,-0.0877685260850727
5.52,0.0193209479512837,-0.0937783969642703
5.5375,0.0079437663606005,-0.0967243948433017
5.555,-0.00135029392254388,-0.0981195598448556
5.5725,-0.00880756098349108,-0.101345311589936
5.59,-0.0191367948003677,-0.106276561401778
5.6075,-0.0317726636256019,-0.108188353359661
5.625,-0.042810373368742,-0.107147747833896
5.6425,-0.0517176628856086,-0.107299461624251
5.66,-0.0621818534528226,-0.108616921504048
5.6775,-0.0734037387447964,-0.109228403994608
5.695,-0.0871479245756867,-0.108956931253483
5.7125,-0.100725749839813,-0.104026997677582
5.73,-0.11100886526,-0.0976677666311912
5.7475,-0.118485916521565,-0.0921639840882344
5.765,-0.126376326284691,-0.0904715229652316
5.7825,-0.139029922342146,-0.0880173436903394
5.8,-0.152469344180322,-0.0805753519143716
5.8175,-0.162346044353006,-0.0700946264488683
5.835,-0.169094708394793,-0.0607688512596766
5.8525,-0.175348331212472,-0.0532099019162676
5.87,-0.183356834730807,-0.0468340036049935
5.8875,-0.193506036914814,-0.0377076925588878
5.905,-0.201704144879953,-0.0251480311457854
5.9225,-0.206122488056443,-0.0121440925683432
5.94,-0.209330781624436,-0.00216353125512643
5.9575,-0.21508863142932,0.00802621839532704
5.975,-0.220185283618146,0.0210323440754481
5.9925,-0.222577968541806,0.0351548826619522
6.01,-0.222587145621265,0.04727293953153
6.0275,-0.224811551548147,0.0580711751657622
6.045,-0.226995764419859,0.0725160452900283
6.0625,-0.224830856567567,0.0871410508951774
6.08,-0.222337464979794,0.0987737563457963
6.0975,-0.221699895163116,0.111770913172055
6.115,-0.218187828324495,0.126604841009457
6.1325,-0.212808890484825,0.139514232557443
6.15,-0.207530834013508,0.152002656590846
6.1675,-0.20087081990848,0.164659485642836
6.185,-0.193181556852381,0.175407305970477
6.2025,-0.187388435732651,0.186321708635513
6.22,-0.1791546826034,0.200149197120835
6.2375,-0.166663283160203,0.211481611632541
6.255,-0.154636468851575,0.218736921995906
6.2725,-0.145405050342957,0.225510309444342
6.29,-0.136115203825736,0.234518220284913
6.3075,-0.124595610052128,0.244316230938655
6.325,-0.109783852702799,0.253126641453327
6.3425,-0.0935177802718673,0.257888714171787
6.36,-0.0791238809843586,0.259637543050556
6.3775,-0.067951300853211,0.261310068208889
6.395,-0.0565815720123478,0.266858082701489
6.4125,-0.0397550210059966,0.272036293172555
6.43,-0.0215962233388665,0.271401696463866
6.4475,-0.00715315631371783,0.268000977102856
6.465,0.00515236606235817,0.265767417185836
6.4825,0.0175615122206387,0.265118905930461
6.5,0.0330812616987054,0.265093558745988
6.5175,0.0513795583530139,0.260039060060494
6.535,0.0663536384231922,0.249777351603715
6.5525,0.0752823261348551,0.240625537873096
6.57,0.0853457077495904,0.236921582079472
6.5875,0.100708723631648,0.230854781317847
6.605,0.114630794821225,0.219672813175186
6.6225,0.125560554473068,0.20718901999792
6.64,0.133996668190412,0.19446720159465
6.6575,0.140803517912874,0.183195800433874
6.675,0.148312771683175,0.172976121061489
6.6925,0.157151883136379,0.161705565471962
6.71,0.165592273943827,0.147399036310003
6.7275,0.170537282486092,0.131316606881239
6.745,0.172605076089845,0.1171209496847
6.7625,0.175659532469058,0.104549170806197
6.78,0.179032133812852,0.0896860266373089
6.7975,0.179011319645342,0.0741614079895611
6.815,0.178107408028619,0.0609050241198632
6.8325,0.178004588445557,0.0471946055895727
6.85,0.176465553242892,0.0321228778709874
6.8675,0.172344700464962,0.0174554222692466
6.885,0.167559078383863,0.00466923401576952
6.9025,0.162789503401084,-0.00839573379136018
6.92,0.156661305169651,-0.0211532361458151
6.9375,0.149767628066896,-0.0337708680218646
6.955,0.141105140436566,-0.0451513782674855
6.9725,0.1314358445394,-0.0549349220265988
6.99,0.121976812529978,-0.062474157696422
7.0075,0.115030283785724,-0.0701639441562591
7.025,0.10689974608386,-0.0816484522234676
7.0425,0.0923633162352222,-0.092170146370099
7.06,0.0773011943840219,-0.0951757969021834
7.0775,0.0678215237172321,-0.0970895290142555
7.095,0.0589594896760477,-0.101850920008119
7.1125,0.0486205576041339,-0.107846297074934
7.13,0.0351709995562505,-0.113654293950607
7.1475,0.0191700845571374,-0.115575191933721
7.165,0.0058149875658928,-0.112467466396977
7.1825,-0.00235890759307885,-0.110728816228091
7.2,-0.0118318482383512,-0.113178220662834
7.2175,-0.0255391706943441,-0.114783839085105
7.235,-0.0402789614244095,-0.111733382000165
7.2525,-0.0516688477588132,-0.10625701222959
7.27,-0.0612588844946158,-0.10150695258751
7.2875,-0.069924206870152,-0.0976944947314793
7.305,-0.0803992724691235,-0.095112444057451
7.3225,-0.0929008090682059,-0.0896665315586166
7.34,-0.103659172028785,-0.080223617422509
7.3575,-0.108666346817924,-0.0704198366782372
7.375,-0.113127310350135,-0.0669980712741326
7.3925,-0.124089566478409,-0.0631038282896223
7.41,-0.13393810249589,-0.0537677965177168
7.4275,-0.140776055872028,-0.0436964668678337
7.445,-0.145618374012904,-0.0336754690253081
7.4625,-0.149047844186268,-0.0252781190767478
7.48,-0.153545764794991,-0.018080909280114
7.4975,-0.159286481556468,-0.00970346641680649
7.515,-0.164066819725697,0.000968205684618789
7.5325,-0.166126438708218,0.0116285062518245
7.55,-0.16774780878984,0.0206654715466137
7.5675,-0.169951240246679,0.0298415311716073
7.585,-0.171708833106726,0.0400000779534763
7.6025,-0.171592482919736,0.0502571182895889
7.62,-0.171418188560827,0.058614722617796
7.6375,-0.172918712025596,0.0682978592989339
7.655,-0.171892254742672,0.0802275735356468
7.6725,-0.168179574965761,0.0900447565648262
7.69,-0.165325168183832,0.0981763396451602
7.7075,-0.162616023267688,0.106371200606582
7.725,-0.160492886844449,0.114349200103303
7.7425,-0.158275529233015,0.12408567523044
7.76,-0.153302771751011,0.134520490582573
7.7775,-0.146044728416475,0.142282826991005
7.795,-0.140836326578067,0.147222568544515
7.8125,-0.138057425252872,0.154002642778179
7.83,-0.133488836660024,0.164057948700131
7.8475,-0.124576227712767,0.173265534132705
7.865,-0.114871338014931,0.177768147988318
7.8825,-0.108881703490619,0.180604647500682
7.9,-0.104551427855017,0.186287303689729
7.9175,-0.0980762055015164,0.194098273675263
7.935,-0.0881188825907891,0.20176680866996
7.9525,-0.0751867694274035,0.205030899570395
7.97,-0.0663986121186506,0.203227733331411
7.9875,-0.0628591299196356,0.205111083605742
8.005,-0.0557901792430984,0.211813410878593
8.0225,-0.0441148738819963,0.216049935164101
8.04,-0.0323717072538569,0.216596369221056
8.0575,-0.022166568554325,0.215082642130127
8.075,-0.0143276403530794,0.213215828536281
8.0925,-0.00771889124813494,0.213538823191987
8.11,0.00212300233961111,0.215702754407258
8.1275,0.0148624196914547,0.213288385583494
8.145,0.0232496108989109,0.207577154000409
8.1625,0.0293489258038925,0.204717946498173
8.18,0.037348871873997,0.203280907697539
8.1975,0.0474419749761831,0.200055356132219
8.215,0.0562102785657723,0.193894515954569
8.2325,0.0631231258515329,0.188216473686672
8.25,0.0703239241355975,0.182015317080957
8.2675,0.075756033873122,0.175087157575193
8.285,0.081370877393197,0.169859890186677
8.3025,0.0889169920496852,0.16318868600133
8.32,0.0947220128452101,0.1534523893627
8.3375,0.0972168195847186,0.144736561313882
8.355,0.100835873917335,0.138071969846257
8.3725,0.10531739852792,0.128745610892812
8.39,0.106091330842987,0.118926306758229
8.4075,0.107048720229831,0.111996142072694
8.425,0.10961027669563,0.10375087039756
8.4425,0.111085759827399,0.0939072160887089
8.46,0.11042204005431,0.083062504007438
8.4775,0.107146284059534,0.0738491226042222
8.495,0.104303489627076,0.0666100416180666
8.5125,0.102091377533389,0.0596533488600646
8.53,0.100762979622922,0.0519510967647402
8.5475,0.098036420097163,0.0419911179423136
8.565,0.0916173610303961,0.0324499172310779
8.5825,0.0836479131374908,0.0267377812561863
8.6,0.0787763268391182,0.0232170673250525
8.6175,0.0754836763668371,0.0166706197800484
8.635,0.0687614919832602,0.00836897077994631
8.6525,0.0593226478568316,0.00268508341842771
8.67,0.0502585947974071,-0.00066096228369697
8.6875,0.0415452907776478,-0.00233134349232415
8.705,0.0356249741570111,-0.00298126175977421
8.7225,0.0294173762189694,-0.00798428733260672
8.74,0.0174383175579035,-0.0118038884174644
8.7575,0.00554169793915332,-0.00983944886528701
8.775,-0.00234159751684118,-0.00629614235824666
8.7925,-0.00843076393897011,-0.00517827978928319
8.81,-0.016811574057614,-0.00533482479359727
8.8275,-0.0267330055557873,-0.00346186151456142
8.845,-0.0366242157214032,0.000274348206834495
8.8625,-0.0457664711001449,0.00629847923519053
8.88,-0.0521706201019567,0.0133435080571194
8.8975,-0.057005007580229,0.018412904040442
8.915,-0.0639588204781093,0.022198681227068
8.9325,-0.0728577493706565,0.0291034206382138
8.95,-0.0785518206142445,0.0391154128656354
8.9675,-0.0816396409762438,0.0467179424428563
8.985,-0.0872477915209091,0.0540280745304962
9.0025,-0.0912771962140628,0.0647176525859538
9.02,-0.0924985376945603,0.0735006001540579
9.0375,-0.09584202922613,0.0817048853168258
9.055,-0.0983400868608753,0.0929601166666286
9.0725,-0.0974911518784466,0.103920239584882
9.09,-0.0964633041111052,0.112559898939121
9.1075,-0.0968979783882837,0.122279393340692
9.125,-0.0948595843504824,0.133666136589632
9.1425,-0.0911179237313455,0.142785351806345
9.16,-0.0882501766778088,0.151732627850844
9.1775,-0.0846291977719476,0.161928654076752
9.195,-0.0783737179446929,0.172168036821963
9.2125,-0.070812989454597,0.179338002785453
9.23,-0.0659804054144098,0.185589489093595
9.2475,-0.0606729120221708,0.194839378824431
9.265,-0.0520320771322223,0.203549411031119
9.2825,-0.0426304347747482,0.210230916353372
9.3,-0.0328179575356911,0.215633280841817
9.3175,-0.0235326180706704,0.219277253328499
9.335,-0.015967733820404,0.223171755879522
9.3525,-0.00753627439059628,0.229268206745461
9.37,0.00453454456290107,0.234741071837573
9.3875,0.0176443210095427,0.236193638726342
9.405,0.0282852220427782,0.235360824950011
9.4225,0.0367290117377726,0.235414705728597
9.44,0.0459535801765613,0.237821374720697
9.4575,0.058763645774874,0.239424000835729
9.475,0.0721181316301599,0.236808626367014
9.4925,0.0825852367854206,0.232258698218171
9.51,0.0912130948275132,0.228577717923766
9.5275,0.0999000289800993,0.226516825904259
9.545,0.111516974488481,0.224429169581008
9.5625,0.123827291114016,0.218002172711611
9.58,0.132275405378188,0.210097913640994
9.5975,0.139601918530003,0.20347998840514
9.615,0.147020723887562,0.196906829812498
9.6325,0.154275772287873,0.190441312336844
9.65,0.162845180023937,0.183519345458966
9.6675,0.171139358295214,0.173254363670389
9.685,0.175486970227082,0.162137743903686
9.7025,0.178763795798221,0.153859767154316
9.72,0.18408544994357,0.145443750781475
9.7375,0.188509407284801,0.134826563641267
9.755,0.191381186462508,0.124539002123863
9.7725,0.194207340215076,0.11382155953435
9.79,0.195647527922484,0.102357300825201
9.8075,0.195648732317181,0.0908965180341244
9.825,0.194134714021853,0.0804846930249727
9.8425,0.193541585046953,0.0711382411952821
9.86,0.192845393521278,0.0597335892199164
9.8775,0.189484234109753,0.0482414739959625
9.895,0.185255618961397,0.0379142708990346
9.9125,0.180375071875748,0.0277351184016217
9.93,0.173924395317159,0.0181671722786966
9.9475,0.167538103068583,0.0106521696003116
9.965,0.162644902478842,0.00162135145629543
9.9825,0.153780113278553,-0.0093998793326786
10,0.141681538070836,-0.0162760480628527
