"Freq [GHz]","re(S(Antenna1_1_1,Antenna1_1_1)) []","im(S(Antenna1_1_1,Antenna1_1_1)) []"
3,-0.195838775438393,-0.169082606355326
3.0175,-0.207767196605113,-0.149765988903693
3.035,-0.209148784234577,-0.131693043997235
3.0525,-0.214155026366528,-0.122206467191154
3.07,-0.224141159391973,-0.104908811202774
3.0875,-0.225016070905216,-0.0846838196013111
3.105,-0.223636758500493,-0.0707854713626729
3.1225,-0.226636528701642,-0.0576723942239398
3.14,-0.228125469572417,-0.0391582809928418
3.1575,-0.224733332422442,-0.02287301786133
3.175,-0.222139392412447,-0.0070550936593757
3.1925,-0.216787013044167,0.008251865048697
3.21,-0.211671203264643,0.0229474227958935
3.2275,-0.203808384584898,0.037418662989907
3.245,-0.195739770122488,0.0495538592525647
3.2625,-0.188334061620122,0.0614783829324738
3.28,-0.179831064934695,0.0760937588494707
3.2975,-0.164441152042446,0.0883708744400073
3.315,-0.151683452540238,0.0930746570547836
3.3325,-0.143951413012174,0.100749898926347
3.35,-0.13202666874653,0.112920083420248
3.3675,-0.113562568152088,0.120640450559312
3.385,-0.0975474566335257,0.121361668171613
3.4025,-0.0862634719916052,0.122670840753757
3.42,-0.0741928060871445,0.127472203530361
3.4375,-0.0571430537570872,0.131132213577451
3.455,-0.0392459642630284,0.129296846768013
3.4725,-0.024750584917579,0.124465170450226
3.49,-0.0126285881197215,0.120898284817546
3.5075,0.0015757902305487,0.117420251686848
3.525,0.0147876837290739,0.110298874646772
3.5425,0.0255968832921429,0.104600249821134
3.56,0.0398404879482276,0.0989843785396442
3.5775,0.0546937976216105,0.0870077818502556
3.595,0.0622294010179724,0.0721526580985434
3.6125,0.067121974301613,0.0633985320665833
3.63,0.0776037741312797,0.055031608000455
3.6475,0.0883883125794567,0.0393413577121825
3.665,0.0903919048325196,0.0216706133362499
3.6825,0.0918086464238762,0.0112638735302759
3.7,0.0975372401949312,-0.00224674563504572
3.7175,0.0991564990480535,-0.0183420897953002
3.735,0.0984407337717256,-0.0336927889231986
3.7525,0.0961751499169017,-0.0470417269474919
3.77,0.09548797206163,-0.0608601769099587
3.7875,0.0921036134481248,-0.0768028109305199
3.805,0.0862510624160687,-0.0921006968162459
3.8225,0.0766810605180634,-0.105824108981711
3.84,0.0685354947973762,-0.114383236434784
3.8575,0.0639443591581956,-0.126678058938082
3.875,0.0525401028753063,-0.14161065393263
3.8925,0.0383170204310333,-0.1489332457973
3.91,0.0301339837562703,-0.156826049830277
3.9275,0.0162618743907426,-0.169146447833269
3.945,-0.000990242817689201,-0.172969008893373
3.9625,-0.0104450723600443,-0.175702667254447
3.98,-0.022157034346502,-0.18586047007805
3.9975,-0.0433916587985682,-0.192479804192147
4.015,-0.0625256754672807,-0.187919114356408
4.0325,-0.072339489768359,-0.184157507645456
4.05,-0.0825619411755466,-0.186439157919086
4.0675,-0.0979501577121226,-0.190287673757049
4.085,-0.118421226925618,-0.187715617530608
4.1025,-0.132617294780241,-0.179795795995202
4.12,-0.145902681947759,-0.175165269679821
4.1375,-0.159747452690726,-0.167742572544431
4.155,-0.170976333547065,-0.159983876808412
4.1725,-0.181824902597562,-0.154711247300485
4.19,-0.198785334934005,-0.14821592417446
4.2075,-0.212790866693315,-0.130934365396789
4.225,-0.214550394520167,-0.117174623248147
4.2425,-0.22100064531238,-0.114854416708886
4.26,-0.23842091817887,-0.10516221407455
4.2775,-0.247717787685481,-0.085859229865592
4.295,-0.251239695699024,-0.0709494011400934
4.3125,-0.254545358236881,-0.0583207389600176
4.33,-0.259569340308705,-0.0465292358803655
4.3475,-0.263028125255056,-0.031762321892722
4.365,-0.266068159143581,-0.0190101220730522
4.3825,-0.26907785451843,-0.00200555184499181
4.4,-0.265617378903727,0.0133704000676782
4.4175,-0.264688971868044,0.0237834415316563
4.435,-0.266376174054116,0.0390368178683901
4.4525,-0.260743825812435,0.0551808901099779
4.47,-0.256256348585239,0.0648528189546535
4.4875,-0.255338950345216,0.0778077518578658
4.505,-0.250373452787207,0.0938630837121633
4.5225,-0.240410729683515,0.106455937573054
4.54,-0.234106003776458,0.114044723400831
4.5575,-0.229561765990541,0.127061516452871
4.575,-0.218848859478566,0.13862141677168
4.5925,-0.210510196547067,0.146246203607228
4.61,-0.203305370587411,0.156678840422137
4.6275,-0.191518187180317,0.168016731394902
4.645,-0.177547609029872,0.173198105878599
4.6625,-0.169381269551147,0.176260665281165
4.68,-0.162363442066064,0.184252995542152
4.6975,-0.150315580256744,0.194096650120509
4.715,-0.133827769625839,0.199093068700153
4.7325,-0.120905062796118,0.197861495103392
4.75,-0.113621758451468,0.199188840204609
4.7675,-0.104389047074455,0.205425952188973
4.785,-0.089949551044277,0.209721224762192
4.8025,-0.0760578912911192,0.209169369182443
4.82,-0.0637288737722895,0.207728773685483
4.8375,-0.0533204543705009,0.20423466082125
4.855,-0.0457340043940797,0.203216277854508
4.8725,-0.0358195949611133,0.204727511898945
4.89,-0.0216520729021593,0.204575587004687
4.9075,-0.00864919975474051,0.19846792881814
4.925,0.000533379038093401,0.193289438608167
4.9425,0.00971550929763012,0.187491447507452
4.96,0.0165393186903632,0.183928736794209
4.9775,0.0277733992060577,0.181380260502144
4.995,0.0399493294918626,0.173894045773487
5.0125,0.0478619892221308,0.163423561569735
5.03,0.0523231096312055,0.156689343675859
5.0475,0.0604788858253529,0.151398538019656
5.065,0.0689063970065996,0.142728607668011
5.0825,0.0749444042547459,0.132888496894224
5.1,0.0797369033836856,0.124540683452745
5.1175,0.0858506497641929,0.115194826213713
5.135,0.0890106724161779,0.104813589243038
5.1525,0.0925063528883382,0.0969785132208158
5.17,0.0977531244333881,0.0874099922639518
5.1875,0.101401727039443,0.0749579993638456
5.205,0.100756474337554,0.063192185827402
5.2225,0.101074166241425,0.0548099387997642
5.24,0.102431624758479,0.0441111686733276
5.2575,0.101284282148232,0.033613944715098
5.275,0.100330460672563,0.0241673315259234
5.2925,0.0996486622995072,0.0140848750532887
5.31,0.0974517898898538,0.00273936208086511
5.3275,0.0932629310795827,-0.00722015533337303
5.345,0.0893901028704455,-0.0163626677614889
5.3625,0.0851096161084344,-0.0251982512250674
5.38,0.0809176598680566,-0.0343455217703153
5.3975,0.075688429594197,-0.04373538129498
5.415,0.0690024161587697,-0.0537017291297799
5.4325,0.0596318970745566,-0.0611917757341256
5.45,0.0523301634819112,-0.0663793064204465
5.4675,0.0457186549860184,-0.0723198934501215
5.485,0.0392771886859024,-0.0794770106926569
5.5025,0.0297934275791373,-0.0870784794850727
5.52,0.0194835730742837,-0.0921793014642703
5.5375,0.0090710264296005,-0.0957591917743017
5.555,0.000497390222456122,-0.0986019317578556
5.5725,-0.00909260748749108,-0.102538327911936
5.59,-0.0182224688763677,-0.105872358056778
5.6075,-0.0310490276366019,-0.110988358878661
5.625,-0.045920675464742,-0.108565068274896
5.6425,-0.0537425832926086,-0.105216174731251
5.66,-0.0610141289228226,-0.106950175339048
5.6775,-0.0732804208647964,-0.109992552596558
5.695,-0.0878496260266867,-0.107511214456082
5.7125,-0.0988821539138132,-0.103036988836962
5.73,-0.109409824412,-0.0988194670271912
5.7475,-0.118857974081565,-0.0942022675898344
5.765,-0.128110312934691,-0.0904275533492316
5.7825,-0.139211194312145,-0.0870831375743394
5.8,-0.152036345381322,-0.0799849197263716
5.8175,-0.161333608076006,-0.0705061792558683
5.835,-0.169412800697793,-0.0620020699836766
5.8525,-0.176587295467472,-0.0534873028882676
5.87,-0.184451012516807,-0.0457952975819935
5.8875,-0.192963940554814,-0.0361404642788878
5.905,-0.200184252999953,-0.0250168391157854
5.9225,-0.205542386053443,-0.0133169466483432
5.94,-0.210140029700436,-0.00273469453512643
5.9575,-0.21547826609549,0.00863949985532704
5.975,-0.219469551923146,0.0215597977654481
5.9925,-0.221509441214806,0.0340895436579522
6.01,-0.223923069004265,0.04561685199953
6.0275,-0.226747971585147,0.0593156924857622
6.045,-0.226091328421859,0.0743574595490283
6.0625,-0.223355458210567,0.0864548840471774
6.08,-0.222962656492794,0.0978250367857963
6.0975,-0.222195779366116,0.112230659653055
6.115,-0.218151165534495,0.126873998840457
6.1325,-0.212726530381825,0.139940255694443
6.15,-0.206839321030508,0.152342591217846
6.1675,-0.20005585119348,0.163936257596836
6.185,-0.193687694192381,0.174602157343477
6.2025,-0.187565655182651,0.186394416910513
6.22,-0.1794012739534,0.199598848942835
6.2375,-0.167470137110203,0.211510616191541
6.255,-0.155228725923575,0.219266109141906
6.2725,-0.145467585218957,0.226344282891342
6.29,-0.135927555735736,0.235311145381913
6.3075,-0.123254307352128,0.245272078533655
6.325,-0.107956219123799,0.251873383003327
6.3425,-0.0939527797448673,0.255820612576787
6.36,-0.0809863421513586,0.259036702495556
6.3775,-0.069170926959211,0.262862799470889
6.395,-0.0552220296123478,0.268133171011489
6.4125,-0.0386357966369966,0.270773201872555
6.43,-0.0226298668525665,0.270182423423866
6.4475,-0.00889729186901783,0.268494022462856
6.465,0.00489690207125817,0.268183400805836
6.4825,0.0202897402176387,0.266034662850461
6.5,0.0344252276497054,0.262627552845988
6.5175,0.0494535457410139,0.258530125000494
6.535,0.0647952355051921,0.251362510074715
6.5525,0.0766719109918551,0.242305526891096
6.57,0.0872782905435904,0.235805033124472
6.5875,0.100118755076648,0.228837613475847
6.605,0.113067512051225,0.219448569016186
6.6225,0.124419259423068,0.20780352344492
6.64,0.133661788780412,0.19615274021265
6.6575,0.142237636732874,0.184132867292874
6.675,0.149557201853175,0.172354954144939
6.6925,0.157177403276379,0.160348569193762
6.71,0.164311461113827,0.147299265429003
6.7275,0.170689377116092,0.132454459746239
6.745,0.173764590219845,0.1168274380037
6.7625,0.175450977569058,0.103156846536197
6.78,0.177421523523852,0.0897719799693089
6.7975,0.179073072633342,0.0757554346305611
6.815,0.179536980778619,0.0608936177698632
6.8325,0.178231044997557,0.0457940433695727
6.85,0.174954783150892,0.0315332426609874
6.8675,0.171474908452962,0.0187881800092466
6.885,0.168063779040863,0.00563978168576952
6.9025,0.163677557261284,-0.00774745892136018
6.92,0.158030470566351,-0.0216607292358151
6.9375,0.149903965927896,-0.0351251705718646
6.955,0.140117891308566,-0.0456380830574855
6.9725,0.1313932251804,-0.0540865603865988
6.99,0.123067592357978,-0.063308795346422
7.0075,0.113914897875724,-0.0719267698482591
7.025,0.10410399891586,-0.0812840627534677
7.0425,0.0916137235052222,-0.088632899137099
7.06,0.0803680940340219,-0.0937719084381834
7.0775,0.0693063039772321,-0.0984382865262555
7.095,0.0594032219160477,-0.103116513552119
7.1125,0.0477612120941339,-0.109031621582934
7.13,0.0342501368462505,-0.113214408106607
7.1475,0.0195580032471373,-0.115131782189721
7.165,0.0061085467958928,-0.113212977600977
7.1825,-0.00326575778307885,-0.111244127549091
7.2,-0.0127923246723512,-0.112850405481834
7.2175,-0.0261923816243441,-0.113447150545105
7.235,-0.0391009807244095,-0.110593740288165
7.2525,-0.0508939797788132,-0.10658055808959
7.27,-0.0606994211556158,-0.10159818955751
7.2875,-0.069635481874152,-0.0982027703314793
7.305,-0.0799591497521235,-0.095388969417451
7.3225,-0.0929143006542059,-0.0907200455086166
7.34,-0.103930735785785,-0.080670572982509
7.3575,-0.109578089205224,-0.0719720228482372
7.375,-0.116166479347135,-0.0661351519641326
7.3925,-0.124062871242409,-0.0600425292596223
7.41,-0.13199614451989,-0.0527700179977168
7.4275,-0.139323508169028,-0.0442965468078337
7.445,-0.145511525172904,-0.0348376761753081
7.4625,-0.149710443616268,-0.0251845508767478
7.48,-0.152771235814991,-0.017477549723114
7.4975,-0.158155108176468,-0.0108501844208065
7.515,-0.164791419061697,-0.000827017482381211
7.5325,-0.168045652075218,0.0113470790118245
7.55,-0.16895325946984,0.0218706463546137
7.5675,-0.169941837596679,0.0313264872546073
7.585,-0.170588464056726,0.0409255051694763
7.6025,-0.170567092289736,0.0496831794936889
7.62,-0.171729199400827,0.058204530920796
7.6375,-0.172717070785596,0.0687902731929338
7.655,-0.171032699002672,0.0800681884726468
7.6725,-0.167598153015761,0.0891479632958262
7.69,-0.165546913673832,0.0966772400041602
7.7075,-0.164640444649688,0.105376551618582
7.725,-0.162508869203449,0.116240267139303
7.7425,-0.157083292380015,0.12628980126844
7.76,-0.151666513438011,0.134170141572573
7.7775,-0.145942575897475,0.141306758441005
7.795,-0.141635452203067,0.147290477084515
7.8125,-0.137543250086972,0.155130442988179
7.83,-0.131905815756824,0.163500918560131
7.8475,-0.124569128765767,0.171345616702705
7.865,-0.116903844048722,0.177070752948318
7.8825,-0.109814471224619,0.182439512950682
7.9,-0.103240199377017,0.186987513309729
7.9175,-0.0976110024555164,0.193479104685263
7.935,-0.0880235708477891,0.20120514051196
7.9525,-0.0760862371074035,0.204139624274395
7.97,-0.0682263418796506,0.204392823346411
7.9875,-0.0617911689696356,0.207754234548742
8.005,-0.0528704495230984,0.211366552279593
8.0225,-0.0435822499519963,0.213471930499101
8.04,-0.0342739622538569,0.215295561559456
8.0575,-0.023551624194325,0.216346645838827
8.075,-0.0134514176430794,0.214160583533781
8.0925,-0.00710089853813494,0.212770412835687
8.11,0.00120415722961111,0.214828829824258
8.1275,0.0134078736274547,0.214412267766494
8.145,0.0241548097619109,0.209321404319409
8.1625,0.0308984289138925,0.204714360908173
8.18,0.038479247053997,0.202137493531539
8.1975,0.0467494063381831,0.198326532131219
8.215,0.0546281761707723,0.193997619124569
8.2325,0.0625528182165329,0.189360166466672
8.25,0.0711650552675975,0.183059827430957
8.2675,0.076877154452122,0.174472248515193
8.285,0.081121832723197,0.168840153716677
8.3025,0.0878854365168252,0.16292260833133
8.32,0.0940224004592101,0.1546184152427
8.3375,0.0984792565007186,0.145637863313882
8.355,0.101718791869335,0.136805739726257
8.3725,0.10409048195392,0.127981406631812
8.39,0.105373099906987,0.120060833690229
8.4075,0.107937501035831,0.112966031522694
8.425,0.11119377479163,0.10317197645256
8.4425,0.110688107767399,0.0917722626527089
8.46,0.10832521757231,0.083309071896438
8.4775,0.107026871132534,0.0753674203722222
8.495,0.105252359619076,0.0672198535280666
8.5125,0.102904406563389,0.0589477377530646
8.53,0.100222094412922,0.0513921742817402
8.5475,0.097871509937163,0.0421076431262136
8.565,0.0910949911803961,0.0324267664890779
8.5825,0.0835911835294908,0.0278600044531863
8.6,0.0803630705391182,0.0233663145940525
8.6175,0.0757324444668371,0.0147798325730484
8.635,0.0668831650962602,0.00817527112194631
8.6525,0.0592653180508316,0.00421964361242771
8.67,0.0514623476154071,-0.00062179202169697
8.6875,0.0417170222146478,-0.00361337385132415
8.705,0.0340199862200111,-0.00328574932077421
8.7225,0.0289446606509694,-0.00633301831460671
8.74,0.0186236626359035,-0.0109402738474644
8.7575,0.00688378115545332,-0.010373320275287
8.775,-0.00235178672394118,-0.00777777851524666
8.7925,-0.00961369067607011,-0.00560435252028319
8.81,-0.017629625628614,-0.00447821615359727
8.8275,-0.0259269930957873,-0.00248993236456142
8.845,-0.0358080646134032,-0.000541251123165507
8.8625,-0.0463315305461449,0.00568338707119053
8.88,-0.0527622198769567,0.0134628357891194
8.8975,-0.057230585152229,0.018980160575442
8.915,-0.0637027993811093,0.022607161813068
8.9325,-0.0722667162056565,0.0293427035572138
8.95,-0.0780199692642445,0.0382727018426354
8.9675,-0.0827008867412438,0.0462969514458563
8.985,-0.0873952958709091,0.0551753489764962
9.0025,-0.0900950330040628,0.0648297762639638
9.02,-0.0921027988035603,0.0722754514072579
9.0375,-0.09693507619613,0.0809036233625258
9.055,-0.0994609559808753,0.0936151123756286
9.0725,-0.0973937546384466,0.105079272400882
9.09,-0.0956754682711052,0.112821007117121
9.1075,-0.0966315254242837,0.122156646387692
9.125,-0.0943683181984824,0.133662553506632
9.1425,-0.0908324330243455,0.142062990063345
9.16,-0.0888489132718088,0.151301233410844
9.1775,-0.0849728367379476,0.162432886309752
9.195,-0.0776952552156929,0.172140408011963
9.2125,-0.071291766534597,0.178397937493453
9.23,-0.0670260630504098,0.186212271339595
9.2475,-0.0603320544071708,0.195842203014431
9.265,-0.0510950477620223,0.203572661161119
9.2825,-0.0425626111077482,0.209442696903372
9.3,-0.0332287860156911,0.215725007171817
9.3175,-0.0235324241666704,0.219218657673499
9.335,-0.016327199300404,0.223610657177522
9.3525,-0.00670159868959628,0.229854818489461
9.37,0.00566646750090107,0.233827602037573
9.3875,0.0167816478625427,0.234214717393342
9.405,0.0257289307647782,0.236199215902011
9.4225,0.0374717193427726,0.237959379353597
9.44,0.0481660802625613,0.237178681660697
9.4575,0.0579637698188741,0.237542547190729
9.475,0.0705589953401599,0.237966116322014
9.4925,0.0838173508754206,0.233491360316231
9.51,0.0922608468275132,0.227809071122766
9.5275,0.0997950234000993,0.225570195065259
9.545,0.110932985729481,0.224124660291008
9.5625,0.123437389154016,0.217852885829611
9.58,0.131492701137188,0.210373074627994
9.5975,0.139537250827003,0.20434094799814
9.615,0.147675698724562,0.197532036566498
9.6325,0.155304672468873,0.189760628003844
9.65,0.161873926650937,0.182565406968966
9.6675,0.170509299971214,0.174473340207389
9.685,0.176821843214082,0.162613064693686
9.7025,0.179267828287511,0.152478410694316
9.72,0.18277502114527,0.144954149098475
9.7375,0.188206445384401,0.135919586554267
9.755,0.192150384859508,0.124569828595863
9.7725,0.194159707761076,0.11332103344735
9.79,0.195165371268484,0.102210989799201
9.8075,0.195247696949181,0.0914816871051244
9.825,0.194644982842853,0.0810721839449727
9.8425,0.194238396567953,0.0708756244372821
9.86,0.192735149754278,0.0591169032249164
9.8775,0.189282707293753,0.0483881251239625
9.895,0.185431933293397,0.0374994101800346
9.9125,0.179528125635748,0.0276527732536217
9.93,0.173906894927159,0.0190863323817966
9.9475,0.168419084838583,0.0107426172283116
9.965,0.162773230109842,0.000620366814295425
9.9825,0.152580872708553,-0.0094120399308786
10,0.141727931630836,-0.0149512167948527
