"Freq [GHz]","re(S(Antenna1_1_1,Antenna1_1_1)) []","im(S(Antenna1_1_1,Antenna1_1_1)) []"
3,-0.193752190140393,-0.162868905415926
3.0175,-0.201386575905113,-0.151685742715694
3.035,-0.210827343001577,-0.138023210392135
3.0525,-0.219211710096528,-0.120013641906154
3.07,-0.221467845462973,-0.102359131401774
3.0875,-0.224392072565216,-0.0868481323983111
3.105,-0.224860373214493,-0.0713434269406729
3.1225,-0.227687000746642,-0.0570805155149398
3.14,-0.228561413045317,-0.0388149244368418
3.1575,-0.225724962865542,-0.02051486186033
3.175,-0.218563255628947,-0.0056823900693757
3.1925,-0.215756869139467,0.005795270132697
3.21,-0.211812854882643,0.0217811883818935
3.2275,-0.205504829210898,0.036421119767907
3.245,-0.196251152563488,0.0513176794575647
3.2625,-0.186884332179122,0.0613499913804738
3.28,-0.179742755291695,0.0744100704624707
3.2975,-0.166911914279446,0.0876875312920073
3.315,-0.152770831305238,0.0958469622577836
3.3325,-0.141662822668174,0.102063544096347
3.35,-0.13060527888953,0.111211553841248
3.3675,-0.115304243139088,0.119163739177412
3.385,-0.0990620431655257,0.123681254696013
3.4025,-0.0836975426756052,0.124369329345757
3.42,-0.0720176503881445,0.125571343646361
3.4375,-0.0577561813720872,0.128517852206451
3.455,-0.0416382922990284,0.128782078724013
3.4725,-0.025833896118579,0.125566834494226
3.49,-0.0131605485097215,0.122539430136546
3.5075,0.0037886174455487,0.118435321530848
3.525,0.0150064771460739,0.108065056558772
3.5425,0.0236845448191429,0.105301202431134
3.56,0.0410147838982276,0.100941858689644
3.5775,0.0568909344269105,0.0853800262742556
3.595,0.0600283229999724,0.0704424333905434
3.6125,0.066806206984613,0.0658160570305833
3.63,0.0796728267267797,0.053808229510455
3.6475,0.0862012595124567,0.0378102567391825
3.665,0.0891983948559996,0.0242868905022499
3.6825,0.0947622977498762,0.0121442938602759
3.7,0.0978531562629312,-0.00528779004604572
3.7175,0.0964855519640535,-0.0182079770113002
3.735,0.0985398438677256,-0.0313249395691986
3.7525,0.0989034842499017,-0.0468964327864919
3.77,0.0954840436606299,-0.0643803061419587
3.7875,0.0883973314611248,-0.0763882519635199
3.805,0.0864528421060687,-0.0890339841372459
3.8225,0.0793382718110634,-0.105321703197711
3.84,0.0688294657863762,-0.117590811469584
3.8575,0.0597267900161956,-0.125010192144082
3.875,0.0567647666253063,-0.13684234570563
3.8925,0.0431321023270333,-0.1540717305483
3.91,0.0257561430172703,-0.161805809069277
3.9275,0.0114930264707426,-0.165693627006269
3.945,0.0023178960723108,-0.169572247225373
3.9625,-0.00883309446004431,-0.179308466984447
3.98,-0.026286993635502,-0.18722316700805
3.9975,-0.0464126339815682,-0.187272774027147
4.015,-0.0564120349171807,-0.183150008587408
4.0325,-0.067117128327359,-0.189490402112456
4.05,-0.0854890715215466,-0.191244035837086
4.0675,-0.102097564581423,-0.189166324847049
4.085,-0.117051946462018,-0.185149422720608
4.1025,-0.132770930291241,-0.181894669385202
4.12,-0.147298461910759,-0.172835815323821
4.1375,-0.156833915382726,-0.167966191481431
4.155,-0.172331013350065,-0.163209587765412
4.1725,-0.186700347177562,-0.152787069625485
4.19,-0.196012697198005,-0.14086399988846
4.2075,-0.204034493877315,-0.134776325850789
4.225,-0.218773813093167,-0.125720641147547
4.2425,-0.22892671382638,-0.110966174205886
4.26,-0.23470761240887,-0.0974566320155502
4.2775,-0.240411549547481,-0.089709110855592
4.295,-0.254554344519024,-0.0770226918950934
4.3125,-0.259016708076881,-0.0566290066090176
4.33,-0.259318663048705,-0.0434608622033655
4.3475,-0.261340035384056,-0.031913132852722
4.365,-0.266512824113581,-0.0187257561490522
4.3825,-0.26690532500843,-0.00264176756599181
4.4,-0.268673495110727,0.0106186932176782
4.4175,-0.266884572058044,0.0288102647176563
4.435,-0.260980732796116,0.0408480196153901
4.4525,-0.258565438622435,0.0504655786959779
4.47,-0.260366799208239,0.0623801382796535
4.4875,-0.257203022696216,0.0814874580658658
4.505,-0.247516184757307,0.0949904302921633
4.5225,-0.238899187562515,0.104589669243054
4.54,-0.235261852622458,0.111397359939831
4.5575,-0.232801783326841,0.127273745832871
4.575,-0.220380049098566,0.14161243835168
4.5925,-0.207930849778067,0.149576184816228
4.61,-0.199459499916411,0.154438310059137
4.6275,-0.192994362798317,0.164903418112902
4.645,-0.180195543058872,0.173466938917599
4.6625,-0.170005705851147,0.179555476211165
4.68,-0.158229342277064,0.185212869105152
4.6975,-0.148792758982744,0.190072588396509
4.715,-0.137106604165839,0.196393785485153
4.7325,-0.124370646686118,0.200629262114432
4.75,-0.111284926751468,0.202275072713539
4.7675,-0.101956153256455,0.203942196135773
4.785,-0.090719260274277,0.207155175371492
4.8025,-0.0789430526811192,0.209465485894443
4.82,-0.0641692738722895,0.210151283406483
4.8375,-0.0520766907805009,0.20575113762925
4.855,-0.0436710805780797,0.203083529035508
4.8725,-0.0354161864661133,0.203296437795945
4.89,-0.0218413194891593,0.204351071586687
4.9075,-0.0080517139167405,0.19788921685714
4.925,7.54171440934016E-05,0.191664730620167
4.9425,0.00758612155763012,0.187425560417452
4.96,0.0161811247005632,0.185654233201209
4.9775,0.0286336339330577,0.181596712931144
4.995,0.0398215442248626,0.173558419398487
5.0125,0.0473360807855308,0.163761141189735
5.03,0.0527223624922055,0.157707405558859
5.0475,0.0614624977053529,0.150913734415657
5.065,0.0682840532835996,0.142506407116011
5.0825,0.0754933241767459,0.133770161440224
5.1,0.0811145084946856,0.123828739933745
5.1175,0.0853279501631929,0.113377196208713
5.135,0.0874415728371779,0.105414337357038
5.1525,0.0936323297533382,0.0975450427848158
5.17,0.0974252706393881,0.0855209330739518
5.1875,0.0987663364804432,0.0752602580648456
5.205,0.100324815410554,0.066208364784802
5.2225,0.103687995542424,0.0558182349395642
5.24,0.103433715920479,0.0425976985696276
5.2575,0.100678611978232,0.032928374862898
5.275,0.0998980406685632,0.0249011959709234
5.2925,0.101275848468507,0.0144471678002887
5.31,0.0979831698238538,0.000626846962865107
5.3275,0.0917308425245827,-0.00818776929937303
5.345,0.0881249465364455,-0.0159202028224889
5.3625,0.0847737853954344,-0.0243403768400674
5.38,0.0809181965230566,-0.0337485225043153
5.3975,0.076219366285197,-0.04340517120898
5.415,0.0687453971117697,-0.0541212387087799
5.4325,0.0589086246515566,-0.0602147505901256
5.45,0.0532394240799112,-0.0645634422284465
5.4675,0.0489129549038184,-0.0724474771401215
5.485,0.0399307031989024,-0.0830720458496569
5.5025,0.0273096224711373,-0.0881027941410727
5.52,0.0184943029102837,-0.0911942996242703
5.5375,0.0097125057136005,-0.0951988196043017
5.555,0.000547737418456122,-0.100109717243856
5.5725,-0.0114196935154911,-0.102912847885936
5.59,-0.0202735975183677,-0.103654567505778
5.6075,-0.0296270486236019,-0.106862355835661
5.625,-0.041119148830742,-0.109120037720896
5.6425,-0.0534887509066087,-0.108522847289251
5.66,-0.0625774095728226,-0.107741907368048
5.6775,-0.0738689883947964,-0.108877681442808
5.695,-0.0862043666956867,-0.107749757738583
5.7125,-0.0994896853988132,-0.104879791337782
5.73,-0.110570664971,-0.0990766834908912
5.7475,-0.120509818066565,-0.0942044963118344
5.765,-0.129369842864691,-0.0882341871222316
5.7825,-0.137787410492145,-0.0845872130193394
5.8,-0.148632905322322,-0.0801303136453716
5.8175,-0.160675865989006,-0.0738830403218683
5.835,-0.171716694168793,-0.0627855911906766
5.8525,-0.177013487341472,-0.0523912454362676
5.87,-0.183629405000807,-0.0462394072709935
5.8875,-0.194673223474814,-0.0376994984588878
5.905,-0.202622379780253,-0.0225158244927854
5.9225,-0.203779428752443,-0.0105666015113432
5.94,-0.207740152939436,-0.00248797819512643
5.9575,-0.21354102122302,0.00737919814532704
5.975,-0.218791475334946,0.0194274806154481
5.9925,-0.222593589406806,0.0315568610179522
6.01,-0.226816777491265,0.04553702559953
6.0275,-0.227185724188147,0.0607018816227622
6.045,-0.226552405234859,0.0739952112780283
6.0625,-0.225481141006567,0.0871587782201774
6.08,-0.223896786110794,0.101484349487796
6.0975,-0.218643705171116,0.115149883895055
6.115,-0.214512640774495,0.125327294898457
6.1325,-0.211896409382825,0.137253058439443
6.15,-0.207686196403508,0.150871757171846
6.1675,-0.19988135293748,0.163273407276836
6.185,-0.194541976052381,0.172075156136477
6.2025,-0.191070882212651,0.186051273605513
6.22,-0.1812219791334,0.202050775235835
6.2375,-0.166936782700203,0.213546825679541
6.255,-0.154773224233575,0.219808854322906
6.2725,-0.145468465901957,0.228008338455342
6.29,-0.133587345436736,0.236868221859913
6.3075,-0.120574268826128,0.244417682695655
6.325,-0.106474583687799,0.249719565314327
6.3425,-0.0939455375898673,0.253180985787787
6.36,-0.0827436794533586,0.256759684972556
6.3775,-0.0719236482162109,0.262467238324889
6.395,-0.0574986473233478,0.269169395041489
6.4125,-0.0398995243349966,0.273453815152555
6.43,-0.0211037982238665,0.272254278213866
6.4475,-0.00806660638671783,0.268558094842856
6.465,0.00539425185735817,0.269308293215836
6.4825,0.0223883165946386,0.266921959420461
6.5,0.0373703545077054,0.261134413965988
6.5175,0.0494268870350139,0.254841119792494
6.535,0.0621719473061922,0.250360066824715
6.5525,0.0759196320558551,0.243112823415096
6.57,0.0870093283235904,0.235234051413472
6.5875,0.0982879294126483,0.228839338975847
6.605,0.111940706301225,0.221348172236186
6.6225,0.125158366473068,0.20997224794692
6.64,0.135987636230412,0.19680622355965
6.6575,0.143556050992874,0.182662495098274
6.675,0.149331499883175,0.171282859555689
6.6925,0.156735404926379,0.159774962994162
6.71,0.163776662043827,0.147370034658003
6.7275,0.170893239556092,0.132502737823239
6.745,0.173693387679845,0.1160950773147
6.7625,0.174073928724058,0.102599284602197
6.78,0.175870421681852,0.0914597991373089
6.7975,0.180304924251342,0.0780634358735611
6.815,0.182112337377619,0.0608484641998632
6.8325,0.179483217606557,0.0434430211695727
6.85,0.173369691236892,0.0295072863009874
6.8675,0.169265128834762,0.0192209657092466
6.885,0.167641992694863,0.00772335592576952
6.9025,0.165426962270284,-0.00743570037136018
6.92,0.157502921791331,-0.0228935917058151
6.9375,0.149044411965896,-0.0340114251218646
6.955,0.140934321626566,-0.0447642442074855
6.9725,0.1323092880994,-0.0540905599865988
6.99,0.123883841518978,-0.063657188366422
7.0075,0.114502078353724,-0.0732844210282591
7.025,0.10279512978086,-0.0822551541334677
7.0425,0.0911130879252222,-0.0880454608380991
7.06,0.0802486831740219,-0.0939473120141834
7.0775,0.0688813209272321,-0.0985466514352555
7.095,0.0582257793160477,-0.102863256275119
7.1125,0.0476734337941339,-0.107157312357934
7.13,0.0355344940862505,-0.112696424605607
7.1475,0.0204379338071373,-0.115073702465721
7.165,0.0069591401958928,-0.113978708069977
7.1825,-0.00337793427307885,-0.111782076675091
7.2,-0.0124812448033512,-0.113260234495834
7.2175,-0.0263537437043441,-0.114321511989105
7.235,-0.0399362776344095,-0.111068015214165
7.2525,-0.0513372248488132,-0.10625271380959
7.27,-0.0609920895996158,-0.10212813964751
7.2875,-0.071120559593152,-0.0977495963114793
7.305,-0.0801570532231235,-0.093902488637451
7.3225,-0.0921504705892059,-0.0896412272886166
7.34,-0.102957118230785,-0.080934401442509
7.3575,-0.110026421136224,-0.0715179944482372
7.375,-0.114331490035135,-0.0651195319941326
7.3925,-0.122661997647409,-0.0615253537796223
7.41,-0.13184483984989,-0.0540201554277168
7.4275,-0.139662082817028,-0.0453778987978337
7.445,-0.145591926760904,-0.0357850934253081
7.4625,-0.151101417553268,-0.0272514409667478
7.48,-0.156405865706991,-0.017408345903114
7.4975,-0.160312694551468,-0.00730583770480649
7.515,-0.162875840475697,0.00234667587361879
7.5325,-0.166190009898218,0.0114819689858245
7.55,-0.16783920840984,0.0225450571506137
7.5675,-0.167668638356679,0.0311457719196073
7.585,-0.168764839206726,0.0389889963354763
7.6025,-0.170915643689736,0.0469141090930889
7.62,-0.173170368420827,0.057134465469796
7.6375,-0.173831357325596,0.0677904199029339
7.655,-0.173285039333672,0.0795995655546468
7.6725,-0.170102890035761,0.0904186405138262
7.69,-0.166487859913832,0.0997361721611602
7.7075,-0.163238787277688,0.107892295794582
7.725,-0.160378222904449,0.117175728507303
7.7425,-0.155346608070015,0.12643931713844
7.76,-0.148958155100011,0.133751323342573
7.7775,-0.144314744841475,0.137838535121005
7.795,-0.143460676412067,0.144657771484515
7.8125,-0.139467671816872,0.154562837678179
7.83,-0.133298640856023,0.163685924560131
7.8475,-0.125645027770767,0.171473609252705
7.865,-0.118465472625722,0.177876951528318
7.8825,-0.110655437111619,0.184249702240682
7.9,-0.102872842864017,0.189476659209729
7.9175,-0.0949029277145164,0.194889780565263
7.935,-0.0860419714237891,0.19980405812996
7.9525,-0.0760119507504035,0.203161230376395
7.97,-0.0675497719376506,0.204108086771411
7.9875,-0.0610677159596356,0.206054421776742
8.005,-0.0542899464730984,0.209823015309593
8.0225,-0.0446434187919963,0.213758250528101
8.04,-0.0347469098738569,0.214898463205456
8.0575,-0.025123699864325,0.216301770582027
8.075,-0.0148120208730794,0.215924910199281
8.0925,-0.00592016210813494,0.214713588758187
8.11,0.00220477813961111,0.214401588540258
8.1275,0.0131675065874547,0.214996018563494
8.145,0.0255563809119109,0.210321519916409
8.1625,0.0330338756398925,0.203695495046173
8.18,0.038346679123997,0.199654340403539
8.1975,0.0451364922881831,0.197984958509219
8.215,0.0546537195137723,0.194451529464569
8.2325,0.0627297885625329,0.188387389366672
8.25,0.0694623554235975,0.182267557500957
8.2675,0.075776727591122,0.175904385865193
8.285,0.081445807162197,0.169100307106677
8.3025,0.0865216143368252,0.16357810453133
8.32,0.0946146350592101,0.1572522987627
8.3375,0.101192901172719,0.146031390813882
8.355,0.102862511904335,0.135098511296257
8.3725,0.10371050267692,0.127458106881812
8.39,0.106720380809987,0.119635139775229
8.4075,0.107746219377831,0.109754423962694
8.425,0.10731391484463,0.10239190321156
8.4425,0.109207753894399,0.0948118116907089
8.46,0.10972986179431,0.084462165994438
8.4775,0.106993965136534,0.0751397827732222
8.495,0.104886923569076,0.0684457515380666
8.5125,0.104596624053389,0.0605127775410646
8.53,0.102842802492922,0.0500870458007402
8.5475,0.097382035557163,0.0396917025222136
8.565,0.0902620978303961,0.0323599364240779
8.5825,0.0837775603804908,0.0266421311851863
8.6,0.0778325634741182,0.0220585257080525
8.6175,0.0730728324788371,0.0172723981050484
8.635,0.0682942445632602,0.0113302299459463
8.6525,0.0613772156178316,0.00397471964742771
8.67,0.0514109436884071,-0.00058909037969697
8.6875,0.0436561028806478,-0.00232087600432415
8.705,0.0371867549520111,-0.00558580518577421
8.7225,0.0278517020199694,-0.0105624639326067
8.74,0.0151959298159035,-0.0116664454274644
8.7575,0.00502001210665332,-0.00915024321528701
8.775,-0.00311800898954118,-0.00632397889224666
8.7925,-0.00978298348237011,-0.00444268330428319
8.81,-0.017773644667514,-0.00302960925559727
8.8275,-0.0250697853083873,-0.000452129749561424
8.845,-0.0328451037244032,0.000972781646834495
8.8625,-0.0425048864471449,0.00376587266819053
8.88,-0.0520859607409567,0.00935610032611938
8.8975,-0.059207965519229,0.015945455081442
8.915,-0.0670491083261093,0.021596814603068
8.9325,-0.0749437589706565,0.0306887109392138
8.95,-0.0792951139142445,0.0402698883556354
8.9675,-0.0828912036712438,0.0485047674268563
8.985,-0.0867593980009091,0.0570895064987962
9.0025,-0.0885784120120628,0.0667588081140538
9.02,-0.0890654805025603,0.0733403642034579
9.0375,-0.09294488510413,0.0793454534096258
9.055,-0.0980664521708753,0.0888082596146286
9.0725,-0.100090976808447,0.101626362072882
9.09,-0.0985460176221052,0.112304841698121
9.1075,-0.0985325391072837,0.122051679099692
9.125,-0.0976839260354824,0.133893172754632
9.1425,-0.0935636424673455,0.146038606686345
9.16,-0.0872743264128088,0.155492250480844
9.1775,-0.0820309752229476,0.164064121349752
9.195,-0.0749567092465929,0.172190680921963
9.2125,-0.068719926503297,0.177410670699453
9.23,-0.0653179754349098,0.183379330551595
9.2475,-0.0611743649041708,0.193029099627431
9.265,-0.0526156870939223,0.202157835181119
9.2825,-0.0441359694687482,0.208474908811372
9.3,-0.0359970774696911,0.215011098561817
9.3175,-0.0268626793466704,0.221847974383499
9.335,-0.015557279157404,0.227530835505522
9.3525,-0.00452555605759628,0.230965798303461
9.37,0.00679913226790107,0.234087781818573
9.3875,0.0184095196395427,0.235073877622342
9.405,0.0287245783127782,0.234884487443011
9.4225,0.0374515357837726,0.234563831619597
9.44,0.0461963905495613,0.236414554833697
9.4575,0.057990021972874,0.237656263326729
9.475,0.0698295490901599,0.236036658241014
9.4925,0.0804389746654206,0.233584142863871
9.51,0.0910345692675132,0.231107721632066
9.5275,0.101775997265099,0.227339442335259
9.545,0.111726987780481,0.223517558320008
9.5625,0.123208103264016,0.218795219709611
9.58,0.133415032518188,0.211323511253994
9.5975,0.141444211075003,0.20273965985314
9.615,0.146891898166562,0.195518480160498
9.6325,0.154330646114873,0.190244735913844
9.65,0.162826452907937,0.182215882290966
9.6675,0.169628461606214,0.172712750970389
9.685,0.174552662807082,0.163152230353686
9.7025,0.179385867866011,0.154459856894316
9.72,0.18378275426227,0.144769100507475
9.7375,0.187534511369401,0.135754335963267
9.755,0.192009909562508,0.125781856951863
9.7725,0.195556068527076,0.11407486919635
9.79,0.196362531341484,0.101205006540201
9.8075,0.195066028794181,0.0906191444891244
9.825,0.194656685300853,0.0804661341569727
9.8425,0.193403033859953,0.0702508613612821
9.86,0.192230300084278,0.0595582982439164
9.8775,0.189274599924753,0.0482975508509625
9.895,0.184805750141397,0.0373716476450346
9.9125,0.178755885775748,0.0284934797816217
9.93,0.174602733467159,0.0202676857519966
9.9475,0.169302157058583,0.0104840610593116
9.965,0.162862812413842,0.000521656809295425
9.9825,0.153387805978553,-0.0092440615834786
10,0.142685199670836,-0.0166235222058527
