"Freq [GHz]","re(S(Antenna1_1_1,Antenna1_1_1)) []","im(S(Antenna1_1_1,Antenna1_1_1)) []"
3,-0.197503217790393,-0.165495734930326
3.0175,-0.203578350626113,-0.147180411661993
3.035,-0.206649341737577,-0.135425919077135
3.0525,-0.216183879653528,-0.122996150718154
3.07,-0.222979139691973,-0.104921052893774
3.0875,-0.225650731067216,-0.0865866501283111
3.105,-0.225217525545493,-0.0713051103226729
3.1225,-0.228255960531642,-0.0568117677969398
3.14,-0.228372638531517,-0.0379773713668418
3.1575,-0.224675056667442,-0.02137405582433
3.175,-0.220416531382547,-0.0071023997653757
3.1925,-0.218247288332567,0.008021987508697
3.21,-0.209806947764333,0.0261802766628935
3.2275,-0.199486179081898,0.034452095659907
3.245,-0.198509711651488,0.0452071857515647
3.2625,-0.191980931244122,0.0639054804584738
3.28,-0.176659956267695,0.0787170428424707
3.2975,-0.162630081817446,0.0836299978050073
3.315,-0.157534103826238,0.0911786119427836
3.3325,-0.146872262803174,0.106247008789347
3.35,-0.12812498581653,0.117042941897248
3.3675,-0.109401363668088,0.118253086422012
3.385,-0.0993004470775257,0.118957373009613
3.4025,-0.0865815182716052,0.124648504741757
3.42,-0.0711471433431445,0.127482230211061
3.4375,-0.0553977497260872,0.126491900844351
3.455,-0.0446412963220284,0.125646028205813
3.4725,-0.028932260759579,0.128212370185226
3.49,-0.0124282218207215,0.124630301204546
3.5075,0.0044043373605487,0.119955106696848
3.525,0.0176980861680739,0.109016119886772
3.5425,0.0259398382241429,0.102612638948134
3.56,0.0385500813032276,0.0983202383296442
3.5775,0.0551399611482105,0.0879835011522556
3.595,0.0629300890989724,0.0709970290545434
3.6125,0.067089703496613,0.0626912498445833
3.63,0.0767050353812797,0.052921488320455
3.6475,0.0846497481210567,0.0395695570521825
3.665,0.0889107106928196,0.0262476947472499
3.6825,0.0967201216688762,0.0139034036502759
3.7,0.0997258901929312,-0.00663809218204572
3.7175,0.0960305958820535,-0.0194807883893002
3.735,0.0975786842587256,-0.0312028756591986
3.7525,0.0993752930659017,-0.0458964542934919
3.77,0.0966838158626299,-0.0646621015319587
3.7875,0.0895061783901248,-0.0784076124555199
3.805,0.0829580991180687,-0.0915622173842459
3.8225,0.0766027448700634,-0.100679208646711
3.84,0.0738409816603762,-0.115408138481784
3.8575,0.0615583815181956,-0.130651250229082
3.875,0.0496986221353063,-0.13824505560233
3.8925,0.0427190378970333,-0.146577187434
3.91,0.0317489808462703,-0.162216107068277
3.9275,0.0109880374627426,-0.169322983928269
3.945,0.000120806829310799,-0.169165020222373
3.9625,-0.00829395169004431,-0.177185918789447
3.98,-0.023531729876502,-0.18747781443805
3.9975,-0.0454403690815682,-0.190750758382147
4.015,-0.0601628140911807,-0.185647733245408
4.0325,-0.070371256521359,-0.186361040961456
4.05,-0.0836800437035466,-0.188359384847087
4.0675,-0.100330869648123,-0.189903154507049
4.085,-0.117576146430618,-0.185406822280608
4.1025,-0.131507351237241,-0.181357350625202
4.12,-0.147348708526759,-0.175032537499821
4.1375,-0.159269614889726,-0.166865920703431
4.155,-0.170365942965065,-0.160762760250412
4.1725,-0.184270111503562,-0.155047532610485
4.19,-0.198066744004005,-0.14294475190246
4.2075,-0.205336791820315,-0.133102122486789
4.225,-0.217165548453167,-0.124930863528547
4.2425,-0.22765841306638,-0.113247888584886
4.26,-0.23803947588887,-0.0998788578015502
4.2775,-0.243588558345481,-0.086076983908592
4.295,-0.251881388209024,-0.0743058557910934
4.3125,-0.258069638686881,-0.0581803082900176
4.33,-0.261158521338705,-0.0419008523363655
4.3475,-0.257766720238056,-0.028220530216722
4.365,-0.260934964050581,-0.0227856329801522
4.3825,-0.27000229806843,-0.00849327022699181
4.4,-0.272636477120727,0.0126396900016782
4.4175,-0.264779503001044,0.0296668086176563
4.435,-0.262484604950116,0.0374968225653901
4.4525,-0.263302044955435,0.0520918292569779
4.47,-0.260381208146239,0.0674368212236535
4.4875,-0.253599884493216,0.0830223354158658
4.505,-0.245947152424207,0.0939791313521633
4.5225,-0.238066294160515,0.104406518453054
4.54,-0.233770368285458,0.111061985428831
4.5575,-0.230514843711741,0.125058485012871
4.575,-0.221692881535566,0.13658352564968
4.5925,-0.213978492324067,0.148598563166228
4.61,-0.202606165632411,0.159615155467137
4.6275,-0.189712079011317,0.168312587924902
4.645,-0.178538114609872,0.172147539000599
4.6625,-0.170238117196147,0.179924458988165
4.68,-0.157142736587064,0.185893134004152
4.6975,-0.146628627642744,0.189425075944509
4.715,-0.137250600565839,0.193396373984953
4.7325,-0.126403487856118,0.200728620073432
4.75,-0.110788850551468,0.202242844299079
4.7675,-0.103417566683456,0.202619901234773
4.785,-0.093315146489277,0.208660944747092
4.8025,-0.0781973610311192,0.213199949628443
4.82,-0.0601090826122895,0.210325982824483
4.8375,-0.0511920523805009,0.20198349206525
4.855,-0.0471371450980797,0.202236770993508
4.8725,-0.0353615167961133,0.206540859412945
4.89,-0.0188187260921593,0.203302034243687
4.9075,-0.00931405613174051,0.19491128224014
4.925,-0.0031666193619066,0.192249812310167
4.9425,0.00728419408863012,0.190902080166452
4.96,0.0193419172552632,0.186437210765209
4.9775,0.0293864294590577,0.179099987840144
4.995,0.0375906948548626,0.173282556739487
5.0125,0.0476856143661308,0.166393879216735
5.03,0.0559811545769055,0.157179494810859
5.0475,0.0615449423733529,0.147445502949656
5.065,0.0653781901185996,0.141491406022011
5.0825,0.0741045747937459,0.135306832151224
5.1,0.0809111244186856,0.124801363471745
5.1175,0.0856074755281929,0.114801901627713
5.135,0.0891205672871779,0.105491052903038
5.1525,0.0933742713283382,0.0960591369638158
5.17,0.0956952816203881,0.0866626416519518
5.1875,0.100670901748443,0.0779789714287456
5.205,0.104237071512554,0.064449937687402
5.2225,0.103038752493425,0.0513288014785642
5.24,0.0995509368994786,0.0421415199511276
5.2575,0.100100501345232,0.035186356115098
5.275,0.100645500600563,0.0245380830779234
5.2925,0.0996360655385072,0.0138728211872887
5.31,0.0962281641808538,0.00288056904486511
5.3275,0.0932070483065827,-0.00519522825737303
5.345,0.0911349832434454,-0.0153578519084889
5.3625,0.0873839596404344,-0.0260440021100674
5.38,0.0809180647200566,-0.0369607711673153
5.3975,0.074037553261197,-0.04433729628698
5.415,0.0683331309857697,-0.0532582885877799
5.4325,0.0597001756175566,-0.0614401352421256
5.45,0.0506213000569112,-0.0668435818844465
5.4675,0.0446097403067184,-0.0700530699301214
5.485,0.0404455800569024,-0.0776917028426569
5.5025,0.0320040788921373,-0.0864963351570727
5.52,0.0208610360802837,-0.0939696083492703
5.5375,0.0085162241096005,-0.0965782958323017
5.555,0.000835378214456122,-0.0987966637808556
5.5725,-0.00844779217449108,-0.103898763459936
5.59,-0.0200199205023677,-0.108272744183778
5.6075,-0.0342001184206019,-0.109635122626661
5.625,-0.045855402917742,-0.106851398833896
5.6425,-0.0546232628636086,-0.104016016366251
5.66,-0.0600238942628226,-0.104228600031048
5.6775,-0.0701901690347964,-0.109251879899408
5.695,-0.0855399319456867,-0.109788727589483
5.7125,-0.0998511170298132,-0.104973179161782
5.73,-0.109027970358,-0.0988881438719912
5.7475,-0.118814932191565,-0.0970683664788344
5.765,-0.132013366680691,-0.0921103277612316
5.7825,-0.143048516685145,-0.0837739694263394
5.8,-0.150200699715322,-0.0752688695533716
5.8175,-0.157744441315006,-0.0707734171578683
5.835,-0.168700836394793,-0.0637056789816766
5.8525,-0.177477585639472,-0.0538880529702676
5.87,-0.183268174250807,-0.0442700813669935
5.8875,-0.190446510275814,-0.0388265692688878
5.905,-0.202738538984353,-0.0279900175657854
5.9225,-0.208493841404343,-0.0124041737443432
5.94,-0.210700873677436,-0.000119119037126433
5.9575,-0.21364735178802,0.00947118982532704
5.975,-0.218888679597446,0.0206594320554481
5.9925,-0.222157587518806,0.0332288123079522
6.01,-0.225532220311265,0.04685638343953
6.0275,-0.225141518302147,0.0614312540007622
6.045,-0.223868683241859,0.0735265090280283
6.0625,-0.222842301689567,0.0843175865001774
6.08,-0.224649394157794,0.0966347127077963
6.0975,-0.223250408166116,0.113005524780055
6.115,-0.218273926684495,0.127815363489457
6.1325,-0.211423635907825,0.140294330489443
6.15,-0.206672987494508,0.150620545552846
6.1675,-0.20184617133848,0.163483041111836
6.185,-0.195063107832381,0.176176945005477
6.2025,-0.186352863692651,0.188442944518813
6.22,-0.1776956223834,0.198903733673835
6.2375,-0.167668451220203,0.210814782339541
6.255,-0.155249002158575,0.219479799351906
6.2725,-0.144551626810957,0.226517688546342
6.29,-0.135075124155736,0.233621645387913
6.3075,-0.124996301292128,0.243756189329655
6.325,-0.109767723227799,0.252968341903327
6.3425,-0.0933683642838673,0.257331726091787
6.36,-0.0803478566943586,0.258326067888556
6.3775,-0.0702523255072109,0.262958357680889
6.395,-0.0553749013533478,0.269300838981489
6.4125,-0.0377912726039966,0.271921299632555
6.43,-0.0209663345058665,0.270007655053866
6.4475,-0.00817801821571783,0.267529785862856
6.465,0.00511054961535817,0.266794164425836
6.4825,0.0191465604746387,0.265453175180461
6.5,0.0346070271337054,0.262613761705988
6.5175,0.0484570571530139,0.257183512210494
6.535,0.0626425237221921,0.252299387934715
6.5525,0.0769414024748551,0.244546037445096
6.57,0.0888687769725904,0.235802879786472
6.5875,0.0996458183026483,0.228180856899847
6.605,0.112809702951225,0.220528629316186
6.6225,0.125484694993068,0.20861902738492
6.64,0.135353696130412,0.19595897317865
6.6575,0.143421181102874,0.182392347470074
6.675,0.148994546173175,0.170003307810489
6.6925,0.154540191098379,0.159355928044162
6.71,0.162643586793827,0.149172268803903
6.7275,0.171378192366092,0.133597772808239
6.745,0.174055977189845,0.1165835411357
6.7625,0.174335115770058,0.103026281164197
6.78,0.176478107596852,0.0921796522373089
6.7975,0.181561417191342,0.0780415373365611
6.815,0.182849060697619,0.0600994030198632
6.8325,0.179671707319557,0.0427210273395727
6.85,0.173729154507892,0.0290791937109874
6.8675,0.169855906786962,0.0176581947992466
6.885,0.166087961597563,0.00538917901576952
6.9025,0.161983285637811,-0.00736453480136018
6.92,0.155804076914951,-0.0201502829858151
6.9375,0.149395405968896,-0.0317615709618646
6.955,0.142058777724566,-0.0427514170274855
6.9725,0.1348664261194,-0.0534430991465988
6.99,0.125616768599978,-0.064829337476422
7.0075,0.115168815613724,-0.0745418902782591
7.025,0.10335744374086,-0.0836022103534677
7.0425,0.0907080945452222,-0.090449421610099
7.06,0.0774480363240219,-0.0953407679091834
7.0775,0.0660901369572321,-0.0970633923222555
7.095,0.0579025738260477,-0.100051971270519
7.1125,0.0490707163041339,-0.106044525427334
7.13,0.0359495431762505,-0.112403393828607
7.1475,0.0210771072871373,-0.113942362849021
7.165,0.0094216305458928,-0.113077089828977
7.1825,-0.00018968351307885,-0.114381456617091
7.2,-0.0136411088423512,-0.117755494362834
7.2175,-0.0302934540643441,-0.115423288630105
7.235,-0.0425118323444095,-0.109192991036165
7.2525,-0.0518968430988132,-0.10407573861959
7.27,-0.0604984186486158,-0.10019175630751
7.2875,-0.069848817749152,-0.0969502497414793
7.305,-0.0796826569381235,-0.093032756377451
7.3225,-0.0897547346892059,-0.0881595907686166
7.34,-0.0989509559823853,-0.082534579082509
7.3575,-0.109035740194724,-0.0769149336582372
7.375,-0.118594431649335,-0.0682767859441326
7.3925,-0.125700766887409,-0.0605368255796223
7.41,-0.13337655534089,-0.0531239610077168
7.4275,-0.141438329986028,-0.0442853038078337
7.445,-0.147409366830904,-0.0327110027153081
7.4625,-0.149384541362268,-0.0226895645467478
7.48,-0.151487024744991,-0.015754667323114
7.4975,-0.155906684406468,-0.0100134402978065
7.515,-0.162389012545697,-0.00189185149038121
7.5325,-0.167737789218218,0.00904344663882449
7.55,-0.16964570835984,0.0215198582656137
7.5675,-0.168878945006679,0.0305225839166073
7.585,-0.171044352166726,0.0380786480076763
7.6025,-0.174229134609736,0.0479195505420889
7.62,-0.175801550359827,0.060993262959496
7.6375,-0.172085772805596,0.0734405921683338
7.655,-0.167736685022672,0.0814308454616468
7.6725,-0.165883126955761,0.0878511480028262
7.69,-0.165702378613832,0.0963792107701602
7.7075,-0.163167078617688,0.105901539696582
7.725,-0.160656722016449,0.114287790873303
7.7425,-0.157863423703015,0.12348090482044
7.76,-0.153957633988011,0.133302332902573
7.7775,-0.147385774516475,0.141807075111005
7.795,-0.142630448260067,0.147589346044515
7.8125,-0.139351248864172,0.155801631598179
7.83,-0.133327569407024,0.166699688870131
7.8475,-0.121790694016767,0.174963028378705
7.865,-0.112600468620722,0.176207451038318
7.8825,-0.108824446603619,0.179158850430682
7.9,-0.104836146277017,0.185759534639729
7.9175,-0.0973499607845164,0.193907663105263
7.935,-0.0877577432007891,0.19924383146196
7.9525,-0.0782639700204035,0.203330204342395
7.97,-0.0694184752416506,0.205143389878411
7.9875,-0.0627239444496356,0.208187032915742
8.005,-0.0544574980730984,0.212883310997593
8.0225,-0.0427364754119963,0.217035935030701
8.04,-0.0304633280338569,0.215594856600456
8.0575,-0.022582135834325,0.214066455704127
8.075,-0.0141505280230794,0.213719364317281
8.0925,-0.00588911388813494,0.213199504451687
8.11,0.00252435686961111,0.212096239645258
8.1275,0.0106682783174547,0.212031100999494
8.145,0.0213677313819109,0.210620081086409
8.1625,0.0308404476338925,0.206903095328173
8.18,0.039310756665997,0.202194182366539
8.1975,0.0456771621881831,0.198601987085219
8.215,0.0546671108857723,0.196163134754569
8.2325,0.0649209030705329,0.190775508396672
8.25,0.0736529498045975,0.181471098580957
8.2675,0.076745506471122,0.172746196410193
8.285,0.081258172359197,0.167755769716677
8.3025,0.0867716842078252,0.16156704672133
8.32,0.0929150388275101,0.1545192412727
8.3375,0.0971655391137186,0.145655136883882
8.355,0.100795362129335,0.137951626546257
8.3725,0.10381039287792,0.129290611972812
8.39,0.106472465728987,0.121472197390229
8.4075,0.109104598296831,0.112510599702694
8.425,0.11117532895063,0.10319529364256
8.4425,0.111706434847399,0.0921967139007089
8.46,0.10967959413431,0.082213236385438
8.4775,0.106734668644534,0.0737264022142222
8.495,0.104609956361076,0.0664496073990666
8.5125,0.101772302705389,0.0580572804530646
8.53,0.0985604672129218,0.0515235752867402
8.5475,0.096127927277163,0.0433536504132136
8.565,0.0914071559703961,0.0353564907334779
8.5825,0.0858969691984908,0.0281223933711863
8.6,0.0803238465891182,0.0228434615790525
8.6175,0.0764262317868371,0.0160985897220484
8.635,0.0699364616232602,0.00774933672394631
8.6525,0.0599142776688316,0.000128977465427709
8.67,0.0478649758744071,-0.00180682534069697
8.6875,0.0413238824106478,-0.00140246173132415
8.705,0.0355134231670111,-0.00474051670277421
8.7225,0.0257410209339694,-0.00870484724260672
8.74,0.0147625000299035,-0.00744707205746444
8.7575,0.00875471599965333,-0.00590387634728701
8.775,0.00118203370045882,-0.00728891786524666
8.7925,-0.00793324725547011,-0.00709337166128319
8.81,-0.017010025160314,-0.00537680880359727
8.8275,-0.0251382332787873,-0.00419193449456142
8.845,-0.0370194506914032,-0.00216479635316551
8.8625,-0.0472037018541449,0.00543080563819053
8.88,-0.0539216450009567,0.0126784712601194
8.8975,-0.059336913278229,0.019397204383442
8.915,-0.0651483755361093,0.024844235003068
8.9325,-0.0711597386346565,0.0320337336972138
8.95,-0.0758862472962445,0.0388770423086354
8.9675,-0.0809910462642438,0.0459758016188563
8.985,-0.0861830242969091,0.0539002701314962
9.0025,-0.0897364383290628,0.0633770708800538
9.02,-0.0925796222605603,0.0706689638776579
9.0375,-0.09803929831613,0.0799252784946258
9.055,-0.101485029860875,0.0927249329916286
9.0725,-0.100197288428447,0.107032802433882
9.09,-0.0949143467401052,0.116194683301121
9.1075,-0.0939357456822837,0.122673099934692
9.125,-0.0938377104664824,0.131940482988632
9.1425,-0.0920018709093455,0.142879889236345
9.16,-0.0867694108398088,0.152697411499844
9.1775,-0.0828803213199476,0.160438053144752
9.195,-0.0784350167006929,0.169675089238963
9.2125,-0.073051203840597,0.177895262089453
9.23,-0.0678862189544098,0.186262929308595
9.2475,-0.0618894830921708,0.196160717134431
9.265,-0.0518107072971223,0.205588997061119
9.2825,-0.0410766414207482,0.211070099183372
9.3,-0.0315648089226911,0.214826447551817
9.3175,-0.0242618384676704,0.218610598732499
9.335,-0.015618290212404,0.224341106306522
9.3525,-0.00606457917759628,0.228681224795461
9.37,0.00491233711790107,0.233371365599573
9.3875,0.0167124107065427,0.234673107271342
9.405,0.0266406751967782,0.235545532819011
9.4225,0.0361256844197726,0.236266870069597
9.44,0.0461064668785613,0.238601784143697
9.4575,0.0588350267818741,0.239315122817729
9.475,0.0717127644601599,0.237622480061014
9.4925,0.0833700567554206,0.232817015114671
9.51,0.0916848893275132,0.228886596096766
9.5275,0.101292580951099,0.226413694466259
9.545,0.112235823993481,0.222958064094008
9.5625,0.123103990464016,0.216309150211611
9.58,0.130419524545188,0.210041769035994
9.5975,0.139056105204003,0.20443568609614
9.615,0.147086257845562,0.197774480084498
9.6325,0.155179603029873,0.190163266828844
9.65,0.161590337784937,0.182877789496966
9.6675,0.170470614613214,0.175087841225389
9.685,0.177166241167082,0.163599015053686
9.7025,0.181138811027211,0.152460851224316
9.72,0.18280161365627,0.143126472477475
9.7375,0.187218048862401,0.135887227714267
9.755,0.192151210949508,0.124931530956863
9.7725,0.194525939430076,0.11291676077135
9.79,0.194192139021484,0.101725859550201
9.8075,0.194944599673181,0.0925413671611244
9.825,0.195251422538853,0.0810596796989727
9.8425,0.193954352414953,0.0705637884172821
9.86,0.192182695564278,0.0597517520129164
9.8775,0.190279576134753,0.0492110490629625
9.895,0.186031109006397,0.0364907941170346
9.9125,0.178809825595748,0.0275571125016217
9.93,0.174147210547159,0.0198419734808266
9.9475,0.169832861848583,0.0102721705965116
9.965,0.161922080897842,-0.00140600444930457
9.9825,0.150735347248553,-0.0082622436972786
10,0.142731634640836,-0.0137916907078527
