"Freq [GHz]","re(S(Antenna1_1_1,Antenna1_1_1)) []","im(S(Antenna1_1_1,Antenna1_1_1)) []"
3,-0.193548906027393,-0.162062162753926
3.0175,-0.200367810071113,-0.150804582937693
3.035,-0.209956272614577,-0.137535472245135
3.0525,-0.217351369071528,-0.120293265382154
3.07,-0.220657363799973,-0.103673833562774
3.0875,-0.223790962727216,-0.0890855469903111
3.105,-0.227856218974493,-0.0733278289606729
3.1225,-0.229748071517942,-0.0547614981539398
3.14,-0.227478459731617,-0.0373130336808418
3.1575,-0.224905850956642,-0.02123225373933
3.175,-0.219633482178947,-0.0057855173143757
3.1925,-0.215592220429567,0.006769686645697
3.21,-0.211558027497643,0.0220147580448935
3.2275,-0.205053737604898,0.036723321094907
3.245,-0.195979317344488,0.0517549680035647
3.2625,-0.184694332193122,0.0614904405844738
3.28,-0.179151046760695,0.0706918669954707
3.2975,-0.171204257478446,0.0869436008770073
3.315,-0.153062264376238,0.0997872796250836
3.3325,-0.138471906329174,0.101446094418347
3.35,-0.13214603555653,0.108460882289248
3.3675,-0.117960572492088,0.121484266188012
3.385,-0.0962615245135257,0.125710354946613
3.4025,-0.0833882764306052,0.121768140304757
3.42,-0.0738007561771445,0.127473607642261
3.4375,-0.0540515115630872,0.129603669166451
3.455,-0.0408666793470284,0.124036536405013
3.4725,-0.030823037619579,0.125160953465226
3.49,-0.0127566746737215,0.126417105672546
3.5075,0.0053446259625487,0.117301412594848
3.525,0.0134134855810739,0.108698574524772
3.5425,0.0253892905711429,0.107689046674134
3.56,0.0444437236915276,0.0991070931596442
3.5775,0.0556672572616205,0.0818305891502556
3.595,0.0577881515399724,0.0701884969685434
3.6125,0.064806079686613,0.0662829440105833
3.63,0.0792402366329797,0.056488807110455
3.6475,0.0878699435224567,0.0378226303411825
3.665,0.0879884807345196,0.0241119308922499
3.6825,0.0946250917308762,0.0146608476702759
3.7,0.100961211487931,-0.00344249584504572
3.7175,0.100459153544053,-0.0201321879283002
3.735,0.0996285723477256,-0.0364278312371986
3.7525,0.0944363424809017,-0.0511170723494919
3.77,0.0901595276766299,-0.0621806418979587
3.7875,0.0878830421001248,-0.0726190973165199
3.805,0.0872842417060687,-0.0872757742622459
3.8225,0.0796742130710634,-0.103546631950711
3.84,0.0719494294503762,-0.114841930201784
3.8575,0.0646011417281956,-0.128197151798882
3.875,0.0542524695953063,-0.14083953731763
3.8925,0.0425099653870333,-0.1523511558083
3.91,0.0273915398662703,-0.164284611103277
3.9275,0.00811238579774257,-0.168100199442269
3.945,-0.0007517798276892,-0.167390275091163
3.9625,-0.00872098508004431,-0.176991171961447
3.98,-0.026223304194502,-0.18555414809805
3.9975,-0.0440756412735682,-0.185009083109147
4.015,-0.0531373571111807,-0.184608516193408
4.0325,-0.066713459656359,-0.192390404332456
4.05,-0.0873174624005466,-0.193002947967087
4.0675,-0.103679094152523,-0.188659258267049
4.085,-0.117829776859618,-0.184725394140608
4.1025,-0.133071750878241,-0.180555321785202
4.12,-0.146706412944759,-0.172767055237821
4.1375,-0.157237514232726,-0.167130735903431
4.155,-0.170870302377065,-0.162858526345412
4.1725,-0.186991269536562,-0.153359497939485
4.19,-0.195107626296005,-0.13957408614046
4.2075,-0.201300304599315,-0.136219032289789
4.225,-0.219449097573167,-0.130265372093547
4.2425,-0.23457549291638,-0.111482355014886
4.26,-0.23609626445887,-0.0925965628715502
4.2775,-0.237759516494481,-0.087914135733592
4.295,-0.253084233159024,-0.0779187419670934
4.3125,-0.259555998806881,-0.0568827937150176
4.33,-0.258586973898705,-0.0427243107293655
4.3475,-0.260745386172056,-0.032048457696722
4.365,-0.265106503413581,-0.0191061218960522
4.3825,-0.26721180450843,-0.00430932757999181
4.4,-0.268581105080727,0.0106624653226782
4.4175,-0.266935973499044,0.0267441075476563
4.435,-0.263365231346116,0.0398791150153901
4.4525,-0.261395307078435,0.0515602323519779
4.47,-0.260904016506239,0.0661726901236535
4.4875,-0.254481693490215,0.0830058332758658
4.505,-0.246003231628607,0.0942454526021633
4.5225,-0.238914497561515,0.104120466113054
4.54,-0.234338914269458,0.112496530169831
4.5575,-0.230065474399741,0.126230272912871
4.575,-0.219504069889566,0.13809161343168
4.5925,-0.210747070984067,0.146253532981228
4.61,-0.203282274195411,0.155182083502137
4.6275,-0.194847292019317,0.166479050014902
4.645,-0.181904493851872,0.176973723056599
4.6625,-0.166944286361147,0.183188578133165
4.68,-0.155012507987064,0.184312351333152
4.6975,-0.147607055352744,0.188777665046509
4.715,-0.136493876775839,0.194808148482153
4.7325,-0.124728665286118,0.199073313898432
4.75,-0.112792929441468,0.201210217298609
4.7675,-0.103390089621455,0.204998536819673
4.785,-0.089678647734277,0.207935378437692
4.8025,-0.0789303318911192,0.208026852915443
4.82,-0.0660157939922895,0.210429498976483
4.8375,-0.0516329077105009,0.20774725404525
4.855,-0.0417716014270797,0.202189310078508
4.8725,-0.0366863737381133,0.201380479237945
4.89,-0.0240930911951593,0.205369310026687
4.9075,-0.00778581985274051,0.20018557288214
4.925,0.0010928358290934,0.191958067780167
4.9425,0.00774411107063012,0.188976193300452
4.96,0.0198465077262632,0.186481283627209
4.9775,0.0311998606460577,0.177983295222144
4.995,0.0381470829070626,0.169397019763487
5.0125,0.0432592542421308,0.163334261059735
5.03,0.0513245514852055,0.159614616992859
5.0475,0.0608542575893529,0.151937353874657
5.065,0.0680461862185996,0.143850795333011
5.0825,0.0756658180187459,0.135078651508224
5.1,0.0819394278046856,0.125064901479745
5.1175,0.0867991184571929,0.114765448105713
5.135,0.0909517033461779,0.105027547386038
5.1525,0.0950303971893382,0.0940796315998158
5.17,0.0960834692593881,0.0826541781959518
5.1875,0.0959348666004432,0.0744551157938456
5.205,0.0990348866135545,0.067194004045402
5.2225,0.102370406329425,0.0560172225435642
5.24,0.102197940186479,0.0447332138241276
5.2575,0.101700130359232,0.034846610096098
5.275,0.101302474819563,0.0253002865139234
5.2925,0.101622749178507,0.0145121557252887
5.31,0.0994081525258538,0.00173923850686511
5.3275,0.0941473770655827,-0.00957025538237303
5.345,0.0882570332794455,-0.0181746490354889
5.3625,0.0842380157364344,-0.0258624719690674
5.38,0.0797853617780566,-0.0355789061093153
5.3975,0.072721019162197,-0.04429944736298
5.415,0.0659007406607697,-0.0507098172117799
5.4325,0.0606333598055566,-0.0569468525471256
5.45,0.0554286445369112,-0.0645351418484465
5.4675,0.0491407913968184,-0.0731397329201215
5.485,0.0400976476939024,-0.0819762260986569
5.5025,0.0294783783021373,-0.0880057537300727
5.52,0.0197120286452837,-0.0926477380512703
5.5375,0.0104064433386005,-0.0972747966943017
5.555,-0.000860211766543878,-0.102676853578856
5.5725,-0.0142363031224911,-0.103790186943936
5.59,-0.0236029866573677,-0.102217647333778
5.6075,-0.0301672256486019,-0.102650527960661
5.625,-0.037955047990742,-0.107194695210896
5.6425,-0.0515716581656086,-0.109899328303251
5.66,-0.0629183513228226,-0.108502096576048
5.6775,-0.0733875641047964,-0.108672081670808
5.695,-0.0858255217156867,-0.108373069819482
5.7125,-0.0990062863808132,-0.105232474553782
5.73,-0.110520156515,-0.100786983270091
5.7475,-0.122230564155565,-0.0950165039118344
5.765,-0.131086924811691,-0.0878328068328316
5.7825,-0.138745648362146,-0.0825240780333394
5.8,-0.147570825052322,-0.0789135017963716
5.8175,-0.160154809136006,-0.0729534321638683
5.835,-0.169337887305793,-0.0624650986466766
5.8525,-0.176260161255472,-0.0546450781502676
5.87,-0.184839747133807,-0.0467469172249935
5.8875,-0.194138551022814,-0.0370181994588878
5.905,-0.201486416013953,-0.0242954579347854
5.9225,-0.205601499328443,-0.0124365594503432
5.94,-0.209720343591436,-0.00244557310512643
5.9575,-0.21568759308682,0.00823071914532704
5.975,-0.220288591802146,0.0219956238654481
5.9925,-0.222016361823806,0.0353874878399522
6.01,-0.222700291103265,0.04785758891353
6.0275,-0.223259182461147,0.0591655830957622
6.045,-0.224580811160859,0.0709557046230283
6.0625,-0.225680119818567,0.0840119272701774
6.08,-0.224575198228794,0.0991067241027963
6.0975,-0.220923129480116,0.112075766320055
6.115,-0.219231583254495,0.124516905909457
6.1325,-0.216197172977825,0.139986161261443
6.15,-0.209174766243508,0.155455789427746
6.1675,-0.19934114154448,0.168046233977836
6.185,-0.190117214530381,0.177137285206677
6.2025,-0.183150888545651,0.185659142084513
6.22,-0.1769477287034,0.196089397908835
6.2375,-0.167916305050203,0.207940670105541
6.255,-0.156988502416575,0.216742130764906
6.2725,-0.148734388114957,0.224879668788342
6.29,-0.139389734615736,0.236773663948913
6.3075,-0.124393674162128,0.247985491475655
6.325,-0.107872832041799,0.254034506623327
6.3425,-0.0932848514898673,0.257782614561787
6.36,-0.0795074212853586,0.261061045357556
6.3775,-0.065642772450211,0.264016311346889
6.395,-0.0516893016683478,0.265717776541489
6.4125,-0.0381725090109966,0.267259528482555
6.43,-0.0237738796448665,0.267568251743866
6.4475,-0.0110788597757178,0.266954074922856
6.465,0.00236187420935817,0.267961468305836
6.4825,0.0182384007362387,0.267662522490461
6.5,0.0348440012307054,0.264161589765988
6.5175,0.0490082026140139,0.257659675830494
6.535,0.0615314766031922,0.252801283564715
6.5525,0.0769045561278551,0.247989840565096
6.57,0.0930370859365904,0.238057460284472
6.5875,0.104009338486648,0.225819844642847
6.605,0.113503869031225,0.216244098841186
6.6225,0.123804841453068,0.20593945364392
6.64,0.133138973180412,0.19444637809665
6.6575,0.140659531892874,0.182331961586374
6.675,0.146979423089175,0.171326950783289
6.6925,0.153459868155379,0.161134722172062
6.71,0.162058898733827,0.151115894907003
6.7275,0.171666633776092,0.136510095955839
6.745,0.176814228649845,0.1192063513017
6.7625,0.178786350999058,0.103224180943197
6.78,0.180174624152852,0.0886174460393089
6.7975,0.181275254451342,0.0730556440695611
6.815,0.179599234600619,0.0569451891998632
6.8325,0.175426413538557,0.0427211352895727
6.85,0.171197039840592,0.0314419902009874
6.8675,0.169294876035962,0.0207123454092466
6.885,0.167907303922863,0.00730112978576952
6.9025,0.162875662003084,-0.00763497358136018
6.92,0.155842526836951,-0.0191609989458151
6.9375,0.151137034261396,-0.0305210960418646
6.955,0.144697186246566,-0.0434822585974855
6.9725,0.1358905151814,-0.0560027527765988
6.99,0.124641929241978,-0.067133920906422
7.0075,0.112761055467724,-0.0752937865782591
7.025,0.10185238957086,-0.0821402558534677
7.0425,0.0910244356052222,-0.0890523425150991
7.06,0.0786164498840219,-0.0951360484751834
7.0775,0.0662769704672321,-0.0983191320922555
7.095,0.0562740109260477,-0.100536443105619
7.1125,0.0474270727041339,-0.104075615605934
7.13,0.0377645697822505,-0.109126557882607
7.1475,0.0255343959011374,-0.114826960205721
7.165,0.0099723321258928,-0.117564694949977
7.1825,-0.00350145001307885,-0.116088972387091
7.2,-0.0155138797823512,-0.116304946378834
7.2175,-0.0305421901143441,-0.114449932406105
7.235,-0.0429612830744095,-0.108187813337165
7.2525,-0.0512762181588132,-0.10247719025959
7.27,-0.0587477815446158,-0.09979621354751
7.2875,-0.068669400918152,-0.0976708736314793
7.305,-0.0788047075241235,-0.094006031497451
7.3225,-0.0894820540932059,-0.0901502164986166
7.34,-0.100732686022785,-0.084086037872509
7.3575,-0.110481933118224,-0.0766656151982372
7.375,-0.120076011504135,-0.0688243200541326
7.3925,-0.128957915404409,-0.0589402889696223
7.41,-0.13400780073989,-0.0482490653877168
7.4275,-0.137016723455028,-0.0403374498178337
7.445,-0.141345800458904,-0.0348240478153081
7.4625,-0.148560518857268,-0.0284191539527478
7.48,-0.155191763771991,-0.018466843595114
7.4975,-0.158484211376468,-0.00832918872580649
7.515,-0.161598794365697,-0.000710676922381211
7.5325,-0.167389977648218,0.0079880498838245
7.55,-0.17124277710084,0.0205024797916137
7.5675,-0.171234680816679,0.0317274224936073
7.585,-0.171694768066726,0.0409392362374763
7.6025,-0.172222964359736,0.0509776328269889
7.62,-0.171561499290827,0.060495007859196
7.6375,-0.171387744605596,0.0700474125789338
7.655,-0.169371854282672,0.0803680063146468
7.6725,-0.166558609215761,0.0885521081098262
7.69,-0.164671674693832,0.0965011668331602
7.7075,-0.163063894947688,0.104405041388582
7.725,-0.161638116969449,0.113580186873303
7.7425,-0.158817155124015,0.12318906005044
7.76,-0.155109380441011,0.133056004792573
7.7775,-0.149871739361475,0.142341112661005
7.795,-0.144394651121067,0.151553475404515
7.8125,-0.136016168624972,0.160518549027179
7.83,-0.127014763468024,0.165542901670131
7.8475,-0.121174976940767,0.169384197142705
7.865,-0.115944163635722,0.175363741088318
7.8825,-0.108751913765619,0.180938525570682
7.9,-0.102660357798017,0.184874444069729
7.9175,-0.0978933507125164,0.190412441225263
7.935,-0.0913209296797891,0.19812046311096
7.9525,-0.0814174273734035,0.204844729546395
7.97,-0.0708486677956506,0.209067247621411
7.9875,-0.0601416458396356,0.211667425591742
8.005,-0.0505988450630984,0.212730739719593
8.0225,-0.0413300491519963,0.214079987573101
8.04,-0.0321825314638569,0.214266445876456
8.0575,-0.023248858614325,0.215194288734127
8.075,-0.0127409722930794,0.214326606913381
8.0925,-0.00490178078813494,0.211583547414187
8.11,0.00179040479961111,0.211227458740958
8.1275,0.0108589816674547,0.211323628785494
8.145,0.0204883808819109,0.208838888237409
8.1625,0.0277817508538925,0.205806018473173
8.18,0.035562734443997,0.205386209103539
8.1975,0.0476160752521831,0.203332054952219
8.215,0.0580226422717723,0.195854358704569
8.2325,0.0648496258195329,0.189672893356672
8.25,0.0736487823485975,0.183312276940957
8.2675,0.080538263789522,0.173679521987193
8.285,0.084375940418897,0.164183886017677
8.3025,0.0859828571038252,0.15690395712433
8.32,0.0890743509862101,0.1519658055927
8.3375,0.0931475282557186,0.146251801493882
8.355,0.0977787473461348,0.140719209876257
8.3725,0.10370958060392,0.133741349752812
8.39,0.109512543117987,0.124110408460229
8.4075,0.112440004377831,0.111928663192694
8.425,0.11179762765563,0.10117668035756
8.4425,0.111666206447399,0.0922962849697089
8.46,0.11138079996431,0.081380515053438
8.4775,0.106638234082534,0.0710173643274222
8.495,0.102247018754076,0.0653432008480666
8.5125,0.100513956943389,0.0590062734100646
8.53,0.0980176747839218,0.0515505302847402
8.5475,0.094534300947163,0.0443628770532136
8.565,0.0915111073903961,0.0379365927570779
8.5825,0.0885963302084908,0.0294119712631863
8.6,0.0823355374091182,0.0206451814770525
8.6175,0.0750020503968371,0.0141139054070484
8.635,0.0678160168732602,0.00854011961794631
8.6525,0.0605059904378316,0.00302662853842771
8.67,0.0515086032854071,-0.00237783319069697
8.6875,0.0411997447406478,-0.00494708958132415
8.705,0.0329411958140111,-0.00552072970577421
8.7225,0.0244189203459694,-0.00717750219260672
8.74,0.0153619903719035,-0.00635418013646444
8.7575,0.00925541951065332,-0.00560181380528701
8.775,0.00226383577845882,-0.00735516566524666
8.7925,-0.00765189534247011,-0.00864370154128319
8.81,-0.018774846870514,-0.00623074865359727
8.8275,-0.0266118485097873,-0.00235550161456142
8.845,-0.0354568242834032,-0.000518452093165506
8.8625,-0.0458833638171449,0.00466708875819053
8.88,-0.0537541368189567,0.0117358661191194
8.8975,-0.060140903203229,0.018824910763442
8.915,-0.0655252275941093,0.025541704267068
8.9325,-0.0708677772946565,0.0322510656452138
8.95,-0.0753610908662445,0.0392962429276354
8.9675,-0.0797924588802438,0.0451624486578563
8.985,-0.0864369270909091,0.0520129420734962
9.0025,-0.0920969779240628,0.0622432077690538
9.02,-0.0949472394855603,0.0729217771275679
9.0375,-0.09679028458613,0.0826070639346258
9.055,-0.0992159730608753,0.0929707576096286
9.0725,-0.0988980481084466,0.105346425283882
9.09,-0.0960221791941052,0.114658662754121
9.1075,-0.0954980747032837,0.123151837572692
9.125,-0.0939080796254824,0.133930584919632
9.1425,-0.0896243672053455,0.143313320747345
9.16,-0.0859290845188088,0.150680413567844
9.1775,-0.0837851144459476,0.158997162779752
9.195,-0.0802921616086929,0.169540825075963
9.2125,-0.073581256113597,0.179526784375453
9.23,-0.0668160640824098,0.186850060345595
9.2475,-0.0610273673301708,0.195232127024431
9.265,-0.0529726405319223,0.204140053981119
9.2825,-0.0430727956997482,0.211804187423372
9.3,-0.0325353252786911,0.216858348841817
9.3175,-0.0231830859676704,0.221601597953499
9.335,-0.011927664190404,0.225396630821522
9.3525,-0.00255143049259628,0.226150372422461
9.37,0.00452598897690107,0.228845506878573
9.3875,0.0135697514045427,0.233257149326342
9.405,0.0247573001717782,0.236072667097011
9.4225,0.0350285319287726,0.237015793877597
9.44,0.0450023397615613,0.239358236308697
9.4575,0.058328685602874,0.241165366320729
9.475,0.0721001552201599,0.238624259311014
9.4925,0.0832879793854206,0.234913283120171
9.51,0.0947145563675132,0.231192098950266
9.5275,0.105680631085099,0.225182850420259
9.545,0.113959366533481,0.218076713544008
9.5625,0.119915541284016,0.213017919586611
9.58,0.127887162370188,0.210551622503994
9.5975,0.138335836461003,0.20523098919814
9.615,0.146526289417562,0.197536517748498
9.6325,0.153524488729873,0.191091556258844
9.65,0.161987820432937,0.184329545691966
9.6675,0.170173798384214,0.175259655976389
9.685,0.176626616259082,0.165281995903686
9.7025,0.182490225967211,0.155303782443316
9.72,0.18785203909227,0.143434498247475
9.7375,0.189276257401701,0.130885775945267
9.755,0.189458356805508,0.122014796164863
9.7725,0.192140594030076,0.11337027836035
9.79,0.194391954648484,0.102436744254201
9.8075,0.194206040472181,0.0910821922901244
9.825,0.192791126895853,0.0815356039129727
9.8425,0.192764671049953,0.0727326388872821
9.86,0.192976731441278,0.0618390588599164
9.8775,0.190907638616753,0.0500192690929625
9.895,0.187503704549397,0.0387542757880346
9.9125,0.183139181317748,0.0273306462066217
9.93,0.176558955727159,0.0153629893716966
9.9475,0.166504236518583,0.00610777600231163
9.965,0.158689135917842,0.000585317305295425
9.9825,0.152095315578553,-0.0077129278762786
10,0.141485252880836,-0.0157831351518527
