"Freq [GHz]","re(S(Tx_p1,Tx_p1)) []","im(S(Tx_p1,Tx_p1)) []"
3,0.7469685858,-0.05994018088
3.014,0.6772878392,-0.2533048827
3.028,0.5474732799,-0.400971655
3.042,0.3824654832,-0.4847656395
3.056,0.2117090271,-0.4988736131
3.07,0.06341397409,-0.4502698454
3.084,-0.04067488106,-0.3566246069
3.098,-0.08896183801,-0.2422241382
3.112,-0.08146097337,-0.1328272495
3.126,-0.02885270875,-0.05056738063
3.14,0.05052831491,-0.009947668938
3.154,0.1350161418,-0.01568997755
3.168,0.2042514093,-0.06275848156
3.182,0.2431312729,-0.1383901191
3.196,0.2442831815,-0.2255378969
3.21,0.2086528574,-0.3068629413
3.224,0.1442463557,-0.3683505033
3.238,0.06348018819,-0.4017789193
3.252,-0.0201220156,-0.4055930072
3.266,-0.09505362282,-0.384140564
3.28,-0.1540453816,-0.3456221974
3.294,-0.1949325481,-0.2993890544
3.308,-0.2200878044,-0.2533362323
3.322,-0.2347074551,-0.2120628798
3.336,-0.2445168816,-0.1762270196
3.35,-0.2535817174,-0.1431826893
3.364,-0.2628498738,-0.1086369334
3.378,-0.2698267292,-0.06879430387
3.392,-0.269462461,-0.02233334938
3.406,-0.2559912442,0.0283887234
3.42,-0.2251924935,0.07729511454
3.434,-0.1764143564,0.1157853989
3.448,-0.1137449447,0.1348987486
3.462,-0.04592623409,0.1278971417
3.476,0.01507316807,0.09258036723
3.49,0.05655675527,0.03267864604
3.504,0.06810386013,-0.04212779457
3.518,0.04434773805,-0.1176856188
3.532,-0.01318940404,-0.1780938219
3.546,-0.09572902066,-0.2091034496
3.56,-0.1885299071,-0.2014201868
3.574,-0.2736460413,-0.1531211566
3.588,-0.3335931253,-0.0705688953
3.602,-0.3551293314,0.0324697982
3.616,-0.3322944479,0.1373873499
3.63,-0.2679899951,0.2244753788
3.644,-0.1736921548,0.2770491002
3.658,-0.06730080749,0.2850538758
3.672,0.03045305237,0.2473447293
3.686,0.1002873726,0.1721084754
3.7,0.1284153641,0.07530146057
3.714,0.1094747977,-0.0225857639
3.728,0.04769432639,-0.100752069
3.742,-0.04396499636,-0.142390489
3.756,-0.1465106992,-0.138146482
3.77,-0.2388771258,-0.08798824855
3.784,-0.3022830551,-0.001097276111
3.798,-0.3240497847,0.1061779861
3.812,-0.300067551,0.213840194
3.826,-0.2354040679,0.3024525977
3.84,-0.1429630958,0.3571218412
3.854,-0.04052800584,0.3704039265
3.868,0.0531296529,0.3435373128
3.882,0.1222096627,0.2857881834
3.896,0.1570535383,0.2121119534
3.91,0.1558681206,0.1396979413
3.924,0.1246849322,0.08419019772
3.938,0.07563744034,0.05641951371
3.952,0.02400560428,0.06033634215
3.966,-0.01526894285,0.09254110844
3.98,-0.03080675509,0.1434367549
3.994,-0.01705742127,0.1996662769
4.008,0.0248390527,0.2472272241
4.022,0.08770681643,0.2745344612
4.036,0.1602678801,0.2747532274
4.05,0.2298424716,0.2469276522
4.064,0.2851592425,0.1957308354
4.078,0.3186325282,0.1299882434
4.092,0.3276266973,0.06039951427
4.106,0.3144933676,-0.002957636135
4.12,0.2854684692,-0.05274452858
4.134,0.2487801463,-0.08563212764
4.148,0.2124835256,-0.102490913
4.162,0.182570772,-0.1075429068
4.176,0.1618011386,-0.1067708066
4.19,0.149488433,-0.1060446767
4.204,0.1422278131,-0.1094699846
4.218,0.1353048589,-0.1183753549
4.232,0.1243671821,-0.1311714175
4.246,0.1068890255,-0.1440741749
4.26,0.08303161615,-0.1524577474
4.274,0.05567510523,-0.1524409215
4.288,0.02962444546,-0.1422574482
4.302,0.01021391506,-0.1230236961
4.316,0.001695928837,-0.0986813868
4.33,0.005858627881,-0.07511337884
4.344,0.02126095724,-0.05865108928
4.358,0.04331694103,-0.05435731784
4.372,0.06524299661,-0.06453619975
4.386,0.07965746554,-0.08787480318
4.4,0.08044775254,-0.1194700892
4.414,0.06444044847,-0.1517781465
4.428,0.03244377277,-0.1762924011
4.442,-0.01062733546,-0.1855702696
4.456,-0.05661810474,-0.1751293587
4.47,-0.09582967919,-0.144750239
4.484,-0.1191771511,-0.09885055136
4.498,-0.1203239186,-0.04580478567
4.512,-0.09729866337,0.003673599284
4.526,-0.0532084161,0.03875182118
4.54,0.004141090957,0.05081862688
4.554,0.06366335992,0.03542903672
4.568,0.1131591281,-0.006583676284
4.582,0.1417766087,-0.06908526427
4.596,0.142238954,-0.1417259869
4.61,0.1123630816,-0.211912295
4.624,0.05554721664,-0.2672516652
4.638,-0.01987283748,-0.2979576991
4.652,-0.1022562928,-0.2987159234
4.666,-0.1789287351,-0.2696319018
4.68,-0.2386138147,-0.2160842099
4.694,-0.2735247385,-0.1475387438
4.708,-0.2807000605,-0.07559614528
4.722,-0.2623391308,-0.01169493948
4.736,-0.2251093732,0.03505113826
4.75,-0.1786120859,0.05945105499
4.764,-0.1333587306,0.06097644121
4.778,-0.09869231481,0.04354285712
4.792,-0.08107498291,0.01443502224
4.806,-0.08306151785,-0.01735137261
4.82,-0.1031161155,-0.04297633009
4.834,-0.136244288,-0.0554391096
4.848,-0.1752449059,-0.05075491943
4.862,-0.2122746144,-0.02843320881
4.876,-0.2403794496,0.008771770067
4.89,-0.2546878215,0.05571322061
4.904,-0.2530602552,0.1060681039
4.918,-0.2361275376,0.153627057
4.932,-0.2067867076,0.1933845679
4.946,-0.1693323503,0.2222313078
4.96,-0.1284578581,0.2391621953
4.974,-0.0883583493,0.2450321679
4.988,-0.05211153639,0.2419886916
5.002,-0.0214229711,0.2327649824
5.016,0.003277208556,0.2200227092
5.03,0.0224827146,0.2058903668
5.044,0.03715026524,0.1917698829
5.058,0.04827971666,0.1784003302
5.072,0.05664911877,0.1660976934
5.086,0.06275560957,0.1550500402
5.1,0.0669412543,0.1455458235
5.114,0.06962341785,0.1380482935
5.128,0.07151791979,0.1330881556
5.142,0.0737474566,0.1310123957
5.156,0.07776615147,0.1316804681
5.17,0.0850912089,0.134223832
5.184,0.09689768587,0.1369750575
5.198,0.1135835888,0.1376299986
5.212,0.1344356424,0.1336423418
5.226,0.1575128743,0.1227811492
5.24,0.179818745,0.1037274682
5.254,0.1977629939,0.07656092978
5.268,0.2078398442,0.04299922376
5.282,0.2073872291,0.006300749476
5.296,0.1952592888,-0.02918548999
5.31,0.172250696,-0.05875681819
5.324,0.1411564559,-0.07824335046
5.338,0.1064253788,-0.08486383397
5.352,0.073452876,-0.07786712855
5.366,0.04763927937,-0.05881266995
5.38,0.03339571789,-0.03141436479
5.394,0.03329701315,-0.0009618584596
5.408,0.04755602469,0.02657798203
5.422,0.07393041664,0.04560854023
5.436,0.1080860265,0.05189706906
5.45,0.1443491915,0.04332154302
5.464,0.17670279,0.02022741603
5.478,0.1998334642,-0.01467041172
5.492,0.2100302046,-0.05681452224
5.506,0.2057677351,-0.1006509599
5.52,0.1878747805,-0.1406253443
5.534,0.1592710725,-0.1721370801
5.548,0.124340882,-0.1922754487
5.562,0.08807747266,-0.2002116179
5.576,0.05516951956,-0.1971928459
5.59,0.02920182579,-0.1861641473
5.604,0.01210953126,-0.1711118786
5.618,0.003967320016,-0.1562689872
5.632,0.003126324592,-0.1453369488
5.646,0.006645659309,-0.1408633728
5.66,0.0109158671,-0.1438732537
5.674,0.01234597686,-0.1537959659
5.688,0.007987406535,-0.1686714813
5.702,-0.004005873021,-0.1855708029
5.716,-0.02414026635,-0.2011357551
5.73,-0.05158115212,-0.2121348944
5.744,-0.08435760413,-0.2159441753
5.758,-0.1197135324,-0.2108875691
5.772,-0.1545313422,-0.1964067017
5.786,-0.1857561559,-0.1730615592
5.8,-0.2107630903,-0.1423899015
5.814,-0.2276311686,-0.1066674814
5.828,-0.2353090848,-0.06861415693
5.842,-0.2336749108,-0.03108574958
5.856,-0.2235027497,0.003218437097
5.87,-0.2063529579,0.03201306983
5.884,-0.1844013043,0.05363746884
5.898,-0.1602195134,0.0672106129
5.912,-0.1365187081,0.07272099606
5.926,-0.1158698805,0.07104045105
5.94,-0.1004210915,0.06385167443
5.954,-0.09163831716,0.05348356405
5.968,-0.09010294169,0.04265827123
5.982,-0.09540015589,0.03416784101
5.996,-0.1061269188,0.03051390892
6.01,-0.120034469,0.03355732056
6.024,-0.1343000349,0.04423123698
6.038,-0.145899593,0.06236822562
6.052,-0.1520324432,0.08667880199
6.066,-0.1505341144,0.1148963447
6.08,-0.1402105452,0.144075745
6.094,-0.1210353777,0.1710052337
6.108,-0.09417300613,0.1926688041
6.122,-0.06181874051,0.206685247
6.136,-0.02687896009,0.2116516185
6.15,0.007457604899,0.2073341153
6.164,0.03818700724,0.1946753233
6.178,0.06291859968,0.1756186017
6.192,0.08019538087,0.1527819534
6.206,0.08965664134,0.1290389781
6.22,0.09202175926,0.1070788452
6.234,0.08890541744,0.08901829226
6.248,0.08250280601,0.07612648756
6.262,0.0752034565,0.06870145628
6.276,0.06920109183,0.06610866774
6.29,0.06616276426,0.06696461115
6.304,0.06700645133,0.06942550603
6.318,0.07181454806,0.07152687289
6.332,0.07988625946,0.07151589561
6.346,0.08990905718,0.06812475052
6.36,0.1002121612,0.06074759895
6.374,0.1090561229,0.04950287918
6.388,0.1149119395,0.03518198923
6.402,0.1166899153,0.01910229969
6.416,0.113890416,0.002894319856
6.43,0.1066631352,-0.0117415012
6.444,0.09577565826,-0.02327339126
6.458,0.08250343044,-0.03054250349
6.472,0.06846127828,-0.0329109195
6.486,0.055400715,-0.0303407376
6.5,0.04499805619,-0.02340033995
6.514,0.03865674724,-0.01320177417
6.528,0.03734344078,-0.001279403681
6.542,0.04147292599,0.0105759045
6.556,0.05085231434,0.02050974669
6.57,0.06468970596,0.02680482555
6.584,0.08166684984,0.0280690369
6.598,0.1000693132,0.02339114223
6.612,0.1179613945,0.01244672314
6.626,0.1333878316,-0.004458441431
6.64,0.1445802578,-0.0264143119
6.654,0.1501443051,-0.05200073999
6.668,0.149204289,-0.07943984001
6.682,0.1414871771,-0.1067885391
6.696,0.1273349442,-0.1321473914
6.71,0.1076439457,-0.153858862
6.724,0.08374014718,-0.1706693244
6.738,0.05720824105,-0.1818340697
6.752,0.02969943181,-0.1871530299
6.766,0.002745296049,-0.1869356416
6.78,-0.0223968294,-0.1819038049
6.794,-0.04484730531,-0.1730508105
6.808,-0.06414561264,-0.1614796695
6.822,-0.08022888114,-0.1482461787
6.836,-0.09335657895,-0.1342295689
6.85,-0.103998119,-0.1200474568
6.864,-0.1127044506,-0.1060233526
6.878,-0.1199851459,-0.09220602029
6.892,-0.1262094968,-0.07843207395
6.906,-0.1315446268,-0.06441728939
6.92,-0.1359363561,-0.04985921047
6.934,-0.1391314065,-0.03453392634
6.948,-0.1407335051,-0.01837280901
6.962,-0.1402820275,-0.001509679199
6.976,-0.1373401173,0.01570593285
6.99,-0.1315796865,0.03272879463
7.004,-0.1228524395,0.04886678348
7.018,-0.111238795,0.06335106704
7.032,-0.09706992306,0.07541866613
7.046,-0.0809210876,0.08439827949
7.06,-0.06357691421,0.08979032953
7.074,-0.0459716988,0.09133293177
7.088,-0.02910985647,0.08904661182
7.102,-0.01397359984,0.0832519814
7.116,-0.001426681229,0.07455674906
7.13,0.007875791209,0.06381099314
7.144,0.01356072053,0.05203285842
7.158,0.01558324945,0.04031088037
7.172,0.01423803294,0.0296930254
7.186,0.01013145027,0.02107532723
7.2,0.004115627794,0.01510442598
7.214,-0.002809281072,0.01210770582
7.228,-0.009613082898,0.0120617154
7.242,-0.01535854287,0.01460476933
7.256,-0.01931245623,0.01909341496
7.27,-0.02102877526,0.02469559791
7.284,-0.02039180223,0.0305075257
7.298,-0.01761321358,0.03567746312
7.312,-0.01318380799,0.03951831404
7.326,-0.007787998735,0.04159276298
7.34,-0.0021946726,0.04175928581
7.354,0.00285870983,0.04017377908
7.368,0.006771557638,0.03724842197
7.382,0.009160168896,0.0335758012
7.396,0.00990186057,0.02983128014
7.41,0.009138926899,0.0266692137
7.424,0.007244434332,0.02462843198
7.438,0.004757390174,0.02405990303
7.452,0.002298631844,0.0250851806
7.466,0.0004805189362,0.027589179
7.48,-0.000176739186,0.03124579893
7.494,0.000688783748,0.03557053665
7.508,0.003239631317,0.03999107986
7.522,0.007426488863,0.0439254585
7.536,0.01300417736,0.04685737722
7.55,0.01957276789,0.04839917933
7.564,0.02663739975,0.04833473628
7.578,0.0336783279,0.04663738145
7.592,0.04022178149,0.04346117284
7.606,0.04590220871,0.03910689464
7.62,0.050507339,0.03396733239
7.634,0.05399934246,0.02845909152
7.648,0.05650796059,0.02295056661
7.662,0.05829533726,0.01769715017
7.676,0.05969662165,0.01279452718
7.69,0.06104448061,0.00815895547
7.704,0.0625890221,0.003540174566
7.718,0.0644267724,-0.001432335765
7.732,0.06645224871,-0.007174624619
7.746,0.06834341003,-0.01405554329
7.76,0.06958729431,-0.022301096
7.774,0.0695454919,-0.0319128404
7.788,0.0675520497,-0.04261652398
7.802,0.06302989365,-0.05385339851
7.816,0.0556071172,-0.06482025195
7.83,0.04521277473,-0.07455598717
7.844,0.03213381649,-0.08206397654
7.858,0.01702047836,-0.08645235093
7.872,0.0008356473835,-0.08707030962
7.886,-0.01524710767,-0.08361802783
7.9,-0.02998312185,-0.0762110375
7.914,-0.04221319383,-0.06538696726
7.928,-0.05101307138,-0.05205189551
7.942,-0.05581260509,-0.03737354711
7.956,-0.05646626622,-0.02263731314
7.97,-0.05326462631,-0.00908684291
7.984,-0.04688581899,0.002226890109
7.998,-0.03829547517,0.01056584486
8.012,-0.02861151303,0.0155778125
8.026,-0.01895494986,0.01731329267
8.04,-0.01030895078,0.0161866601
8.054,-0.003405893316,0.01289026774
8.068,0.001343187081,0.008276582605
8.082,0.003869479606,0.003227042125
8.096,0.00441790626,-0.001473009519
8.11,0.003476516083,-0.005236154643
8.124,0.001676339262,-0.00773881666
8.138,-0.0003226650958,-0.008944324916
8.152,-0.001943185476,-0.009082189495
8.166,-0.002784400662,-0.008588242304
8.18,-0.002685689583,-0.008015089797
8.194,-0.001751947148,-0.007925681008
8.208,-0.0003369332603,-0.008784699989
8.222,0.001013823453,-0.01086300465
8.236,0.001653896026,-0.01416918502
8.25,0.0009493060956,-0.01841964147
8.264,-0.00160086592,-0.02305434299
8.278,-0.006254181378,-0.02729966458
8.292,-0.01294265639,-0.0302732266
8.306,-0.0212345498,-0.03111886826
8.32,-0.0303510759,-0.02915370912
8.334,-0.03924170645,-0.02400523162
8.348,-0.04671283141,-0.01571503268
8.362,-0.05159503737,-0.004788561767
8.376,-0.05292630718,0.007823455539
8.39,-0.05012288314,0.02081661043
8.404,-0.04310840269,0.03269010015
8.418,-0.03237604478,0.04195046178
8.432,-0.01896733917,0.04733281737
8.446,-0.004363937651,0.04800510987
8.46,0.009696887283,0.04372088611
8.474,0.0214587049,0.03489230099
8.488,0.02939952251,0.02256637822
8.502,0.03246264798,0.008302957948
8.516,0.0302267123,-0.006030784815
8.53,0.02298537143,-0.0185196862
8.544,0.01172128414,-0.02747441032
8.558,-0.002024107078,-0.03167690634
8.572,-0.01636625032,-0.03055846428
8.586,-0.02934571101,-0.02428188903
8.6,-0.03920722429,-0.01371484109
8.614,-0.04464639788,-0.0002992057671
8.628,-0.04498679246,0.01416216944
8.642,-0.04026169548,0.02776749786
8.656,-0.03119052551,0.03878599228
8.67,-0.01905663171,0.04589498992
8.684,-0.005508247377,0.04835019096
8.698,0.007684887269,0.04606682336
8.712,0.01888191348,0.03960417885
8.726,0.02679219504,0.03006054828
8.74,0.03063799253,0.01889801743
8.754,0.0302391489,0.007725185706
8.768,0.02601257294,-0.001930356008
8.782,0.01889130505,-0.008828921198
8.796,0.01017791407,-0.01217929866
8.81,0.001353849404,-0.01173478295
8.824,-0.006129710145,-0.007815261152
8.838,-0.01105337693,-0.00125504842
8.852,-0.01259939066,0.006715733227
8.866,-0.0104697856,0.01464153459
8.88,-0.004938669811,0.02104361467
8.894,0.003169040541,0.02463084778
8.908,0.0125726147,0.02449399651
8.922,0.02169640995,0.02025873258
8.936,0.02888072428,0.01217540903
8.95,0.032619117,0.00112913005
8.964,0.03179293619,-0.01143801906
8.978,0.02587081616,-0.02369012374
8.992,0.01504178358,-0.0336315054
9.006,0.0002562971511,-0.03938517522
9.02,-0.0168398226,-0.0394795745
9.034,-0.03407934973,-0.03310204459
9.048,-0.04903970446,-0.02027800497
9.062,-0.05936943917,-0.001942092223
9.076,-0.06313087572,0.02011891572
9.09,-0.05910791986,0.0434530606
9.104,-0.04702938904,0.06524111076
9.118,-0.02766802773,0.08266730322
9.132,-0.002792518104,0.09331068145
9.146,0.02502805265,0.09549827456
9.16,0.05274414427,0.08856443541
9.174,0.07722613949,0.07297329521
9.188,0.09568677232,0.05028155066
9.202,0.1060620984,0.02294360287
9.216,0.1072928228,-0.006013849223
9.23,0.09946294579,-0.03339971282
9.244,0.08377494429,-0.05628762885
9.258,0.0623666038,-0.0724019778
9.272,0.0379992411,-0.08040401234
9.286,0.01366650602,-0.08003799881
9.3,-0.007816167368,-0.0721201559
9.314,-0.02418070779,-0.05837779022
9.328,-0.03398216168,-0.04116852798
9.342,-0.03674588244,-0.02312624239
9.356,-0.03297237107,-0.006788437312
9.37,-0.02400783042,0.005741095177
9.384,-0.01180746637,0.01304966197
9.398,0.001368467214,0.01456346654
9.412,0.01327999269,0.010573975
9.426,0.02200962714,0.002148639324
9.44,0.02620453427,-0.009053644199
9.454,0.02523310211,-0.02103211369
9.468,0.01924341771,-0.03172403629
9.482,0.009123435449,-0.03928045615
9.496,-0.003626950504,-0.04230718352
9.51,-0.0170939087,-0.04004667293
9.524,-0.02919483591,-0.0324836982
9.538,-0.03794490756,-0.02036497182
9.552,-0.04171795331,-0.005130091406
9.566,-0.03947458572,0.01124165052
9.58,-0.03093171115,0.02645656149
9.594,-0.01665073203,0.03818401126
9.608,0.001972384826,0.04435851769
9.622,0.02282330982,0.04347264298
9.636,0.04328832074,0.03482307967
9.65,0.06055855111,0.01867275508
9.664,0.07198770627,-0.003701909376
9.678,0.0754594624,-0.03009735143
9.692,0.06971345722,-0.0576043402
9.706,0.05457881352,-0.08294569155
9.72,0.03107271698,-0.1028914036
9.734,0.001338091084,-0.1146962857
9.748,-0.0315825087,-0.1164963549
9.762,-0.0641137542,-0.1076016112
9.776,-0.09260795198,-0.08863493747
9.79,-0.1138339128,-0.06148845696
9.804,-0.1254212512,-0.02909645711
9.818,-0.1261910391,0.004946579101
9.832,-0.1163196497,0.03686823451
9.846,-0.09730847067,0.06322858093
9.86,-0.07176296987,0.08138124561
9.874,-0.04301523994,0.08981505995
9.888,-0.01464912172,0.088325655
9.902,0.009998105533,0.07799421731
9.916,0.02828129553,0.06098191183
9.93,0.03857477764,0.04017763575
9.944,0.04043738952,0.01875859905
9.958,0.03459892129,-0.0002659756406
9.972,0.02278057721,-0.01445919411
9.986,0.007386976559,-0.02225265219
10,-0.008875756318,-0.02309908639
