"Freq [GHz]","re(S(Antenna1_1_1,Antenna1_1_1)) []","im(S(Antenna1_1_1,Antenna1_1_1)) []"
3,-0.200101539645393,-0.163754464233326
3.0175,-0.208766481424713,-0.148789202279693
3.035,-0.216285101476177,-0.132998815240135
3.0525,-0.222451157329528,-0.116471123425154
3.07,-0.227081287697973,-0.0993708127377744
3.0875,-0.230043221347216,-0.0819238857768111
3.105,-0.231274624205493,-0.0643933403284729
3.1225,-0.230790913611642,-0.0470506674819398
3.14,-0.228682099181617,-0.0301473301128418
3.1575,-0.225099720554342,-0.01388964391433
3.175,-0.220235502273947,0.0015800709086243
3.1925,-0.214293911740567,0.016193467416697
3.21,-0.207461742391643,0.0299549799168935
3.2275,-0.199888794971898,0.042916390829607
3.245,-0.191659143902488,0.0551893665995647
3.2625,-0.182747555559722,0.0668920654234738
3.28,-0.173057588329295,0.0780781330314707
3.2975,-0.162448986962446,0.0887169679720073
3.315,-0.150783389214238,0.0986770885397836
3.3325,-0.137974784158174,0.107733014932747
3.35,-0.12403258026353,0.115596128589548
3.3675,-0.109086027381088,0.121963623993012
3.385,-0.0933829484913257,0.126574485956613
3.4025,-0.0772622064543052,0.129259112356757
3.42,-0.0611061698691445,0.129970607437361
3.4375,-0.0452845726600872,0.128790546026451
3.455,-0.0301382354640284,0.125850930833453
3.4725,-0.015878765351579,0.121506829330226
3.49,-0.00257029073472149,0.116052918379546
3.5075,0.0098306590136487,0.109736322397848
3.525,0.0214371668205739,0.102720611774772
3.5425,0.0323853090351429,0.0950711966321344
3.56,0.0427890359562276,0.0867616308656442
3.5775,0.0527041760579105,0.0776964492045256
3.595,0.0621057836989724,0.0677444471365434
3.6125,0.070880107440613,0.0567764790155833
3.63,0.0788307149913797,0.044702929611455
3.6475,0.0856976732705567,0.0315069524591825
3.665,0.0911850837615196,0.0172191843482499
3.6825,0.0949453089878762,0.00204833151527588
3.7,0.0967485417869312,-0.0136068915449457
3.7175,0.0965074982640535,-0.0293246279183002
3.735,0.0942840339567256,-0.0446675804201986
3.7525,0.0902883405168017,-0.0592465151194919
3.77,0.08484943727363,-0.0727806107639587
3.7875,0.0783595085531248,-0.0851410173165199
3.805,0.0712015030330687,-0.0963657957222459
3.8225,0.0636749334690634,-0.106639843507011
3.84,0.0559370576383762,-0.116241417049784
3.8575,0.0479744675381956,-0.125465395288082
3.875,0.0396137273599663,-0.13454006126963
3.8925,0.0305145889090333,-0.1437155668213
3.91,0.0202914784982703,-0.152670357282277
3.9275,0.00874973155674257,-0.161074978633769
3.945,-0.0041399502546892,-0.168513140824373
3.9625,-0.0182183904550443,-0.174567542597447
3.98,-0.033157029191502,-0.17890614693605
3.9975,-0.0485141856502682,-0.181349398999147
4.015,-0.0638150809131807,-0.181903726761408
4.0325,-0.078637213339359,-0.180754748863456
4.05,-0.0926820861105466,-0.178222903512486
4.0675,-0.105818028580123,-0.174692508974049
4.085,-0.118085865153618,-0.170530730881608
4.1025,-0.129667724789141,-0.166014475460202
4.12,-0.140827367114759,-0.161280702317821
4.1375,-0.151836253652726,-0.156309818364431
4.155,-0.162902025381065,-0.150944130407512
4.1725,-0.174114685096562,-0.144935593701785
4.19,-0.185421111884005,-0.13801102617946
4.2075,-0.196631767894315,-0.129939842678789
4.225,-0.207456236371057,-0.120589751339547
4.2425,-0.21755823120238,-0.109959457576886
4.26,-0.22661725030787,-0.0981832027125502
4.2775,-0.234383733046481,-0.085508416346592
4.295,-0.240717232420024,-0.0722533058708934
4.3125,-0.245601800927881,-0.0587546131310176
4.33,-0.249072052790705,-0.0454375970163655
4.3475,-0.251493022011056,-0.032439572730722
4.365,-0.253105754456581,-0.0198257769030522
4.3825,-0.25412614478143,-0.00756515763099181
4.4,-0.254713666155727,0.0044470903501782
4.4175,-0.254951926715044,0.0163596327637563
4.435,-0.254841268152116,0.0283323131753901
4.4525,-0.254302613340435,0.0405041872379779
4.47,-0.253191514402539,0.0529650340066535
4.4875,-0.251321260014416,0.0657329565358658
4.505,-0.248493390553207,0.0787409315231633
4.5225,-0.244532777988515,0.0918352510420541
4.54,-0.239322767065458,0.104788090631931
4.5575,-0.232834383066841,0.117324570414871
4.575,-0.225143104867566,0.12916177561868
4.5925,-0.216427828248567,0.140053926932228
4.61,-0.206949573618311,0.149835246088137
4.6275,-0.197011766925317,0.158451065019902
4.645,-0.186908531726872,0.165969030046599
4.6625,-0.176871092995147,0.172565868409565
4.68,-0.167023954646064,0.178490415716152
4.6975,-0.157361321734744,0.184009204606509
4.715,-0.147750375553539,0.189345441562153
4.7325,-0.137962294498118,0.194624419268432
4.75,-0.127725686479468,0.199837663236609
4.7675,-0.116620217960455,0.204856796048773
4.785,-0.104666625339277,0.209240676461592
4.8025,-0.0919286164781192,0.212673502330443
4.82,-0.0786006783832895,0.214882704131483
4.8375,-0.0649758110639009,0.21569046312525
4.855,-0.0513947861610797,0.215045440080508
4.8725,-0.0381876321561133,0.213029105761945
4.89,-0.0256191366161593,0.209836333468187
4.9075,-0.0138488753187405,0.20573496435824
4.925,-0.0029130464049066,0.201012937511167
4.9425,0.00726906121263012,0.195923650628452
4.96,0.0168659276275632,0.190640222312209
4.9775,0.0260882284860577,0.185227363468144
4.995,0.0351361030738626,0.179636038828487
5.0125,0.0441498246441308,0.173721643987135
5.03,0.0531737318762055,0.167281820579059
5.0475,0.0621406696883528,0.160106117327657
5.065,0.0708800870259996,0.152027247902011
5.0825,0.0791480854170459,0.142963259607224
5.1,0.0866730678676856,0.132941716794745
5.1175,0.0932072184341929,0.122100765194713
5.135,0.0985726845461779,0.110666948295538
5.1525,0.102692457572338,0.0989148027075158
5.17,0.105599395223388,0.0871173498939518
5.1875,0.107421846526943,0.0754985993988456
5.205,0.108349726010154,0.064198542617402
5.2225,0.108589296110425,0.0532579766125642
5.24,0.108317242991479,0.0426256534915276
5.2575,0.107644311986232,0.032184964736508
5.275,0.106595968959563,0.0217930112974234
5.2925,0.105113110756507,0.0113225589802887
5.31,0.103071014774054,0.000697515119865107
5.3275,0.100310778776383,-0.010085051484373
5.345,0.0966753887914455,-0.0209495361774889
5.3625,0.0920425903334344,-0.0317522217739674
5.38,0.0863486008910566,-0.0423034526095053
5.3975,0.079599586979197,-0.05239583658758
5.415,0.0718707730717697,-0.0618327219667799
5.4325,0.0632952654282566,-0.0704524129751256
5.45,0.0540457875685112,-0.0781453601114465
5.4675,0.0443126302848184,-0.0848632003401214
5.485,0.0342806489189024,-0.0906196095256569
5.5025,0.0241076123961373,-0.0954834296389727
5.52,0.0139059709702837,-0.0995647369673703
5.5375,0.0037301879396005,-0.102994838832302
5.555,-0.00642811397694388,-0.105901916790856
5.5725,-0.0166352474613911,-0.108385162104936
5.59,-0.0269999177733677,-0.110491425036778
5.6075,-0.0376480300346019,-0.112199066110661
5.625,-0.048691154242742,-0.113413329473396
5.6425,-0.0602882465326086,-0.113984147649751
5.66,-0.0723293377858226,-0.113626143626048
5.6775,-0.0846686796967964,-0.112148812209808
5.695,-0.0970856145598567,-0.109421733010482
5.7125,-0.109316326673813,-0.105401932814782
5.73,-0.121094453686,-0.100144699084091
5.7475,-0.132192284676565,-0.0937957725933344
5.765,-0.142454427483691,-0.0865667638002316
5.7825,-0.151817676186146,-0.0786988721613394
5.8,-0.160313721850322,-0.0704219366703716
5.8175,-0.168054586510306,-0.0619163346298683
5.835,-0.175203611325093,-0.0532844480436766
5.8525,-0.181937124913472,-0.0445366745402676
5.87,-0.188403396900807,-0.0355946090020935
5.8875,-0.194686077223814,-0.0263113183323878
5.905,-0.200778950986953,-0.0165057898237854
5.9225,-0.206577387208443,-0.00600593652834318
5.94,-0.211889278731736,0.00530757389387357
5.9575,-0.21646473626302,0.017465375827327
5.975,-0.220039836304146,0.0303893654254481
5.9925,-0.222386190413806,0.0438939800365522
6.01,-0.223356005411265,0.05770996353103
6.0275,-0.222912462468147,0.0715267175827622
6.045,-0.221137954552859,0.0850447138640283
6.0625,-0.218217547921267,0.0980265854491774
6.08,-0.214400133329794,0.110264182848796
6.0975,-0.210007684069116,0.121822690302055
6.115,-0.205245374772495,0.132824600242757
6.1325,-0.200220249036825,0.143455167572443
6.15,-0.194927499324508,0.153910553193846
6.1675,-0.18926112074148,0.164347256427836
6.185,-0.183044687727459,0.174843170320477
6.2025,-0.176074247504651,0.185376995729513
6.22,-0.1681638759924,0.195828204319835
6.2375,-0.159185213442203,0.205995499244841
6.255,-0.149094628636575,0.215628680701306
6.2725,-0.137944657385957,0.224467327071342
6.29,-0.125879240382736,0.232279589182913
6.3075,-0.113114597588058,0.238895217705655
6.325,-0.0999092320687993,0.244228242205327
6.3425,-0.0865276860748673,0.248286221582787
6.36,-0.0732034161583586,0.251164644544356
6.3775,-0.0601064986712109,0.253026949530789
6.395,-0.0473216256453478,0.254072764861489
6.4125,-0.0348407388589966,0.254499135838555
6.43,-0.0225725396493665,0.254461260568866
6.4475,-0.0103681675357178,0.254040038949856
6.465,0.00194091904035817,0.253223096583836
6.4825,0.0144996344896387,0.251903756694461
6.5,0.0273888808517054,0.249899028177888
6.5175,0.0406998512550139,0.246966971197494
6.535,0.0541789942131922,0.242819727715715
6.5525,0.0675659830501551,0.237312298887096
6.57,0.0805519073685904,0.230406334480472
6.5875,0.0928280241286483,0.222180625423847
6.605,0.104133952748225,0.212820171292886
6.6225,0.114296514283068,0.20258626935212
6.64,0.123252334484412,0.19177336869865
6.6575,0.131050313827874,0.180660623303874
6.675,0.137833594492475,0.169466916845489
6.6925,0.143804209196379,0.158317561615162
6.71,0.149176694518827,0.147228974140003
6.7275,0.154129134034092,0.136114609844839
6.745,0.158760949012845,0.1248116606275
6.7625,0.163065969919058,0.113124031235197
6.78,0.166926817743852,0.100873631187309
6.7975,0.170132660487362,0.0879498329775611
6.815,0.172417644962619,0.0743467137398632
6.8325,0.173512724584557,0.0601797238705727
6.85,0.173200317789892,0.0456774908157874
6.8675,0.171360164389962,0.0311497791259466
6.885,0.167996337008863,0.0169379734657695
6.9025,0.163239373310284,0.00335849591163982
6.92,0.157323012693961,-0.00934875595481506
6.9375,0.150540692584896,-0.0210560292428646
6.955,0.143275676438566,-0.0316696300304855
6.9725,0.1357517754474,-0.0414751613546988
6.99,0.128070383994978,-0.050680988089122
7.0075,0.120218836539724,-0.0594906492152591
7.025,0.11208918615686,-0.0680552597824677
7.0425,0.103513992441292,-0.0764404763550991
7.06,0.0943105607870219,-0.0846127529021834
7.0775,0.0843246108332321,-0.0924453291262555
7.095,0.0734657288770477,-0.0997407533552194
7.1125,0.0617294913781339,-0.106264374677234
7.13,0.0492040448932505,-0.111782305360607
7.1475,0.0360615521671373,-0.116097628621721
7.165,0.0225369172123228,-0.119079683104977
7.1825,0.00889752923992115,-0.120682677765091
7.2,-0.0045914586333512,-0.120951415086834
7.2175,-0.0177014259303441,-0.120013446869005
7.235,-0.0302692443844095,-0.118058587209865
7.2525,-0.0422164003988132,-0.11530837990259
7.27,-0.0535547808856158,-0.11197975658851
7.2875,-0.064377315473502,-0.108248461447479
7.305,-0.0748339846121235,-0.104218487625451
7.3225,-0.0850963434392059,-0.0999034238536166
7.34,-0.0953161753747853,-0.095224072230009
7.3575,-0.105585595043224,-0.0900240729704372
7.375,-0.115906366442135,-0.0841019621341326
7.3925,-0.126226310596409,-0.0771566190576223
7.41,-0.13620166559559,-0.0691018633807168
7.4275,-0.145548269454028,-0.0599273698978337
7.445,-0.153984202937904,-0.0497374242973081
7.4625,-0.161278846196268,-0.0387411312749478
7.48,-0.167293496592991,-0.027222069710914
7.4975,-0.172005224703468,-0.0154928485638065
7.515,-0.175508758834697,-0.00384324311438121
7.5325,-0.177995473221998,0.00750783584182449
7.55,-0.17971318101084,0.0184467469406137
7.5675,-0.180914473640679,0.0289785825196073
7.585,-0.181803953801726,0.0392164554505763
7.6025,-0.182495275582736,0.0493482876520889
7.62,-0.182987208207827,0.059587553247796
7.6375,-0.183164210936596,0.0701180433789338
7.655,-0.182821930635572,0.0810443273426468
7.6725,-0.181712644381761,0.0923587135038262
7.69,-0.179601155162832,0.10393221213816
7.7075,-0.176319087991688,0.115531886198682
7.725,-0.171805623631449,0.126861135970503
7.7425,-0.166125551763015,0.13761424125444
7.76,-0.159460557751111,0.147533152539573
7.7775,-0.152075732915075,0.156453948349005
7.795,-0.144268959095067,0.164332766959515
7.8125,-0.136314663868972,0.171245831747179
7.83,-0.128479005275024,0.177363968927631
7.8475,-0.120781116198767,0.182961870287705
7.865,-0.113175942217722,0.188243088100318
7.8825,-0.105535636572619,0.193347592217682
7.9,-0.0976893174243171,0.198325708805729
7.9175,-0.0894678920645164,0.203133011195263
7.935,-0.0807440565307891,0.20764491480896
7.9525,-0.0714598921354035,0.211685562298795
7.97,-0.0616382717566506,0.215063278883211
7.9875,-0.0513783661236356,0.217604773953742
8.005,-0.0408387798987984,0.219182033172593
8.0225,-0.0302135342191963,0.219728653893101
8.04,-0.0197137711578569,0.219232821647456
8.0575,-0.00954081615332499,0.217769970401127
8.075,0.000162651541920588,0.215478204595181
8.0925,0.00930252840886506,0.212512295518387
8.11,0.0178421350486111,0.209039147556258
8.1275,0.0258029145044547,0.205217418905494
8.145,0.0332585727755109,0.201176971562409
8.1625,0.0403218094210925,0.197000138147173
8.18,0.047123529494997,0.192707880717539
8.1975,0.0537860952121831,0.188254513096719
8.215,0.0603943292187723,0.183534140097569
8.2325,0.0669698351935329,0.178400087969672
8.25,0.0734549129915975,0.172695646139957
8.2675,0.079720681483622,0.166236720835193
8.285,0.085507852740197,0.159011590466677
8.3025,0.0905872551068252,0.15107365406833
8.32,0.0947572774412101,0.1425695934788
8.3375,0.0978832465327186,0.133719833337382
8.355,0.0999243140713348,0.124782741485257
8.3725,0.10094149847892,0.116009983376812
8.39,0.101084715163787,0.107602640948229
8.4075,0.100561351032531,0.0996776444466943
8.425,0.0995930468896299,0.0922518029865597
8.4425,0.0983699044523991,0.0852468489605089
8.46,0.0970118145613104,0.078514366047138
8.4775,0.0955449917675336,0.0718752713272222
8.495,0.0938985294240761,0.0651655419160666
8.5125,0.091921599267719,0.0582786764710646
8.53,0.0894176826069218,0.0511961372247402
8.5475,0.086188770579163,0.0439995249532136
8.565,0.0820804660053961,0.0368619780195779
8.5825,0.0770187403074908,0.0300205212203863
8.6,0.0710307897181182,0.0237349898030525
8.6175,0.0642456837168371,0.0182419325920484
8.635,0.0568746719985702,0.0137129623929463
8.6525,0.0491752593238316,0.0102261060024277
8.67,0.0414065570844071,0.00775596015230303
8.6875,0.0337852096486478,0.00618445255147585
8.705,0.0265302282330111,0.00531327230672579
8.7225,0.0195784104829694,0.00489213052739329
8.74,0.0128484405159035,0.00476232962553556
8.7575,0.00620464359357332,0.00483691096371299
8.775,-0.000504751326541178,0.00511393145275334
8.7925,-0.00740904851947011,0.00567195626071681
8.81,-0.014583628287514,0.00665025786930273
8.8275,-0.0220307587797873,0.00821887035833858
8.845,-0.0296749034084032,0.0105448683458345
8.8625,-0.0373718948607449,0.0137610345901905
8.88,-0.0449291490453967,0.0179418167131194
8.8975,-0.052132804984329,0.023089680194442
8.915,-0.0587772419981093,0.029133119595068
8.9325,-0.0646926028166565,0.0359359770663138
8.95,-0.0697664875332445,0.0433164017526354
8.9675,-0.0739567431062438,0.0510726966248563
8.985,-0.0772932710378091,0.0590123760054962
9.0025,-0.0798681044258028,0.0669800531150538
9.02,-0.0818147015547603,0.0748794963236579
9.0375,-0.08327932769013,0.0826856108846258
9.055,-0.0843891962138753,0.0904434175709286
9.0725,-0.0852232217024466,0.0982532796848817
9.09,-0.0857913352891052,0.106244339710121
9.1075,-0.0860270814102837,0.114540770946692
9.125,-0.0857957667949824,0.123227334255632
9.1425,-0.0848903426104455,0.132384128288345
9.16,-0.0830985830708088,0.141849547461844
9.1775,-0.0802798026909476,0.151450096868252
9.195,-0.0763632767866929,0.160962987468963
9.2125,-0.071362472141597,0.170149494687453
9.23,-0.0653737787984098,0.178790864524595
9.2475,-0.0585603682340708,0.186719978040431
9.265,-0.0511245521731223,0.193843041414119
9.2825,-0.0432739782027482,0.200147607063372
9.3,-0.0351879063576911,0.205695794497217
9.3175,-0.0269896178386704,0.210604197576599
9.335,-0.018729833523404,0.215014234709522
9.3525,-0.0103840909865963,0.219058315410461
9.37,-0.00186463022809893,0.222827951074573
9.3875,0.00695519952524268,0.226349708780342
9.405,0.0162083051487782,0.229573673464011
9.4225,0.0259989592127726,0.232376959087297
9.44,0.0363723144945613,0.234582074896197
9.4575,0.047294438086874,0.235987062513729
9.475,0.0586471730611599,0.236401844200014
9.4925,0.0702393244661206,0.235683732266171
9.51,0.0818323812421132,0.233764960197766
9.5275,0.0931759319740993,0.230666529025259
9.545,0.104045819549481,0.226495374352708
9.5625,0.114277426003016,0.221425274373411
9.58,0.123716020663188,0.215692425516994
9.5975,0.132472079526003,0.20952970895314
9.615,0.140654281798762,0.203076139150498
9.6325,0.148404244730173,0.196391696597844
9.65,0.155858172191937,0.189453018512966
9.6675,0.163111033844214,0.182165711776089
9.685,0.170189872280082,0.174390325544186
9.7025,0.177040831137211,0.165976685136316
9.72,0.18353182003697,0.156800056713475
9.7375,0.189469907745704,0.146792582977267
9.755,0.194630032736308,0.135964490407863
9.7725,0.198789791611076,0.12441146184835
9.79,0.201764125718484,0.112306965055901
9.8075,0.203433766154181,0.0998808765022244
9.825,0.203762302356853,0.0873880912619727
9.8425,0.202798594678553,0.0750726304152821
9.86,0.200663733214998,0.0631337459279164
9.8775,0.197524513375753,0.0517004507199625
9.895,0.193558009225397,0.0408196708630346
9.9125,0.188913783387748,0.0304609229473217
9.93,0.183681125632159,0.0205373852500966
9.9475,0.177868169430583,0.0109399873123116
9.965,0.171397769766842,0.00157834159329542
9.9825,0.164121925901853,-0.0075793825672786
10,0.155852878778836,-0.0164757334658527
