"Freq [GHz]","re(S(Antenna1_1_1,Antenna1_1_1)) []","im(S(Antenna1_1_1,Antenna1_1_1)) []"
3,-0.198227975874393,-0.163497790911326
3.0175,-0.207015654496113,-0.149401650253694
3.035,-0.215028488545977,-0.134311798455135
3.0525,-0.221934268826928,-0.118172928869154
3.07,-0.227377058520973,-0.101083728092774
3.0875,-0.231047625457216,-0.0832911987073111
3.105,-0.232742599320493,-0.0651549029356629
3.1225,-0.232400694761642,-0.0470900544399398
3.14,-0.230109878604517,-0.0295022507628418
3.1575,-0.226085786876842,-0.01272750363833
3.175,-0.220627550889247,0.0030108453666243
3.1925,-0.214061270417567,0.017621030725697
3.21,-0.206682988016643,0.0311356889188935
3.2275,-0.198716411888898,0.043661923338287
3.245,-0.190299379707488,0.0553860960415647
3.2625,-0.181429324483122,0.0665204133704737
3.28,-0.171995906312395,0.0772007991874707
3.2975,-0.161822078333946,0.0874682067530073
3.315,-0.150712703724238,0.0972492469637836
3.3325,-0.138505960997174,0.106358462096347
3.35,-0.12511888185053,0.114520989582678
3.3675,-0.110579809170088,0.121411324574012
3.385,-0.0950428637955257,0.126701721899613
3.4025,-0.0787822801186052,0.130112609597757
3.42,-0.0621673741130445,0.131457227902361
3.4375,-0.0456216615980872,0.130673506734451
3.455,-0.0295723204740284,0.127731930698013
3.4725,-0.014484369637579,0.122963725833326
3.49,-0.000615984769721487,0.116733065401546
3.5075,0.0119320836515487,0.109444498888848
3.525,0.0232174457540739,0.101474328991772
3.5425,0.0334278717355429,0.0931070563501344
3.56,0.0428280920002276,0.0844889376866442
3.5775,0.0516906392229105,0.0756082420442556
3.595,0.0602233856399724,0.0663073259918734
3.6125,0.068507910403613,0.0563258259855833
3.63,0.0764616637812797,0.045368093094455
3.6475,0.0838330424624567,0.0331826833711825
3.665,0.0902602413535196,0.0195627257942499
3.6825,0.0951760804528762,0.00453889747827588
3.7,0.0980676574449312,-0.0114964293830457
3.7175,0.0986267004180535,-0.0280310662999002
3.735,0.0967587337307256,-0.0444543206141986
3.7525,0.0926084557499017,-0.0601574299444919
3.77,0.08653841470413,-0.0746362614309587
3.7875,0.0790641918561248,-0.0875752573075199
3.805,0.0707584297500687,-0.0988949394892459
3.8225,0.0621428487530634,-0.108752432936711
3.84,0.0535903542033762,-0.117494030089784
3.8575,0.0452577075151956,-0.125568827000082
3.875,0.0370632467123063,-0.13342079146063
3.8925,0.028737452586509,-0.1416224377133
3.91,0.0196235663322703,-0.150040582772277
3.9275,0.00930557614874257,-0.158445985068269
3.945,-0.0024896555076892,-0.166418277686073
3.9625,-0.0158224082660443,-0.173430853897447
3.98,-0.030515418584502,-0.17895675593305
3.9975,-0.0461784553375682,-0.182573299677147
4.015,-0.0622758901987807,-0.184044019814408
4.0325,-0.078222344588359,-0.183361773188456
4.05,-0.0934861768115466,-0.180745271676087
4.0675,-0.107679591012123,-0.176591075713849
4.085,-0.120617560471618,-0.171392094538608
4.1025,-0.132334694708241,-0.165640070406202
4.12,-0.143058073133759,-0.159732146289821
4.1375,-0.153143008196726,-0.153900051469431
4.155,-0.162985858016065,-0.148175195132412
4.1725,-0.172932012660562,-0.142395277200485
4.19,-0.183197381351005,-0.13624958368676
4.2075,-0.193818274788315,-0.129352664949789
4.225,-0.204638398889167,-0.121331028290547
4.2425,-0.21533413665098,-0.111905663134886
4.26,-0.22547194943587,-0.10095480138055
4.2775,-0.234585976943481,-0.088545762028592
4.295,-0.242260732445024,-0.0749309902070934
4.3125,-0.248203576268881,-0.0605101724581176
4.33,-0.252096509095705,-0.0458628714953655
4.3475,-0.254321392425056,-0.031522797270722
4.365,-0.255193890631581,-0.0178186845640522
4.3825,-0.25510576440943,-0.00491640810199181
4.4,-0.254451363235727,0.0071917818106782
4.4175,-0.253558260385044,0.0186678387096563
4.435,-0.252633216654116,0.0297833670462401
4.4525,-0.251731452674435,0.0408585997479779
4.47,-0.250753092580239,0.0521955785566535
4.4875,-0.249466282701116,0.0640165218318658
4.505,-0.247552481204507,0.0764171094841633
4.5225,-0.244666226550515,0.0893418783720541
4.54,-0.240499656128458,0.102585483404831
4.5575,-0.234841363368841,0.115819670882811
4.575,-0.227619932510566,0.12864189198968
4.5925,-0.218924629045067,0.140638033340228
4.61,-0.208999060095411,0.151449231202137
4.6275,-0.198207796198217,0.160831592459902
4.645,-0.186980436454872,0.168698179532599
4.6625,-0.175741734975147,0.175134940650165
4.68,-0.164839457417064,0.180386218218652
4.6975,-0.154482933168744,0.184810567357509
4.715,-0.144704351706839,0.188813089664153
4.7325,-0.135351611711118,0.192765359818432
4.75,-0.126116301372168,0.196927288141609
4.7675,-0.116410148406455,0.201560739401773
4.785,-0.105885254657277,0.206196122213492
4.8025,-0.0943261243291192,0.210471344064143
4.82,-0.0816933497692895,0.213948695283483
4.8375,-0.0681406443205009,0.21619708635325
4.855,-0.0539950109700797,0.216874293181508
4.8725,-0.0397032360707133,0.215793219854945
4.89,-0.0257546412481593,0.212958936315687
4.9075,-0.0125949905537405,0.20856876175914
4.925,-0.000548538531906598,0.202974914159067
4.9425,0.0102361172476301,0.196616790711452
4.96,0.0198052819672632,0.189936223280209
4.9775,0.0283803606030577,0.183292720904144
4.995,0.0363027998826626,0.176895935139487
5.0125,0.0439548580851308,0.170769239335735
5.03,0.0516723801472055,0.164752031865859
5.0475,0.0596675465183528,0.158540425710457
5.065,0.0679776249585996,0.151758020834011
5.0825,0.0764504456827459,0.144042149476224
5.1,0.0847697241250856,0.135127685956745
5.1175,0.0925150536851929,0.124910945257713
5.135,0.0992441294661779,0.113480295664038
5.1525,0.104580082157338,0.101107037080816
5.17,0.108285699137388,0.0881984000865518
5.1875,0.110309032765443,0.0752224543958456
5.205,0.110790878634554,0.062620605043402
5.2225,0.110032592676024,0.0507259560525642
5.24,0.108431024134479,0.0397045851391276
5.2575,0.106394222675232,0.029531960905098
5.275,0.104255587026563,0.0200093621670234
5.2925,0.102204422786507,0.0108167809682887
5.31,0.100247414794854,0.00159116699586511
5.3275,0.0982090322305827,-0.00798640306137303
5.345,0.0957707412916455,-0.0181128769584889
5.3625,0.0925408099584344,-0.0288109615250674
5.38,0.0881401402620566,-0.0399133386473152
5.3975,0.082286269752197,-0.05108665115698
5.415,0.0748581135287697,-0.0618902882547799
5.4325,0.0659280592205566,-0.0718578114291256
5.45,0.0557548176269112,-0.0805842274334465
5.4675,0.0447385457705184,-0.0878011760211214
5.485,0.0333475094039024,-0.0934246654636569
5.5025,0.0220313421201373,-0.0975656982790727
5.52,0.0111386128062837,-0.10050177874957
5.5375,0.000855416590600502,-0.102615290752302
5.555,-0.00882270056454388,-0.104311433547856
5.5725,-0.0180800450304911,-0.105932446096936
5.59,-0.0272337694524677,-0.107685442830778
5.6075,-0.0366603239036019,-0.109598251312661
5.625,-0.046710355639742,-0.111511835067896
5.6425,-0.0578136655516086,-0.113156712105551
5.66,-0.0698658039398226,-0.113915972238048
5.6775,-0.0826624945057964,-0.113390573843808
5.695,-0.0958506960226867,-0.111297345159483
5.7125,-0.108994384580813,-0.107516635923782
5.73,-0.121651615246,-0.102106598343091
5.7475,-0.133447545932565,-0.0952838385158344
5.765,-0.144130076515691,-0.0873765669632316
5.7825,-0.153599108720145,-0.0787610560223394
5.8,-0.161906112750322,-0.0697944305693716
5.8175,-0.169226478068006,-0.0607563791068683
5.835,-0.175811908606893,-0.0518096174796766
5.8525,-0.181933089892472,-0.0429846274992676
5.87,-0.187823640998807,-0.0341893081649935
5.8875,-0.193635067060814,-0.0252396973081878
5.905,-0.199409536749953,-0.0159046282688854
5.9225,-0.205073554134443,-0.00595553235334318
5.94,-0.210451768348436,0.00478733870387357
5.9575,-0.21529695441531,0.016419472352327
5.975,-0.219330064699146,0.0289321418354481
5.9925,-0.222283374307806,0.0422097527509522
6.01,-0.223940045312265,0.05604355218253
6.0275,-0.224164645096147,0.0701585500602622
6.045,-0.222920916366859,0.0842490358750283
6.0625,-0.220275062135567,0.0980173858771774
6.08,-0.216318879481494,0.111145620126796
6.0975,-0.211405384622216,0.123478244821055
6.115,-0.205814232875495,0.134972904719457
6.1325,-0.199798765351825,0.145694000864443
6.15,-0.193546696499508,0.155792184642646
6.1675,-0.18715184136648,0.165470190106836
6.185,-0.180601359818381,0.174940136493477
6.2025,-0.173780829964651,0.184378840009513
6.22,-0.1664968488221,0.193888232491835
6.2375,-0.158514111813203,0.203467530317541
6.255,-0.149601436562575,0.213002283796906
6.2725,-0.139579392064957,0.222272979102242
6.29,-0.128361449241736,0.230982754679913
6.3075,-0.115981134461128,0.238800488292655
6.325,-0.102599592513799,0.245412570199327
6.3425,-0.0884910502428873,0.250574673704787
6.36,-0.0740074691153586,0.254154232846556
6.3775,-0.059527545328211,0.256155389019889
6.395,-0.0453984352513478,0.256720829511489
6.4125,-0.0318804814579966,0.256108845591555
6.43,-0.0191053173008665,0.254648440834866
6.4475,-0.00705587651971783,0.252679601546856
6.465,0.00442675697485817,0.250489058957836
6.4825,0.0156094814896387,0.248253332964461
6.5,0.0268111951177054,0.246000154775988
6.5175,0.0384650209830139,0.243718149285494
6.535,0.0507354283031922,0.240884897001615
6.5525,0.0636103693748551,0.237095245519096
6.57,0.0768919750445904,0.231966285417472
6.5875,0.0902210495056483,0.225215765585847
6.605,0.103133014912225,0.216723402047186
6.6225,0.115135357517068,0.20656309030692
6.64,0.125792334639412,0.19499927527465
6.6575,0.134801003345874,0.182447376488274
6.675,0.142043909882175,0.169404985977489
6.6925,0.147607861874379,0.156366267705162
6.71,0.151764389406527,0.143735487976003
6.7275,0.154914672445092,0.131756183480239
6.745,0.157508548015845,0.1204699469277
6.7625,0.159952420152058,0.109713573168197
6.78,0.162523459260852,0.0991562677990089
6.7975,0.165306839185342,0.0883710400845611
6.815,0.168168940115619,0.0769276813478632
6.8325,0.170773051255457,0.0644901521675727
6.85,0.172636240778892,0.0508996970699874
6.8675,0.173218134649962,0.0362269721522466
6.885,0.172025839396863,0.0207816832937695
6.9025,0.168715436688284,0.00507585605563982
6.92,0.163170208935951,-0.0102544254368151
6.9375,0.155539249363896,-0.0245557502108646
6.955,0.146155453028666,-0.0369883533774855
6.9725,0.1359394316414,-0.0474707487095988
6.99,0.125563031997978,-0.056079854621422
7.0075,0.115581911639724,-0.0631564635032591
7.025,0.10633408132286,-0.0692283247034677
7.0425,0.0978813368012222,-0.074896692408099
7.06,0.0900054511050219,-0.0807082298121834
7.0775,0.0822604770511121,-0.0870373523562555
7.095,0.0740715118960477,-0.0940024565431194
7.1125,0.0648609334101339,-0.101433211837934
7.13,0.0541773051762505,-0.108896296241607
7.1475,0.0418011127571374,-0.115775464969721
7.165,0.0278055734738928,-0.121390886099977
7.1825,0.0125592968409211,-0.125134456103091
7.2,-0.0033310168130512,-0.126594049273834
7.2175,-0.0191275750663441,-0.125641247898105
7.235,-0.0340976011624095,-0.122463883345165
7.2525,-0.0476515379198132,-0.11753547236359
7.27,-0.0594552328926158,-0.11152628787351
7.2875,-0.069492592353152,-0.105172833287479
7.305,-0.0780647228831235,-0.099131414511451
7.3225,-0.0857242259822059,-0.0938454060986166
7.34,-0.0931565628747853,-0.089453745965509
7.3575,-0.101031555372224,-0.0857604288252372
7.375,-0.109854784456135,-0.0822727496613726
7.3925,-0.120125205964409,-0.0781540312016223
7.41,-0.13127056054989,-0.0726082349987168
7.4275,-0.142726368233028,-0.0651402742148337
7.445,-0.153756092902904,-0.0555461504303081
7.4625,-0.163595626916268,-0.0439569517137478
7.48,-0.171601185965991,-0.030815520331114
7.4975,-0.177371074838468,-0.0167916068050065
7.515,-0.180817504200697,-0.00265350988338121
7.5325,-0.182175031042218,0.0108774198268245
7.55,-0.18194509619384,0.0232600816916137
7.5675,-0.180788906686679,0.0342283712906073
7.585,-0.179390997690726,0.0438291970064763
7.6025,-0.178321238787736,0.0523972540560889
7.62,-0.177922831105827,0.060472773270996
7.6375,-0.178248139488596,0.0686796950069339
7.655,-0.179054276135672,0.0775892485686468
7.6725,-0.179858269987261,0.0875963325028262
7.69,-0.180039865885832,0.0988330336501602
7.7075,-0.178970821438688,0.111135830391582
7.725,-0.176144748730449,0.124072150027303
7.7425,-0.171281916905015,0.13702020208444
7.76,-0.164388784431011,0.149285703861573
7.7775,-0.155761197165475,0.160232215977005
7.795,-0.145931298699657,0.169399558041515
7.8125,-0.135569066696972,0.176587488180179
7.83,-0.125494560280024,0.181781936739131
7.8475,-0.116204508523767,0.185585152410705
7.865,-0.107962780500722,0.188574800466318
7.8825,-0.100755526437619,0.191360174678682
7.9,-0.0943092293940171,0.194461450432729
7.9175,-0.0881574885201264,0.198209698588263
7.935,-0.0817425774037891,0.20268575593596
7.9525,-0.0745318253534035,0.207708291961395
7.97,-0.0661267233976506,0.212872028385411
7.9875,-0.0563446045706356,0.217627809766742
8.005,-0.0452582968410984,0.221388748629593
8.0225,-0.0331871872769963,0.223642255840101
8.04,-0.0206454080303569,0.223999544020456
8.0575,-0.00830243815032499,0.222372528318127
8.075,0.00324191422892059,0.219001353363281
8.0925,0.0135397379068651,0.214292272387187
8.11,0.0223517856386111,0.208784714317258
8.1275,0.0296810298714547,0.203050787108494
8.145,0.0357609620629109,0.197591020494409
8.1625,0.0410015955832925,0.192745486512173
8.18,0.045903733085997,0.188636336299539
8.1975,0.0509576565421831,0.185151874060219
8.215,0.0565450320007723,0.181974636024569
8.2325,0.0628620580825329,0.178647926072672
8.25,0.0698778913025975,0.174668305093957
8.2675,0.077393197419122,0.169461990517193
8.285,0.084799668498167,0.162827087764677
8.3025,0.0915555803168252,0.15474261047833
8.32,0.0971521614962101,0.1454147276017
8.3375,0.101205074041719,0.135240397105882
8.355,0.103521456378335,0.124736551045257
8.3725,0.10413064167792,0.114448441498812
8.39,0.103273478781987,0.104854353918229
8.4075,0.101352829817801,0.0962843228736943
8.425,0.0988549092316299,0.0888677014965597
8.4425,0.0962563860693991,0.0825189738867089
8.46,0.0939346579333104,0.076964071595438
8.4775,0.0920979899455336,0.0718019665142222
8.495,0.0907484448900761,0.0665898261000666
8.5125,0.089684411853389,0.0609357071390646
8.53,0.0885421922985218,0.0545814072807402
8.5475,0.086868865294163,0.0474599288072136
8.565,0.0842128448573961,0.0397166987500779
8.5825,0.0802152199654908,0.0316903807361863
8.6,0.0746847409111182,0.0238565923290525
8.6175,0.0676422364528371,0.0167447492600484
8.635,0.0593257994912602,0.0108433346789463
8.6525,0.0501552732304316,0.00651120132342771
8.67,0.0406621111594071,0.00391161202930303
8.6875,0.0313972046696478,0.00298173818767585
8.705,0.0230310904140111,0.00349661481822579
8.7225,0.0156857181519694,0.00479079200939329
8.74,0.00934728096290345,0.00636104682153556
8.7575,0.00379126470665332,0.00778123010871299
8.775,-0.00136181471214118,0.00878333379775334
8.7925,-0.00656210476947011,0.00930674266671681
8.81,-0.012233767240514,0.00950678564540273
8.8275,-0.0186843794577873,0.00972137804623857
8.845,-0.0260375221904032,0.0104024069378345
8.8625,-0.0342012484221449,0.0120251082451905
8.88,-0.0428783210269567,0.0149927956311194
8.8975,-0.051616195703029,0.019555159388442
8.915,-0.0598871791881093,0.025755785863068
8.9325,-0.0671834260446565,0.0334190160552138
8.95,-0.0731085466782445,0.0421787839362354
8.9675,-0.0774481551372438,0.0515440446348563
8.985,-0.0802056175269091,0.0609883350554962
9.0025,-0.0815958620380628,0.0700462597380538
9.02,-0.0819981540876603,0.0783981988416579
9.0375,-0.08187670477913,0.0859266249736258
9.055,-0.0816843358128753,0.0927327432486286
9.0725,-0.0817679181324466,0.0991097585805817
9.09,-0.0822942114681052,0.105477495610121
9.1075,-0.0832110124962837,0.112290730842692
9.125,-0.0842518287444824,0.119938944616632
9.1425,-0.0849403887679455,0.128831066356345
9.16,-0.0846675728028088,0.138744884584844
9.1775,-0.0829965992319476,0.149392342296752
9.195,-0.0796430915056929,0.160322535152063
9.2125,-0.074528762545597,0.171002833629453
9.23,-0.0677949226404098,0.180914351200595
9.2475,-0.0597738912851708,0.189643133068431
9.265,-0.0509245367089223,0.196949546876119
9.2825,-0.0417450038757482,0.202802826727372
9.3,-0.0326799176216911,0.207374655097817
9.3175,-0.0240401743046704,0.210993696129579
9.335,-0.015950740556404,0.214070551171522
9.3525,-0.00833622347059628,0.217008233189461
9.37,-0.000946493828098931,0.220115880150573
9.3875,0.00658319243254268,0.223542572946342
9.405,0.0146497914537782,0.227243996699011
9.4225,0.0235942098707726,0.230988125703597
9.44,0.0336245657775613,0.234398426154897
9.4575,0.044765917360874,0.237025765493729
9.475,0.0568460865261599,0.238434709191014
9.4925,0.0695200731619206,0.238287224218171
9.51,0.0823280169355132,0.236407476622766
9.5275,0.0947751850370993,0.232815238954259
9.545,0.106418288830481,0.227721632102008
9.5625,0.116941340128016,0.221488285398611
9.58,0.126066942711188,0.214599531546994
9.5975,0.134051703520003,0.20756026039414
9.615,0.141180714057362,0.200672325780498
9.6325,0.147820829231873,0.194063047319844
9.65,0.154335417519937,0.187671116294966
9.6675,0.161002800731214,0.181270514845389
9.685,0.167954145111082,0.174526601406486
9.7025,0.175142317491211,0.167072471583316
9.72,0.18234688001627,0.158590136705475
9.7375,0.189213247610101,0.148880583926267
9.755,0.195317473616508,0.137909392131863
9.7725,0.200243405189076,0.12581968407535
9.79,0.203656915916484,0.112910742721201
9.8075,0.205362892473181,0.0995873096311244
9.825,0.205334353923853,0.0862901271489727
9.8425,0.203708730683953,0.0734216531882821
9.86,0.200752790331554,0.0612814826909164
9.8775,0.196803712350753,0.0500238122619625
9.895,0.192198247767397,0.0396447782530346
9.9125,0.187203949522748,0.0300016026610217
9.93,0.181965798041159,0.0208593523942966
9.9475,0.176478369110583,0.0119559237233116
9.965,0.170588663571842,0.00307256372729543
9.9825,0.164028836537453,-0.0059035915362786
10,0.156472457018836,-0.0149367527688527
