"Freq [GHz]","re(S(Antenna1_1_1,Antenna1_1_1)) []","im(S(Antenna1_1_1,Antenna1_1_1)) []"
3,-0.202633192517393,-0.161863361722326
3.0175,-0.210206961989113,-0.146009305490794
3.035,-0.216375484077277,-0.129890076665135
3.0525,-0.221192894011318,-0.113639918424154
3.07,-0.224726537984073,-0.0973607567499744
3.0875,-0.227045074882516,-0.0811219207074111
3.105,-0.228206389504493,-0.0649630270832729
3.1225,-0.228245847059642,-0.0489012986856398
3.14,-0.227167115712917,-0.0329443441696418
3.1575,-0.224938949658642,-0.01710768280633
3.175,-0.221500926194047,-0.0014338059413757
3.1925,-0.216778917451267,0.013992363670097
3.21,-0.210707772166943,0.0290369297218935
3.2275,-0.203253609948898,0.043529147826307
3.245,-0.194429659376488,0.0572611979941647
3.2625,-0.184322024586022,0.0700170619418738
3.28,-0.173075630433695,0.0816168373004707
3.2975,-0.160874288990046,0.0919296211300073
3.315,-0.147916184097938,0.100881070153784
3.3325,-0.134390855068374,0.108448768874747
3.35,-0.12046298790853,0.114648963221718
3.3675,-0.106265086790088,0.119519880254212
3.385,-0.0918979394126257,0.123106244085713
3.4025,-0.0774360359784052,0.125447463639757
3.42,-0.0629352137697445,0.126569670796361
3.4375,-0.0484412200604872,0.126480566898651
3.455,-0.0339984749540284,0.125196471753813
3.4725,-0.019638792893579,0.122646060494116
3.49,-0.00544945273672149,0.118760629053346
3.5075,0.0084373084377487,0.113471048910048
3.525,0.0218413205015739,0.106730635392772
3.5425,0.0345433664382429,0.0985395178021344
3.56,0.0463064642228276,0.0889637496966442
3.5775,0.0569058766499105,0.0781425444832556
3.595,0.0661605931399724,0.0662798552954434
3.6125,0.073957706396613,0.0536211838024833
3.63,0.0802628125028797,0.040421231717455
3.6475,0.0851137591511567,0.0269109084451825
3.665,0.0885950506646196,0.0132934753032499
3.6825,0.0908475871498762,-0.000309626812824118
3.7,0.0919893475129312,-0.0138759491114457
3.7175,0.0920856246920535,-0.0274054525591002
3.735,0.0911533832087256,-0.0409131089747986
3.7525,0.0891628118325017,-0.0544048124434919
3.77,0.08604718201869,-0.0678571194039587
3.7875,0.0817187136203248,-0.0812021581505199
3.805,0.0760891307140687,-0.0943185233180459
3.8225,0.0690939728900634,-0.107029728673711
3.84,0.0607186201243762,-0.119112763220484
3.8575,0.0510216040631956,-0.130319015482082
3.875,0.0401484479692063,-0.14040734910763
3.8925,0.0283351136610333,-0.1491060641433
3.91,0.0159346407712703,-0.156408001905277
3.9275,0.00322965873774257,-0.162363726079269
3.945,-0.0095608186776892,-0.167116103645773
3.9625,-0.0223179025840443,-0.170858884155447
3.98,-0.035033967834102,-0.17378065774005
3.9975,-0.0477932230916682,-0.176009622037147
4.015,-0.0607258684336807,-0.177575658585408
4.0325,-0.073948694263359,-0.178401705385056
4.05,-0.0875098067335466,-0.178327561364647
4.0675,-0.101354214397123,-0.177159032338449
4.085,-0.115320455715318,-0.174727305511608
4.1025,-0.129168532959321,-0.170940446685202
4.12,-0.142629612924159,-0.165811942997821
4.1375,-0.155461628946726,-0.159459066980131
4.155,-0.167494088120065,-0.152073629786112
4.1725,-0.178650019734562,-0.143875984995085
4.19,-0.188941134791605,-0.13506724368526
4.2075,-0.198440857993315,-0.125793551171789
4.225,-0.207246012052567,-0.116130857442547
4.2425,-0.21543981587848,-0.106091200746386
4.26,-0.22306642294157,-0.0956448559970502
4.2775,-0.230121906968481,-0.084748901086267
4.295,-0.236560630897424,-0.0733726485707935
4.3125,-0.242311424845081,-0.0615133916309176
4.33,-0.247308384401105,-0.0491618706144655
4.3475,-0.251438967696286,-0.036413177882322
4.365,-0.254654269639281,-0.0233543815287522
4.3825,-0.25692469855393,-0.0100743851511918
4.4,-0.258232891563727,0.0033404008081782
4.4175,-0.258568229773344,0.0168042677547363
4.435,-0.257926235910516,0.0302274660235901
4.4525,-0.256313386556735,0.0435128071810779
4.47,-0.253755098155739,0.0565572462984535
4.4875,-0.250302796610316,0.0692599725138658
4.505,-0.246035655266407,0.0815357296571633
4.5225,-0.241053926431115,0.0933295024505541
4.54,-0.235463463257458,0.104627208530451
4.5575,-0.229354289705641,0.115457242977071
4.575,-0.222778924591666,0.12587980048228
4.5925,-0.215737576743567,0.135964464163228
4.61,-0.208176559286611,0.145760661932137
4.6275,-0.200003166673017,0.155268945693002
4.645,-0.191115439157872,0.164422336560699
4.6625,-0.181440058929147,0.173085357362665
4.68,-0.170967828271064,0.181073876265352
4.6975,-0.159775345235944,0.188192594790509
4.715,-0.148024385201849,0.194280852958153
4.7325,-0.135936649647518,0.199253578439432
4.75,-0.123749229940468,0.203124334278609
4.7675,-0.111740028853455,0.206017503685253
4.785,-0.099919725755277,0.208156653252692
4.8025,-0.0882686545522192,0.209695309897443
4.82,-0.0767014674781895,0.210730252704483
4.8375,-0.0651072162698009,0.21127904659525
4.855,-0.0533938514567797,0.211281629370808
4.8725,-0.0415239508331133,0.210623982510045
4.89,-0.0295319278781593,0.209175286712987
4.9075,-0.0175193768739405,0.20682643689174
4.925,-0.0056322923167066,0.203518434618467
4.9425,0.00597080353061012,0.199253543971052
4.96,0.0171489949267632,0.194088429263809
4.9775,0.0277985984526577,0.188114412866744
4.995,0.0378583437078626,0.181433423581287
5.0125,0.0473017441023308,0.174138153705835
5.03,0.0561224521297055,0.166301808524959
5.0475,0.0643197218749529,0.157978171320456
5.065,0.0718894249534396,0.149208533383911
5.0825,0.0788224350159459,0.140029979757524
5.1,0.0851083658558856,0.130480183139445
5.1175,0.0907402993997929,0.120596647778613
5.135,0.0957161758771779,0.110411806242428
5.1525,0.100034733517838,0.0999478645349158
5.17,0.103687122980788,0.0892157083809518
5.1875,0.106648031470043,0.0782204004424456
5.205,0.108871081471054,0.066972673765202
5.2225,0.110291994439125,0.0555027839358642
5.24,0.110840077186079,0.0438714697985276
5.2575,0.110455238535932,0.032173292948624
5.275,0.109105355005163,0.0205300725012234
5.2925,0.106798316132407,0.00907552157338872
5.31,0.103584637863054,-0.00206478419753489
5.3275,0.0995494877565827,-0.012792408538473
5.345,0.0947962005192454,-0.0230486828044889
5.3625,0.0894257669124344,-0.0328176170589674
5.38,0.0835176683938566,-0.0421185827827153
5.3975,0.077116730919597,-0.05099094698548
5.415,0.0702288374381697,-0.0594746358738799
5.4325,0.0628260727955166,-0.0675912001245256
5.45,0.0548598187078112,-0.0753294616818465
5.4675,0.0462788510089184,-0.0826386108769215
5.485,0.0370487153683024,-0.0894300807608569
5.5025,0.0271685078929373,-0.0955879168620727
5.52,0.0166815919529837,-0.10098582138137
5.5375,0.0056777386915005,-0.105507694334202
5.555,-0.00571429972064388,-0.109067523302856
5.5725,-0.0173427924934911,-0.111624198809936
5.59,-0.0290545144836677,-0.113187554225678
5.6075,-0.0407169672076019,-0.113813734667861
5.625,-0.052236017248742,-0.113590593372596
5.6425,-0.0635297267235087,-0.112638538209951
5.66,-0.0746551641422226,-0.111046463029048
5.6775,-0.0856529742627964,-0.108851749012808
5.695,-0.0965646164824867,-0.106048842507383
5.7125,-0.107412283771013,-0.102596762495482
5.73,-0.118186140743,-0.0984341367220212
5.7475,-0.128840707265265,-0.0934965742024344
5.765,-0.139299057862491,-0.0877316331149316
5.7825,-0.149461500529545,-0.0811087640765394
5.8,-0.159215252604322,-0.0736242276836716
5.8175,-0.168443112821806,-0.0653027788788683
5.835,-0.177031196286293,-0.0561980670956766
5.8525,-0.184877148849272,-0.0463923303538676
5.87,-0.191900012144607,-0.0359940420475935
5.8875,-0.198051108497014,-0.0251310418844878
5.905,-0.203322939874153,-0.0139373324897854
5.9225,-0.207751611900643,-0.00253420729334318
5.94,-0.211408899034536,0.00899030617947357
5.9575,-0.21438301619202,0.020597197465827
5.975,-0.216751519284146,0.0323007529290681
5.9925,-0.218553717672806,0.0441574588880522
6.01,-0.219771651920665,0.05624060792883
6.0275,-0.220326978719847,0.0686070613357622
6.045,-0.220096305180459,0.0812661604310283
6.0625,-0.218941290443667,0.0941608511780774
6.08,-0.216722570202794,0.107187430919296
6.0975,-0.213385348979116,0.120130816120755
6.115,-0.208948295873295,0.132800413461857
6.1325,-0.203492588988325,0.145032063949443
6.15,-0.197139010307098,0.156710274536846
6.1675,-0.19001963806408,0.167774965969836
6.185,-0.182253029235681,0.178213869215877
6.2025,-0.173928834017351,0.188046006489313
6.22,-0.1651032890004,0.197303182309035
6.2375,-0.155803048751303,0.206014979589441
6.255,-0.146032888923275,0.214199552362806
6.2725,-0.135783371660457,0.221859288705342
6.29,-0.125036834241436,0.228978694964813
6.3075,-0.113772561170128,0.235522215655055
6.325,-0.101973306424899,0.241431632527827
6.3425,-0.0896347702358673,0.246624897961177
6.36,-0.0767775553473586,0.250999389856756
6.3775,-0.0634586831573109,0.254441867578889
6.395,-0.0497782930525478,0.256845057497489
6.4125,-0.0358775654590966,0.258127835536555
6.43,-0.0219262055817665,0.258253760565866
6.4475,-0.00810114131771783,0.257242287935956
6.465,0.00543888178435817,0.255168619604576
6.4825,0.0185765420766387,0.252151230996161
6.5,0.0312511403140054,0.248329514851988
6.5175,0.0434338075983139,0.243880367899494
6.535,0.0552441143323922,0.238877602467715
6.5525,0.0667687859568551,0.233341978169096
6.57,0.0780823715995904,0.227232418654572
6.5875,0.0892192511776483,0.220457475037447
6.605,0.100152747980225,0.212898292780386
6.6225,0.110785843420368,0.20443944465592
6.64,0.120956450648191,0.19500222523265
6.6575,0.130457851687374,0.184573710880874
6.675,0.139071777453175,0.173224592058389
6.6925,0.146608176559379,0.161110073033962
6.71,0.152942916123827,0.148451304254603
6.7275,0.158043645292092,0.135499510352239
6.745,0.161975722022345,0.1224900807207
6.7625,0.164884568527058,0.109597760178197
6.78,0.166957142637852,0.0969051309353089
6.7975,0.168371555833342,0.0843939670926611
6.815,0.169248082015619,0.0719631422099632
6.8325,0.169615224815557,0.0594692077345727
6.85,0.169400683457192,0.0467789350639874
6.8675,0.168450002053572,0.0338193492122466
6.885,0.166567627988863,0.0206114385147695
6.9025,0.163568686620284,0.00727864923663982
6.92,0.159327096509951,-0.00597118137971506
6.9375,0.153807470645896,-0.0188841753552646
6.955,0.147012262990566,-0.0311627759674855
6.9725,0.1392032756604,-0.0426025381395988
6.99,0.130598191409178,-0.053107356592422
7.0075,0.121406156463224,-0.0626658136942591
7.025,0.11179619555786,-0.0713313696684676
7.0425,0.101880337020222,-0.079193971535899
7.06,0.0917113473350219,-0.0863512111563834
7.0775,0.0812915109829321,-0.0928847781272555
7.095,0.0705876673723477,-0.0988446983001194
7.1125,0.0595484523983339,-0.104241182956934
7.13,0.0481213737891505,-0.109042678842607
7.1475,0.0362688099491374,-0.113178883395221
7.165,0.0239825023378928,-0.116548357432477
7.1825,0.0112955594799211,-0.119030980734191
7.2,-0.0017100064312512,-0.120505184227834
7.2175,-0.0149027696474441,-0.120868588347105
7.235,-0.0281104580467095,-0.120058923316165
7.2525,-0.0411379088702132,-0.11807077196459
7.27,-0.0537922204226158,-0.11496353142041
7.2875,-0.065910501203152,-0.110857356586579
7.305,-0.0773842015631235,-0.105916454861551
7.3225,-0.0881741480483059,-0.100322207263617
7.34,-0.0983121255401853,-0.094241283761509
7.3575,-0.107887712435124,-0.0877954471842372
7.375,-0.117022326560135,-0.0810397280121326
7.3925,-0.125901520986409,-0.0739764236751223
7.41,-0.13454980910889,-0.0664348788655168
7.4275,-0.142941927029028,-0.0582858934588337
7.445,-0.150975578970504,-0.0494158471623081
7.4625,-0.158485773020478,-0.0397617265597478
7.48,-0.165273858291191,-0.029336251689114
7.4975,-0.171145396996468,-0.0182372859988065
7.515,-0.175948835705696,-0.00663887609028121
7.5325,-0.179606363711218,0.00523479453912449
7.55,-0.18212965269184,0.0171473076006137
7.5675,-0.183616282107079,0.0288914884586073
7.585,-0.184227031179726,0.0403248803054763
7.6025,-0.184148890869736,0.0513906195070889
7.62,-0.183552406760827,0.062118376669796
7.6375,-0.182553688421596,0.0726048822681338
7.655,-0.181190467345672,0.0829787689622468
7.6725,-0.179418060418161,0.0933585681838262
7.69,-0.177125906805432,0.10381446045416
7.7075,-0.174169966983888,0.114343225105582
7.725,-0.170412283284449,0.124862089691303
7.7425,-0.165757558969015,0.13522198682324
7.76,-0.160178054222011,0.145235676156273
7.7775,-0.153721829560475,0.154712773620005
7.795,-0.146504095593067,0.163492834692515
7.8125,-0.138685637043282,0.171469267194179
7.83,-0.130464526606024,0.178568262659131
7.8475,-0.122010984694767,0.184864923491605
7.865,-0.113443708007722,0.190438794974418
7.8825,-0.104832652501619,0.195389960268182
7.9,-0.0961988991700172,0.199818345227929
7.9175,-0.0875213432440164,0.203806054048263
7.935,-0.0787481436326691,0.20740391445796
7.9525,-0.0698114498764035,0.210622687034395
7.97,-0.0606443958456506,0.213429457762111
7.9875,-0.0511991817246356,0.215750140518142
8.005,-0.0414642107370984,0.217479084187793
8.0225,-0.0314771738759963,0.218495976422101
8.04,-0.0213270668978569,0.218678737438456
8.0575,-0.011168805259225,0.217945773382127
8.075,-0.00118431445847941,0.216290120810281
8.0925,0.00845171817486506,0.213762885898687
8.11,0.0175945013226111,0.210475852326558
8.1275,0.0261540752864547,0.206582690955794
8.145,0.0341088388797109,0.202249869764409
8.1625,0.0415036808775925,0.197624070352173
8.18,0.048432750791397,0.192804160919539
8.1975,0.0550110112210831,0.187824690015219
8.215,0.0613416171137723,0.182654795272669
8.2325,0.0674870157415329,0.177212368405142
8.25,0.0734503283315975,0.171389548867757
8.2675,0.079188516651322,0.165053861518193
8.285,0.084539401770197,0.158155716160677
8.3025,0.0893520334915252,0.15069907124633
8.32,0.0934791733292101,0.1427493545474
8.3375,0.0968020963277186,0.134425503141182
8.355,0.0992492602913348,0.125883236436957
8.3725,0.10080647250992,0.117292866995712
8.39,0.101517456444987,0.108815192786229
8.4075,0.101474782433781,0.100579068745694
8.425,0.10080222564353,0.0926642521975597
8.4425,0.0996309610203991,0.0850928564206089
8.46,0.0980735148293104,0.077831850784138
8.4775,0.0962006158825336,0.0708072512622222
8.495,0.0940263777195761,0.0639280791754666
8.5125,0.091506080620789,0.0571154373180646
8.53,0.0885481600663218,0.0503300841117402
8.5475,0.085038415784263,0.0435915454212136
8.565,0.0808709940113961,0.0369834948032779
8.5825,0.0759785420634908,0.0306435485952563
8.6,0.0703539111251182,0.0247397833895525
8.6175,0.0640580012619371,0.0194398737500484
8.635,0.0572121236092602,0.0148806084769463
8.6525,0.0499773744258316,0.0111451171734277
8.67,0.0425266720568071,0.00825267328930303
8.6875,0.0350164092076478,0.00616236328377585
8.705,0.0276081023890111,0.00478633728206579
8.7225,0.0203120663359694,0.00398233077299328
8.74,0.0131200687340035,0.00365714808753556
8.7575,0.00598879839335332,0.00375045845371299
8.775,-0.00114143194474118,0.00424433025075334
8.7925,-0.00832684102367011,0.00516462951151681
8.81,-0.015601864950514,0.00657492497840273
8.8275,-0.0229646009367873,0.00856392914003858
8.845,-0.0303680902185032,0.0112279310714345
8.8625,-0.0377193347587449,0.0146504653605905
8.88,-0.0448872203076767,0.0188825123291194
8.8975,-0.051718980687629,0.023927322804442
8.915,-0.0580626837920093,0.029733844049468
8.9325,-0.0637911337756565,0.0362012759192138
8.95,-0.0688214642422445,0.0431946437043354
8.9675,-0.0731252273775438,0.0505681739740563
8.985,-0.0767260603497091,0.0581907873528962
9.0025,-0.0796854165717628,0.0659671583780538
9.02,-0.0820802553342603,0.0738489700018579
9.0375,-0.08397879159313,0.0818338702876258
9.055,-0.0854206507398753,0.0899532215877386
9.0725,-0.0864060341391466,0.0982527594349817
9.09,-0.0868955112716052,0.106771747843221
9.1075,-0.0868189682421837,0.115525783287592
9.125,-0.0860901413986824,0.124496472980132
9.1425,-0.0846042600154455,0.133651880884345
9.16,-0.0822924210890088,0.142861830665244
9.1775,-0.0791199386316476,0.152006933137052
9.195,-0.0750854604723929,0.160959616293063
9.2125,-0.070221463132697,0.169595507682153
9.23,-0.0645913609303098,0.177804489976195
9.2475,-0.0582829601661708,0.185500725360231
9.265,-0.0513980926746223,0.192630249312419
9.2825,-0.0440391162240482,0.199174191732672
9.3,-0.0362942828218911,0.205145876673867
9.3175,-0.0282251052789704,0.210581214037299
9.335,-0.019859125532304,0.215523652758822
9.3525,-0.0111905562379963,0.220006833052961
9.37,-0.00218930255479893,0.224039172568773
9.3875,0.00718348215334268,0.227594427848242
9.405,0.0169570521635782,0.230610775042811
9.4225,0.0271344502020726,0.232998656932177
9.44,0.0376815338148613,0.234655346932397
9.4575,0.048523905581374,0.235482636010529
9.475,0.0595519249282599,0.235403655296814
9.4925,0.0706321862297206,0.234375532347671
9.51,0.0816228044319132,0.232395897042066
9.5275,0.0923896253852993,0.229502644736859
9.545,0.102820809641181,0.225767431386668
9.5625,0.112837746086616,0.221284031952711
9.58,0.122376785610688,0.216176668379594
9.5975,0.131484664682103,0.21052872396624
9.615,0.140196754665062,0.204387371360798
9.6325,0.148552395466173,0.197760640486844
9.65,0.156575483631337,0.190619722247366
9.6675,0.164257538541614,0.182910127985489
9.685,0.171547360809482,0.174570011026086
9.7025,0.178350336587811,0.165551922058416
9.72,0.18453829985683,0.155842928881175
9.7375,0.189968137319801,0.145477980145667
9.755,0.194504823058608,0.134542853239763
9.7725,0.198043151956376,0.12316569263241
9.79,0.200522650487084,0.111499243898501
9.8075,0.201931990552081,0.0996984406105244
9.825,0.202302155311953,0.0878991805280727
9.8425,0.201690668084253,0.0762035743237821
9.86,0.200161428963378,0.0646749033504164
9.8775,0.197765466379553,0.0533427178681625
9.895,0.194527103481297,0.0422158828404946
9.9125,0.190438103861748,0.0312997204990217
9.93,0.185460067087059,0.0206130655141966
9.9475,0.179533464355493,0.0102018876071116
9.965,0.172590721609342,0.000147614208895425
9.9825,0.164570724012253,-0.0094302433318786
10,0.155432710795436,-0.0183765682367527
