"Freq [GHz]","re(S(Antenna1_1_p1,Antenna1_1_p1)) []","im(S(Antenna1_1_p1,Antenna1_1_p1)) []"
3,0.110368836002387,-0.008822669786587
3.002,0.112850387563,-0.0107970492791278
3.004,0.115260553181926,-0.012880317398213
3.006,0.117618468185517,-0.0150999732118325
3.008,0.119912737430052,-0.0174363110960777
3.01,0.121913405423275,-0.0199927345428913
3.012,0.124307511145997,-0.0224358982472454
3.014,0.126236973163707,-0.02516497567384
3.016,0.12825026001819,-0.027935626853087
3.018,0.130294547779242,-0.030772794126679
3.02,0.132132058646393,-0.033741602042505
3.022,0.13385818404066,-0.036853457519112
3.024,0.135509984946381,-0.040030156929568
3.026,0.137043596253118,-0.043301581944792
3.028,0.138477501737596,-0.046665648986353
3.03,0.139797276725707,-0.050099087348811
3.032,0.141011033384637,-0.053625348201385
3.034,0.141950096905011,-0.05719784491926
3.036,0.143086240303153,-0.060893228974279
3.038,0.143945884993437,-0.064635102845175
3.04,0.144675847690702,-0.068437284247268
3.042,0.145278807292807,-0.072290376971676
3.044,0.14574976368324,-0.076209410624039
3.046,0.14609500417387,-0.080159530512736
3.048,0.146311455877786,-0.084167491026616
3.05,0.146356452172269,-0.088198002312254
3.052,0.146308110631858,-0.092290144900705
3.054,0.14610079410155,-0.096391177283839
3.056,0.145768880390133,-0.100496113550182
3.058,0.14525658211365,-0.104665286090212
3.06,0.144442586208976,-0.10871139147134
3.062,0.143856357987563,-0.113000153340313
3.064,0.142934209059285,-0.117162694261263
3.066,0.141864093566472,-0.121321153031394
3.068,0.140652950518075,-0.125485749628156
3.07,0.139299692813963,-0.1296266651359
3.072,0.137802627169415,-0.133743471402082
3.074,0.136156318689738,-0.137852703741131
3.076,0.134367730615065,-0.141904986348602
3.078,0.132340694365313,-0.145814464932142
3.08,0.13023946383529,-0.149757220520073
3.082,0.128157467580031,-0.15387034390249
3.084,0.125806324520247,-0.157767999340999
3.086,0.123198487737967,-0.161404569058127
3.088,0.120686146662405,-0.165367382576151
3.09,0.11794046318595,-0.169071115475669
3.092,0.115049951500368,-0.172707996713825
3.094,0.111970612913211,-0.176103931421958
3.096,0.1088884013544,-0.179732377363094
3.098,0.105645587452986,-0.183126191028897
3.1,0.102253877054146,-0.186433499736316
3.102,0.0987527875763232,-0.18961393215408
3.104,0.0951293232688112,-0.192711923157592
3.106,0.091404262588891,-0.195706525156469
3.108,0.0876004747900803,-0.198596274337813
3.11,0.0836434256999295,-0.201369340791959
3.112,0.0796075239282531,-0.204039065966783
3.114,0.0754984953755584,-0.206560951741964
3.116,0.0712809670817158,-0.208990405012707
3.118,0.0669706406748076,-0.21128027962327
3.12,0.0625938117301886,-0.213443100770144
3.122,0.0581514475398488,-0.215458656704856
3.124,0.0536095763618793,-0.217355593626503
3.126,0.0490187120702858,-0.219109581783957
3.128,0.0443661854549227,-0.220719097947773
3.13,0.0396590811617671,-0.222179270701722
3.132,0.0348901173433201,-0.223508102764102
3.134,0.030091842349284,-0.224680931858731
3.136,0.025311231847521,-0.225554439975617
3.138,0.0203394474251748,-0.226592799371332
3.14,0.0154498091200765,-0.227323258499134
3.142,0.0105002328143442,-0.22788875141881
3.144,0.00554707441830222,-0.228306259626205
3.146,0.00058014263454882,-0.228575968962471
3.148,-0.00440471046063422,-0.228687791893098
3.15,-0.00936272448171211,-0.228663964326622
3.152,-0.014360027662063,-0.228452413963115
3.154,-0.019333617167823,-0.22810797371237
3.156,-0.0242785272115792,-0.227595923291885
3.158,-0.0292043165177657,-0.226926285884539
3.16,-0.0341167585918068,-0.226133127056072
3.162,-0.038985130467004,-0.225161544242263
3.164,-0.0438093136802148,-0.22404507555596
3.166,-0.0486069076771991,-0.22278624104377
3.168,-0.0533561709577878,-0.221367247012574
3.17,-0.0580455340707379,-0.219824391795821
3.172,-0.062523890248365,-0.218056892279584
3.174,-0.067026600060902,-0.216194041508355
3.176,-0.0717523097805904,-0.214325121210713
3.178,-0.0761806658255646,-0.212204526494705
3.18,-0.0805376555433719,-0.209960231143031
3.182,-0.0847853614243407,-0.207579353528046
3.184,-0.0889749756746394,-0.205088733026555
3.186,-0.0930490839790488,-0.202482824194373
3.188,-0.0970546680935233,-0.19973276101075
3.19,-0.100774276937436,-0.196857378122557
3.192,-0.104725429485612,-0.193921334118312
3.194,-0.108413431110058,-0.190831808891998
3.196,-0.111799909191438,-0.187676581456725
3.198,-0.115432984110296,-0.184379894908217
3.2,-0.118578006757976,-0.181034374778068
3.202,-0.121964709737349,-0.177572067216932
3.204,-0.124816269383184,-0.174057830167445
3.206,-0.12801383067231,-0.170394089237038
3.208,-0.1308336235735,-0.166684894250586
3.21,-0.133534664757078,-0.16291137079289
3.212,-0.136074178464274,-0.159084118981009
3.214,-0.138339677286276,-0.155253630766442
3.216,-0.140792197833078,-0.151233211007167
3.218,-0.14291096841198,-0.147251489149524
3.22,-0.14492627940589,-0.143182465230005
3.222,-0.14676098335131,-0.139121790926815
3.224,-0.148471708756102,-0.134998017215418
3.226,-0.150048918326918,-0.13086073055885
3.228,-0.151463261696416,-0.126684536633254
3.23,-0.152746005540207,-0.122511066090507
3.232,-0.153723548393491,-0.118441375157175
3.234,-0.15483682920748,-0.114123927558403
3.236,-0.155677133095483,-0.109921844846159
3.238,-0.156363087818818,-0.105725813190569
3.24,-0.156912430672369,-0.101543718977458
3.242,-0.157306489149906,-0.097386464303793
3.244,-0.157570347979168,-0.093237428297981
3.246,-0.157682952116613,-0.089119689350128
3.248,-0.15757248926198,-0.085210000092137
3.25,-0.157422218792499,-0.081147670687781
3.252,-0.157203937846923,-0.076979009242633
3.254,-0.156784411019223,-0.073008646493938
3.256,-0.156207478822031,-0.069098948940383
3.258,-0.155526483539864,-0.065253029091805
3.26,-0.154647536772013,-0.061644386318794
3.262,-0.153730287285231,-0.057753831572253
3.264,-0.152686789536102,-0.054096894932867
3.266,-0.151503517323173,-0.050512874710483
3.268,-0.150212517708843,-0.047023355993469
3.27,-0.148795896440925,-0.043613125377985
3.272,-0.14727482945403,-0.040291043967156
3.274,-0.145650974750596,-0.037035151100265
3.276,-0.143945982591741,-0.033926534771829
3.278,-0.142129410627794,-0.030882936370619
3.28,-0.14024290303858,-0.027924080668684
3.282,-0.138229090523474,-0.025107367210279
3.284,-0.136179237721142,-0.022370443770745
3.286,-0.134013300909069,-0.019746826805387
3.288,-0.131850076112811,-0.017581467608274
3.29,-0.129490807784976,-0.014864151791023
3.292,-0.127130505133971,-0.012597600221529
3.294,-0.124714005402459,-0.010441327102683
3.296,-0.122242177525602,-0.008426143881055
3.298,-0.119726005969017,-0.006505722345541
3.3,-0.117152528456485,-0.00473187629597699
3.302,-0.114558408027401,-0.0030767628317829
3.304,-0.111924664173971,-0.0015470512804987
3.306,-0.109257757402186,-0.000160244576394603
3.308,-0.106567303444481,0.0011237018709884
3.31,-0.103847192584583,0.00225768671832199
3.312,-0.101123838075738,0.00328201635989951
3.314,-0.098419949038602,0.00417303966917949
3.316,-0.095813372148956,0.00477826787021769
3.318,-0.092934689339156,0.0055336290191676
3.32,-0.090416888804918,0.00587986556576581
3.322,-0.087513831906244,0.0064291448148098
3.324,-0.084801694234161,0.0066450612076291
3.326,-0.082133177895144,0.0067837086335574
3.328,-0.079496230545334,0.0067603512914093
3.33,-0.076878407524514,0.00662490846089479
3.332,-0.074300315089803,0.0063819126541011
3.334,-0.071762396139151,0.0060169999968709
3.336,-0.069272693894604,0.00553202871021441
3.338,-0.066844638655247,0.0049157587717166
3.34,-0.064463194550002,0.0042234209668558
3.342,-0.062146662180126,0.0033778808803635
3.344,-0.059890312541499,0.00243686360751749
3.346,-0.057705948536659,0.00138958010542969
3.348,-0.055603873406631,0.000269134374287092
3.35,-0.053546200732474,-0.000964255621454996
3.352,-0.051586492956631,-0.0023151942118617
3.354,-0.049913953354032,-0.0037489621404176
3.356,-0.047923490982974,-0.00525377145289619
3.358,-0.046233463725741,-0.0068477911563293
3.36,-0.044625704879048,-0.0085370292679887
3.362,-0.043129359994194,-0.0102894430144171
3.364,-0.041920585127034,-0.0120957534905198
3.366,-0.040390311127697,-0.0140293929586916
3.368,-0.039224641380099,-0.0159904142280128
3.37,-0.038310525631204,-0.0179778642934807
3.372,-0.037134405050098,-0.0201118304453162
3.374,-0.036480947806788,-0.0221806088583304
3.376,-0.035527936760842,-0.0244073375013154
3.378,-0.035142423689772,-0.0265265371065588
3.38,-0.03436763608718,-0.0288923879193595
3.382,-0.034172334640734,-0.0310962274776676
3.384,-0.033698315589887,-0.0335166620917444
3.386,-0.033531261763414,-0.035843154983935
3.388,-0.033509713996689,-0.0382033483434745
3.39,-0.033834824708798,-0.0404083396073831
3.392,-0.033975063369399,-0.0428278522774763
3.394,-0.034146766155402,-0.0453465987913839
3.396,-0.034626155887427,-0.0477272475657036
3.398,-0.035202784706031,-0.0500907078881993
3.4,-0.035911329697788,-0.0524551650421265
3.402,-0.036896763951073,-0.0546476601196012
3.404,-0.037711844071757,-0.0571242177160835
3.406,-0.038787124268559,-0.0594246656079242
3.408,-0.040009551668336,-0.06168572062605
3.41,-0.041318264911074,-0.0639045539366889
3.412,-0.042784232414713,-0.0661206811122155
3.414,-0.044342724689788,-0.0682674701220991
3.416,-0.04601803738385,-0.0703706170539436
3.418,-0.047868287565692,-0.0721821263646081
3.42,-0.049801701539408,-0.0741553997114765
3.422,-0.051703632428225,-0.0762533757737805
3.424,-0.053830644468167,-0.078123471754063
3.426,-0.056068888761508,-0.0798627653997225
3.428,-0.058366058400079,-0.0815756136946846
3.43,-0.060862697958331,-0.0829695334211962
3.432,-0.063333087706248,-0.0847045437816924
3.434,-0.065948174312069,-0.0861323057108036
3.436,-0.068633400654843,-0.0875199871374868
3.438,-0.071447266626747,-0.0887258811172454
3.44,-0.074301055865315,-0.0898839568345102
3.442,-0.077269368645395,-0.0909156065750755
3.444,-0.080298403901002,-0.0918525950387369
3.446,-0.083393525536934,-0.0926528140819866
3.448,-0.086565100740294,-0.0933849138908652
3.45,-0.089780668241751,-0.0939529077739478
3.452,-0.093019055886694,-0.0942174226854222
3.454,-0.096358848766179,-0.0945514271183464
3.456,-0.099801111287762,-0.0949996251879808
3.458,-0.103246887646086,-0.0951621489053249
3.46,-0.106711507653375,-0.0950613700106916
3.462,-0.11021090752974,-0.0949076723375298
3.464,-0.113735884783315,-0.0946152092562831
3.466,-0.11733329795024,-0.09419353556846
3.468,-0.120889893254509,-0.0936245100407953
3.47,-0.12449664343762,-0.0929268432895774
3.472,-0.128119999786117,-0.0921082005151271
3.474,-0.13172737153093,-0.0911255798863834
3.476,-0.135330534828026,-0.0900301589056884
3.478,-0.138958489864446,-0.0887716087636532
3.48,-0.142550265393248,-0.0873905520842444
3.482,-0.146129793350277,-0.0858423092099487
3.484,-0.149713530679791,-0.0841994822171627
3.486,-0.153246595831562,-0.0824024562216594
3.488,-0.156752800745227,-0.0804670642942589
3.49,-0.160236167456493,-0.0783913446266426
3.492,-0.163645206325232,-0.0761691087973103
3.494,-0.167025517983395,-0.0738243753177207
3.496,-0.170354166952865,-0.071339323588537
3.498,-0.173623397003101,-0.0687365152261169
3.5,-0.176615930228696,-0.0659159571790684
3.502,-0.179956627286824,-0.0631174538050349
3.504,-0.183045674074503,-0.0601208223176262
3.506,-0.186026085445821,-0.0569823044034859
3.508,-0.188924789018933,-0.0537634296995658
3.51,-0.191750545023048,-0.0503970238005278
3.512,-0.194484649765218,-0.0469319321563632
3.514,-0.197083819097046,-0.0433252573201
3.516,-0.199656005981291,-0.0396470965757682
3.518,-0.202061523588324,-0.0358242089764669
3.52,-0.204417699572516,-0.0319406970826526
3.522,-0.206609483688488,-0.0279168308405486
3.524,-0.20871503021727,-0.0238120294907851
3.526,-0.210359176672351,-0.0196503882071545
3.528,-0.212526614745635,-0.0153762898455833
3.53,-0.213984197163279,-0.0110522369632655
3.532,-0.215831148261472,-0.0065860907679638
3.534,-0.217297933732063,-0.0020886040575016
3.536,-0.218606536818135,0.0025027617005535
3.538,-0.219790333609494,0.007137694849104
3.54,-0.22057962371802,0.0117419238914222
3.542,-0.221720293263001,0.0165937134010213
3.544,-0.22247954629631,0.0213511474112127
3.546,-0.22306060224755,0.0262223807445896
3.548,-0.223549527149099,0.0310828359322344
3.55,-0.223812038801067,0.0360101806728438
3.552,-0.223950676556199,0.0409450279615516
3.554,-0.223957189704678,0.0459202182886826
3.556,-0.223756778158874,0.0508703603982487
3.558,-0.223460120338016,0.0558803865622887
3.56,-0.222980353252794,0.0608366777612724
3.562,-0.222157797489887,0.0656914413607256
3.564,-0.221545561996437,0.0708260112637101
3.566,-0.220585753664482,0.0758143055556854
3.568,-0.21947783871527,0.0807474264472709
3.57,-0.218221648483569,0.0856926468692099
3.572,-0.216783262701901,0.0905935767893531
3.574,-0.215207023284728,0.0954705399075179
3.576,-0.213469251812573,0.10028242947213
3.578,-0.211603120116098,0.105103537426669
3.58,-0.209529408250155,0.109812622785946
3.582,-0.207242190297755,0.114271342742169
3.584,-0.205006383774027,0.119074288870838
3.586,-0.202536802650117,0.123618510526425
3.588,-0.199904619917043,0.12809090820789
3.59,-0.197052577999549,0.132216210913994
3.592,-0.194160233049871,0.136538177868416
3.594,-0.191179371621522,0.141010204824679
3.596,-0.188013512413021,0.145132080850888
3.598,-0.184698908251576,0.149149378424302
3.6,-0.181292647126798,0.153037946675643
3.602,-0.177720734254316,0.156882686493311
3.604,-0.174031950689454,0.160345295697309
3.606,-0.170268568560802,0.164173476373068
3.608,-0.166352163563851,0.167632025885005
3.61,-0.162342054814548,0.170976121349927
3.612,-0.158246322592881,0.174211854130241
3.614,-0.15404832175643,0.177288999136968
3.616,-0.149761548433914,0.180223103582559
3.618,-0.145376440268756,0.183023300283539
3.62,-0.140914572192583,0.185708650192946
3.622,-0.136346688558811,0.18822502397256
3.624,-0.131760487236141,0.190609051664985
3.626,-0.12717420452212,0.192572922775515
3.628,-0.122345269866685,0.194891266643809
3.63,-0.117549046585703,0.196806406245369
3.632,-0.11268530846454,0.198602865252858
3.634,-0.107809306971614,0.200197068137207
3.636,-0.102885844302009,0.201632712968514
3.638,-0.097963931601026,0.202915561916804
3.64,-0.0929763734398427,0.203992062152567
3.642,-0.0879230855871157,0.204998465147104
3.644,-0.0828968898316463,0.205817430972696
3.646,-0.0778596522630528,0.206478204102607
3.648,-0.0730096908954769,0.206721426910864
3.65,-0.0678405570293152,0.20721749957186
3.652,-0.0629896375119752,0.207208646959808
3.654,-0.0577215465626551,0.207357709447948
3.656,-0.0527378094841943,0.207161631607621
3.658,-0.0477625543669053,0.206842966307148
3.66,-0.0428218940224804,0.206343946810507
3.662,-0.0379083314879445,0.205678439075842
3.664,-0.0330635843096043,0.204845431853797
3.666,-0.0282565557570947,0.203873636615651
3.668,-0.0234832697074271,0.202755548531292
3.67,-0.0187821315891147,0.201452088087007
3.672,-0.0141831305463519,0.200060341783068
3.674,-0.00959174490319319,0.198471293951169
3.676,-0.0051011518078499,0.196755439571703
3.678,-0.000709488807014408,0.194898861110789
3.68,0.0036261860697715,0.192883604087218
3.682,0.00784875379566841,0.190764556579147
3.684,0.0120016190020313,0.188511339630662
3.686,0.0160383238538517,0.186114594258165
3.688,0.019961731365118,0.183618123076555
3.69,0.0237726578441375,0.181012145705286
3.692,0.0272385157387451,0.178239515434221
3.694,0.031109863291485,0.175379788719341
3.696,0.0345992965746987,0.172403136198246
3.698,0.0379328913055365,0.169381467825544
3.7,0.041169370350896,0.16618843686803
3.702,0.0442695405022948,0.162937839289723
3.704,0.0472171989406517,0.159584282966724
3.706,0.0500259902209811,0.156140861551918
3.708,0.0527271187570166,0.152677778709536
3.71,0.0552707990357486,0.1491074902095
3.712,0.0576836920618728,0.145464893461676
3.714,0.059922176572121,0.141764154319918
3.716,0.0617619405495853,0.138142992025981
3.718,0.0639686309378379,0.134211226023269
3.72,0.0657558375550473,0.130379726200434
3.722,0.0674188035079612,0.126499311274807
3.724,0.068888890305791,0.122613293568697
3.726,0.0702278506740118,0.118648515316529
3.728,0.0714305832680448,0.114694280901823
3.73,0.0721512902868721,0.110978707322062
3.732,0.0732938977864937,0.106731936063342
3.734,0.0740079518933375,0.102786983604959
3.736,0.0745573223175177,0.098764562457801
3.738,0.0749650884660141,0.094760884232592
3.74,0.0751981787557233,0.090836617935037
3.742,0.0752947280264234,0.08691601037579
3.744,0.075231001053595,0.0829644154723
3.746,0.0750044642611423,0.079129467530493
3.748,0.0745017735340168,0.07554360471637
3.75,0.074155408330683,0.071434055917433
3.752,0.0734757666955076,0.067696460863967
3.754,0.0726603963710137,0.064006187410228
3.756,0.0717146054099997,0.060368207185486
3.758,0.0706430647875497,0.056792517474918
3.76,0.0694079445829348,0.053294302730421
3.762,0.0680317328513429,0.049883429491226
3.764,0.0665434356955435,0.046527945184489
3.766,0.0649236426573683,0.043260253035677
3.768,0.0631627568691009,0.040073890408851
3.77,0.0613238264147261,0.037024746206864
3.772,0.0593354587610292,0.034032356201422
3.774,0.0572265737185931,0.031159194002995
3.776,0.0550389443626362,0.028406107860683
3.778,0.0527032934537303,0.025745149341911
3.78,0.0503302347683746,0.023491028882047
3.782,0.0478298975894344,0.020780718613885
3.784,0.0451971492464397,0.018488268927062
3.786,0.0425192075557538,0.01632080504731
3.788,0.0397540147405819,0.014266497845673
3.79,0.0370103532508545,0.012646979067565
3.792,0.0341796314129593,0.010976104211754
3.794,0.0310620797093377,0.00892564891924701
3.796,0.0280037756379187,0.007428385762083
3.798,0.0249180650914331,0.006080981932006
3.8,0.0219259918265532,0.00512746592907701
3.802,0.0187763525629092,0.004044502450191
3.804,0.015378656001936,0.00286112467745399
3.806,0.0121528095555755,0.002069946466585
3.808,0.00883850165285254,0.001469718935074
3.81,0.00555977475524977,0.000970991350412995
3.812,0.00244611324288295,0.000888785818143001
3.814,-0.00107677510690983,0.000482161969862005
3.816,-0.00441817090162824,0.000446032951147007
3.818,-0.00772752269781577,0.000601981709396002
3.82,-0.0107314008759289,0.00116062628159701
3.822,-0.0143275471007428,0.00132514118204401
3.824,-0.0173262813690591,0.002060140289941
3.826,-0.0208355041585289,0.00261098453698301
3.828,-0.0240710820306409,0.003496707694835
3.83,-0.0272461847338866,0.00454486686257201
3.832,-0.0303689819970656,0.00565828625403
3.834,-0.033464031002779,0.007004021885142
3.836,-0.0365033644410386,0.008459052361143
3.838,-0.0394552033930771,0.010053414063797
3.84,-0.0424005920453201,0.011786808438522
3.842,-0.0452243090634728,0.013662747301449
3.844,-0.0475527508268313,0.015795850066506
3.846,-0.050634191752727,0.017781222072342
3.848,-0.052890325871127,0.020117943159313
3.85,-0.0556974636694145,0.022440118866336
3.852,-0.058099823967341,0.02494753047777
3.854,-0.0603977715621037,0.027566748920213
3.856,-0.0625867928636386,0.030275499519251
3.858,-0.0646836317200556,0.033058970186237
3.86,-0.066653447793223,0.036013350514943
3.862,-0.0681637154445496,0.03901576310826
3.864,-0.0702209944209216,0.042171829144821
3.866,-0.0718343763607929,0.045393576915613
3.868,-0.0733082303104554,0.048695065180543
3.87,-0.0743245060604879,0.051980269345022
3.872,-0.0758506898823347,0.055511682186482
3.874,-0.0768972934450929,0.059026061850894
3.876,-0.0778200309424461,0.062597549879267
3.878,-0.0786035897897583,0.06625679282413
3.88,-0.0792407300213648,0.069947481355995
3.882,-0.0794213624879902,0.073556305399816
3.884,-0.0800364293543741,0.077467234821439
3.886,-0.0802644495970257,0.081304507474021
3.888,-0.0802673296021826,0.085101046764479
3.89,-0.0801423358639121,0.088979310859916
3.892,-0.0798661840823912,0.092885068192054
3.894,-0.0793880118623393,0.096813274740631
3.896,-0.0785392991116459,0.10050061918858
3.898,-0.0780654530401306,0.104630105118923
3.9,-0.0768989698584894,0.108279811411221
3.902,-0.0760536573774188,0.112397660178045
3.904,-0.0748693895068671,0.116258439962914
3.906,-0.0732251455554996,0.119861287338086
3.908,-0.071947229530284,0.123924984852025
3.91,-0.0701709059362807,0.12770253596794
