"Freq [GHz]","re(S(Antenna1_1_p1,Antenna1_1_p1)) []","im(S(Antenna1_1_p1,Antenna1_1_p1)) []"
3,0.121098758442387,-0.101499104320587
3.002,0.119874152023,-0.103917011820128
3.004,0.118574873901927,-0.106300754358213
3.006,0.117218250445518,-0.108670103961833
3.008,0.115799037830052,-0.111000070216078
3.01,0.114307163823274,-0.113316009652891
3.012,0.112766175405996,-0.115573090767245
3.014,0.111138437163707,-0.11780248365384
3.016,0.109463052978189,-0.120000155143087
3.018,0.107711383649242,-0.122154254616679
3.02,0.105911612316393,-0.124260882922505
3.022,0.10405415991066,-0.126297426559112
3.024,0.102125874406381,-0.128326051809568
3.026,0.100153884483118,-0.130297533464792
3.028,0.0981273763575956,-0.132211849786353
3.03,0.0960489861657071,-0.134067846308811
3.032,0.0939204619346373,-0.135868915441385
3.034,0.0917446725750112,-0.13762615326926
3.036,0.0895240172131525,-0.139312671684279
3.038,0.0872581692234368,-0.140940987205175
3.04,0.0849519448807017,-0.142507848237268
3.042,0.082603020362807,-0.144012317561676
3.044,0.08022054682324,-0.145462638734039
3.046,0.0778139775638701,-0.146837096602736
3.048,0.075358848167786,-0.148153210016616
3.05,0.0728888929222692,-0.149401072012254
3.052,0.070375669904858,-0.150570436320705
3.054,0.06785450457055,-0.151679659313839
3.056,0.0652920750121328,-0.152730981020182
3.058,0.0627238102896504,-0.153690761550212
3.06,0.0601426639339762,-0.15459803392134
3.062,0.0575322551535629,-0.155425374402313
3.064,0.0549353111132852,-0.156190124117263
3.066,0.0522822318216716,-0.156874496199194
3.068,0.0496720788840752,-0.157499104493156
3.07,0.0470381435869626,-0.1580506060689
3.072,0.0443881965454154,-0.158528222133082
3.074,0.0417421438637382,-0.158925304131131
3.076,0.0391043619330651,-0.159277994308602
3.078,0.0364638899233133,-0.159532573582142
3.08,0.0338350625242896,-0.159744635650073
3.082,0.0312369608100308,-0.15987817918249
3.084,0.028609148400247,-0.159925954780999
3.086,0.0260338001079667,-0.159933106598127
3.088,0.0234555133424046,-0.159862598296151
3.09,0.0208849159659499,-0.159713930155669
3.092,0.018357193090368,-0.159511758243825
3.094,0.0158555693432107,-0.159259130941958
3.096,0.0133738152344003,-0.158940948923094
3.098,0.0109228410529856,-0.158553431588897
3.1,0.0084905723341464,-0.158103345966316
3.102,0.0060905928863232,-0.15757803337408
3.104,0.0037020682488112,-0.157021935077592
3.106,0.001380638688891,-0.156405589726469
3.108,-0.000885546299919701,-0.155761052187813
3.11,-0.0031692891000705,-0.155013327761959
3.112,-0.0053642209917469,-0.154264747436783
3.114,-0.0075405912144416,-0.153443939171964
3.116,-0.0096650897582842,-0.152584031092707
3.118,-0.0117553457051924,-0.15165715168327
3.12,-0.0137921150698114,-0.150719584580144
3.122,-0.0157784261101512,-0.149738095154856
3.124,-0.0177295852381207,-0.148707170306503
3.126,-0.0196242741497142,-0.147648731303957
3.128,-0.0214761770850773,-0.146545064257773
3.13,-0.0232746758182329,-0.145412751132722
3.132,-0.0250233907666799,-0.144233942752102
3.134,-0.026713781020716,-0.143040671571731
3.136,-0.028354046702479,-0.141840378857617
3.138,-0.0299446879948252,-0.140615240899332
3.14,-0.0314852099799235,-0.139358902927134
3.142,-0.0329576916876558,-0.13807835214381
3.144,-0.0343752525336978,-0.136760927665205
3.146,-0.0357559771074512,-0.135464856076471
3.148,-0.0370646484496342,-0.134129595945098
3.15,-0.0383352063397121,-0.132823467253622
3.152,-0.039550438553063,-0.131492272700115
3.154,-0.040705775327823,-0.13013310465137
3.156,-0.0417900258515792,-0.128773578438885
3.158,-0.0428587419877657,-0.127442401466539
3.16,-0.0438607805518068,-0.126087424766072
3.162,-0.044794482767004,-0.124712863292263
3.164,-0.0456874283702148,-0.12338363426596
3.166,-0.0465493446371991,-0.12206570532377
3.168,-0.0473384838177878,-0.120737025512574
3.17,-0.0480647186607379,-0.119400366855821
3.172,-0.048777692848365,-0.118110427889584
3.174,-0.049430419630902,-0.116830843748355
3.176,-0.0500173428005904,-0.115548266130713
3.178,-0.0505918279255646,-0.114298360784705
3.18,-0.0511101600133719,-0.113065764433031
3.182,-0.0515665278243407,-0.111834891728046
3.184,-0.0519956720646394,-0.110641386636555
3.186,-0.0523899853890488,-0.109484490974373
3.188,-0.0527547750035233,-0.10834015392075
3.19,-0.0530759633874359,-0.107222236492557
3.192,-0.0533298602656117,-0.106122139208312
3.194,-0.0535981744500576,-0.105066767901998
3.196,-0.0538249282314375,-0.104049673546725
3.198,-0.0540118262002961,-0.103062676018217
3.2,-0.0541746406079762,-0.102089239858068
3.202,-0.0542824435773491,-0.101157053596932
3.204,-0.054406631913184,-0.100265615347445
3.206,-0.0544809059523099,-0.099407105397038
3.208,-0.0545606977234999,-0.098586060430586
3.21,-0.0545744742560784,-0.09780252388289
3.212,-0.0545881319552741,-0.097055777011009
3.214,-0.0546096329582763,-0.096341969986442
3.216,-0.0546000647950783,-0.095672467127167
3.218,-0.0545767140669802,-0.095034958929524
3.22,-0.0545649931138896,-0.094442751080005
3.222,-0.0545260657305105,-0.093890060386815
3.224,-0.0544908198185017,-0.093379503051418
3.226,-0.0544479513269182,-0.09290142119985
3.228,-0.0544056795244161,-0.092465197283954
3.23,-0.0543494102262065,-0.092069947672507
3.232,-0.0543240399504913,-0.091700659462175
3.234,-0.0542740853134804,-0.091380767858403
3.236,-0.054240692452483,-0.091098683386159
3.238,-0.0542184808508185,-0.090849004300569
3.24,-0.0541969652723694,-0.090631361377458
3.242,-0.0541923648099061,-0.090465158643793
3.244,-0.0541975077791684,-0.090320228717981
3.246,-0.054215509286613,-0.090219899910128
3.248,-0.0542539390319803,-0.090159288152137
3.25,-0.0543067860924992,-0.090114531327781
3.252,-0.0543868282669234,-0.090104077092633
3.254,-0.0544740570192231,-0.090131662753938
3.256,-0.0545906970020309,-0.090194931820383
3.258,-0.0547392451398637,-0.090270842621805
3.26,-0.054895677362013,-0.090385376028794
3.262,-0.0551121614452309,-0.090518865452253
3.264,-0.0553137746461025,-0.090684124852867
3.266,-0.0555730316731733,-0.090868135760483
3.268,-0.0558378725088425,-0.091063462953469
3.27,-0.0561627717109247,-0.091309537607985
3.272,-0.05652348759403,-0.091547745597156
3.274,-0.0568884798205963,-0.091808683120265
3.276,-0.0572990439817412,-0.092094302751829
3.278,-0.0577509045577944,-0.092393799550619
3.28,-0.0582396091285796,-0.092699708368684
3.282,-0.0587706972734739,-0.093018088790279
3.284,-0.0593209312311423,-0.093349590670745
3.286,-0.0599325949990687,-0.093673633135387
3.288,-0.0605653253228109,-0.094020475808274
3.29,-0.0612437736749762,-0.094362604336023
3.292,-0.0619570863939712,-0.094711491474529
3.294,-0.0627249917624589,-0.095035946560683
3.296,-0.063513571925602,-0.095390803618055
3.298,-0.0643540414690166,-0.095731702084541
3.3,-0.0652393225564852,-0.096067492442977
3.302,-0.066162560857401,-0.0963944468010829
3.304,-0.067123186693971,-0.0967115662721987
3.306,-0.068119352848186,-0.0970166417233946
3.308,-0.069162959508481,-0.0973174476700116
3.31,-0.070241915256183,-0.097585455007678
3.312,-0.071359649501738,-0.0978325896521005
3.314,-0.072519626250602,-0.0980956155618205
3.316,-0.073723380488956,-0.0983169750927823
3.318,-0.074950495159156,-0.0985151219018324
3.32,-0.076231350284918,-0.0986929162142342
3.322,-0.077538064076244,-0.0988505138651902
3.324,-0.078871434004161,-0.0989644962323709
3.326,-0.080257801165144,-0.0990812195464426
3.328,-0.081667146245334,-0.0991258137085907
3.33,-0.083114612384514,-0.0991654871291052
3.332,-0.084585682399803,-0.0991559821458989
3.334,-0.086099841569151,-0.0991266551531291
3.336,-0.087636652194604,-0.0990566908497856
3.338,-0.089202768415247,-0.0989495414382834
3.34,-0.090787463090002,-0.0987944121731442
3.342,-0.092413431360126,-0.0986107291896365
3.344,-0.094048917021499,-0.0983662200224825
3.346,-0.095720874926659,-0.0980985296545703
3.348,-0.097407045776631,-0.0977611046857129
3.35,-0.099103153352474,-0.097404625801455
3.352,-0.100819705346631,-0.0969895407218617
3.354,-0.102568625224032,-0.0965372681204176
3.356,-0.104314617652974,-0.0960261609228962
3.358,-0.106081476025741,-0.0954647489963293
3.36,-0.107850276129048,-0.0948492634479887
3.362,-0.109640021504194,-0.0941931710944171
3.364,-0.111442578607034,-0.0934830881205198
3.366,-0.113245237657697,-0.0927108536786916
3.368,-0.115043958590099,-0.0918937459680128
3.37,-0.116841182377204,-0.0910255939834807
3.372,-0.118632563338098,-0.0900985139853162
3.374,-0.120437088016788,-0.0891274836383304
3.376,-0.122245017203842,-0.0880883516813154
3.378,-0.124026702388772,-0.0869998664065588
3.38,-0.12580656385918,-0.0858654141493595
3.382,-0.127586490127734,-0.0846696288276676
3.384,-0.129360976773587,-0.0834277593117444
3.386,-0.131102892511414,-0.082121544043935
3.388,-0.132835343951689,-0.0807602706484745
3.39,-0.134543463597798,-0.0793454295613831
3.392,-0.136238303383399,-0.0778868097104763
3.394,-0.137904188330402,-0.0763780243053839
3.396,-0.139547841286427,-0.0748073744977036
3.398,-0.141181620649031,-0.0731930527511993
3.4,-0.142784430051788,-0.0715072491721265
3.402,-0.144341342501073,-0.0697955999296012
3.404,-0.145875638271757,-0.0680188959860835
3.406,-0.147378078068559,-0.0661832983779242
3.408,-0.148854904838336,-0.06433021862605
3.41,-0.150275882731074,-0.0624298304766889
3.412,-0.151680283834713,-0.0604745013122155
3.414,-0.153025612619788,-0.0584761491020991
3.416,-0.15434714153385,-0.0564269294739436
3.418,-0.155622807115692,-0.0543313175146081
3.42,-0.156836333629408,-0.0522070163014765
3.422,-0.158026291818225,-0.0500323187237805
3.424,-0.159158169998167,-0.047843264704063
3.426,-0.160242489631508,-0.0455962135597225
3.428,-0.161284027500079,-0.0433192006446846
3.43,-0.162249772988331,-0.0410125537811962
3.432,-0.163182969466248,-0.0386639186016924
3.434,-0.164070290642069,-0.0363037716808036
3.436,-0.164894175234843,-0.0339236405874868
3.438,-0.165654550826747,-0.0314847833972454
3.44,-0.166359836895315,-0.0290269335545102
3.442,-0.167029870055395,-0.0265430196850755
3.444,-0.167617295391002,-0.0240507089487369
3.446,-0.168156023456934,-0.0215461604119866
3.448,-0.168626143350294,-0.0190312581608652
3.45,-0.169037691361751,-0.0164850931439477
3.452,-0.169390226886694,-0.0139334115134222
3.454,-0.169678384106179,-0.0113759095653464
3.456,-0.169920493647762,-0.00878729575698083
3.458,-0.170104230666086,-0.00623112268132494
3.46,-0.170185347063375,-0.00362571140069163
3.462,-0.17023496101974,-0.00102942575952981
3.464,-0.170195278213315,0.00156651064671692
3.466,-0.17014439514024,0.00414845122663004
3.468,-0.169996190814509,0.00673499579920474
3.47,-0.16975972741762,0.0093249444444226
3.472,-0.169522136818117,0.0118839596758729
3.474,-0.16918414305093,0.0144624632706166
3.476,-0.168791814596626,0.0170047885723116
3.478,-0.168346722950446,0.0195391734673468
3.48,-0.167827759021248,0.0220706472207556
3.482,-0.167266222740277,0.0245844131800513
3.484,-0.166626800449791,0.0270745204528373
3.486,-0.165947129391562,0.0295295247483406
3.488,-0.165188351325227,0.0319743600357411
3.49,-0.164376754086493,0.0344042357133574
3.492,-0.163521813805232,0.0367899317026897
3.494,-0.162603303243395,0.0391596350222793
3.496,-0.161647102582865,0.041490096041463
3.498,-0.160615078663101,0.0438030623738831
3.5,-0.159545818468696,0.0460746420309316
3.502,-0.158416523156824,0.0482902809849651
3.504,-0.157254268434503,0.0505025005423738
3.506,-0.156024200745821,0.0526702450565141
3.508,-0.154740424098933,0.0547793994504342
3.51,-0.153445763043048,0.0568698334494722
3.512,-0.152076752895218,0.0588910511336368
3.514,-0.150668518277046,0.0609036019899
3.516,-0.149255212271291,0.0628444547442318
3.518,-0.147774010018324,0.0647450731235331
3.52,-0.146264358602516,0.0665934053973474
3.522,-0.144702024178488,0.0684135176694514
3.524,-0.14312413749727,0.0701866273992149
3.526,-0.141517306262351,0.0718899470828455
3.528,-0.139849482415635,0.0735354153944167
3.53,-0.138176891753279,0.0751494611267345
3.532,-0.136508730399472,0.0766953586120362
3.534,-0.134749942392063,0.0782065932224984
3.536,-0.133013263948135,0.0796612393805535
3.538,-0.131268287112494,0.081043535509104
3.54,-0.12946763331302,0.0823911478314222
3.542,-0.127661117792001,0.0836784896010213
3.544,-0.12585942413231,0.0848977924912127
3.546,-0.12400026763455,0.0860778555845896
3.548,-0.122187129145309,0.0871993186222344
3.55,-0.120334866056067,0.0882704009028438
3.552,-0.118447715366199,0.0892780188415516
3.554,-0.116593625221678,0.0902268500086826
3.556,-0.114727135707874,0.0911237219182487
3.558,-0.112864023133016,0.0919792334462887
3.56,-0.110999206146794,0.0927547057590024
3.562,-0.109125266467887,0.0934905872107256
3.564,-0.107280132309437,0.0941769324817101
3.566,-0.105412877534482,0.0948143800656854
3.568,-0.10354986082527,0.0953753808772709
3.57,-0.101734489293569,0.0959158366492099
3.572,-0.099891615001901,0.0963929535693531
3.574,-0.098095327804728,0.0968088827375179
3.576,-0.096296810732573,0.0971777817721303
3.578,-0.094516592136098,0.097491013026669
3.58,-0.092735241250155,0.0977914847259463
3.582,-0.091000348147755,0.0980156759221691
3.584,-0.089283939544027,0.098185583180838
3.586,-0.087574033160117,0.0983225766864247
3.588,-0.085918250637043,0.0984194423678896
3.59,-0.084255565729549,0.0984629941239944
3.592,-0.082625854749871,0.0984878851284159
3.594,-0.081029318401522,0.0984575274646786
3.596,-0.079472326313021,0.0984086676408876
3.598,-0.077931594921576,0.0982996775043024
3.6,-0.076418738496798,0.0981488004956428
3.602,-0.074952342494316,0.097979761033311
3.604,-0.073512889969454,0.0977859993573087
3.606,-0.072124345730802,0.0975526209430682
3.608,-0.070732465763851,0.0972683549250054
3.61,-0.0694115916145481,0.0969957186099266
3.612,-0.0681097334828813,0.0966737374102414
3.614,-0.06685668091643,0.0963318360469679
3.616,-0.0656262806039138,0.0959608842915591
3.618,-0.0644560749487556,0.095575464189539
3.62,-0.0633131871025832,0.0951835957179458
3.622,-0.0621803885788115,0.0947488763205597
3.624,-0.0611411862961408,0.0943008746819854
3.626,-0.0601179901221196,0.0938551906655147
3.628,-0.0591331501366849,0.0933736052068085
3.63,-0.0581940446757032,0.0929048940848693
3.632,-0.0572944754645401,0.0924435346982583
3.634,-0.0564220468516142,0.0919385353472071
3.636,-0.0556103418120088,0.0914139649195139
3.638,-0.054826976361026,0.0909222362388041
3.64,-0.0540923391478427,0.0904095234485675
3.642,-0.0533905479191157,0.0899021504341043
3.644,-0.0527389384326463,0.0893990640286958
3.646,-0.0521065106810528,0.0889306631146065
3.648,-0.0515246428554769,0.0883936443608645
3.65,-0.0509898097293152,0.0879055162518599
3.652,-0.0504638256219752,0.087426477959808
3.654,-0.0499866121626551,0.086969650027948
3.656,-0.0495649193341943,0.086484414367621
3.658,-0.0491666727769053,0.086034510597148
3.66,-0.0487984585924804,0.085596625000507
3.662,-0.0484556900579445,0.085174911515842
3.664,-0.0481846951996043,0.084743491533797
3.666,-0.0479070465570947,0.084362922885651
3.668,-0.0476763165974271,0.083994149311292
3.67,-0.0474629060791147,0.083632331457007
3.672,-0.0472917160063519,0.083307721693068
3.674,-0.0471372315231932,0.083005883001169
3.676,-0.0470207783478499,0.082729099411703
3.678,-0.0469059284170144,0.082450528880789
3.68,-0.0468548614102285,0.082207672887218
3.682,-0.0468080951843316,0.081999489939147
3.684,-0.0467660406879687,0.081832041010662
3.686,-0.0467566420861483,0.081654813238165
3.688,-0.046766589424882,0.081533144286555
3.69,-0.0467950287358625,0.081448596065286
3.692,-0.0468196621712549,0.081375170764221
3.694,-0.046880834228515,0.081345036819341
3.696,-0.0469423805153013,0.081351041308246
3.698,-0.0470294343064635,0.081380750055544
3.7,-0.047122681027104,0.08143168160803
3.702,-0.0472192115877052,0.081513878949723
3.704,-0.0473205367193483,0.081643124656724
3.706,-0.0474239569320189,0.081752426501918
3.708,-0.0475535572149834,0.081998255449536
3.71,-0.0476528326872514,0.0822255189395
3.712,-0.0477724945361272,0.082484918501676
3.714,-0.047900509669449,0.082770180569918
3.716,-0.0480136716874147,0.083100645075981
3.718,-0.0481131118921621,0.083459429353269
3.72,-0.0482243576409527,0.083851690200434
3.722,-0.0482940622110388,0.084271213484807
3.724,-0.048383099405209,0.084737217805697
3.726,-0.0484717525209882,0.085220270747529
3.728,-0.0485260941119552,0.085741891672823
3.73,-0.0485895381751279,0.086292811195062
3.732,-0.0486257006535063,0.086875615151342
3.734,-0.0486449273666625,0.087484625254959
3.736,-0.0486491042224823,0.088120926827801
3.738,-0.0486272874839859,0.088792389492592
3.74,-0.0485929749542767,0.089491116655037
3.742,-0.0485288727635766,0.09021401039579
3.744,-0.048456234036405,0.0909700047823
3.746,-0.0483515541688577,0.091753056170493
3.748,-0.0482301108059832,0.09255267663637
3.75,-0.048062167839317,0.093383543697433
3.752,-0.0478808312944924,0.094226700003967
3.754,-0.0476684170089863,0.095087096090228
3.756,-0.0474256541100003,0.095982577125486
3.758,-0.0471550915224503,0.096883040874918
3.76,-0.0468560783070652,0.097815215090421
3.762,-0.0465365310086571,0.098766478041226
3.764,-0.0461517722544565,0.099719495724489
3.766,-0.0457606289326317,0.100689996015677
3.768,-0.0453369685608991,0.101671337178851
3.77,-0.0448606730852739,0.102663646826864
3.772,-0.0443536670989708,0.103676071831422
3.774,-0.0438174992014069,0.104684285602995
3.776,-0.0432319926273638,0.105710391690683
3.778,-0.0426306806162697,0.106743166661911
3.78,-0.0419804644916254,0.107767675052047
3.782,-0.0412755780105656,0.108801049021885
3.784,-0.0405581909935603,0.109843029651062
3.786,-0.0398008520842462,0.11086877995931
3.788,-0.0389912685794181,0.111899124716673
3.79,-0.0381457975491455,0.112939331378565
3.792,-0.0372550742770407,0.113966920933754
3.794,-0.0363471898006623,0.114970402320247
3.796,-0.0353757170920813,0.115979736559083
3.798,-0.0343753842685669,0.117011194045996
3.8,-0.0333376197834468,0.118002781750077
3.802,-0.0322638528870908,0.118963530572191
3.804,-0.031140529418064,0.119940491904454
3.806,-0.0299982182844245,0.120889817342585
3.808,-0.0288038989651475,0.121834432528074
3.81,-0.0275710211817502,0.122741311332413
3.812,-0.026310311370017,0.123646575350143
3.814,-0.0250195698519098,0.124509158752862
3.816,-0.0236875763576282,0.125348460127147
3.818,-0.0223108857678158,0.126207623759396
3.82,-0.0209061057959289,0.127017145031597
3.822,-0.0194705697407428,0.127800159802044
3.824,-0.0179960910090591,0.128541269559941
3.826,-0.0165070164485289,0.129269761236983
3.828,-0.0149457197106409,0.129942803164835
3.83,-0.0133929982338866,0.130634831912572
3.832,-0.0118232750970656,0.13123757904403
3.834,-0.010185055432779,0.131854019165142
3.836,-0.0085560281610386,0.132408575161143
3.838,-0.0068609583830771,0.132929977733797
3.84,-0.0052032728553201,0.133403723488522
3.842,-0.0034751136234728,0.133864145501449
3.844,-0.0017135081268313,0.134307456346506
3.846,5.21491072730008E-05,0.134661719052342
3.848,0.001852466728873,0.135014902219313
3.85,0.0036453064705855,0.135307209726336
3.852,0.005469802932659,0.13556749839777
3.854,0.0073086593078963,0.135765669940213
3.856,0.0091442768963614,0.135933342099251
3.858,0.0110089401299444,0.136051777836237
3.86,0.012888938526777,0.136121128334943
3.862,0.0147861145054504,0.13613651116826
3.864,0.0166872367390784,0.136130890364821
3.866,0.0185434786022071,0.136083790355613
3.868,0.0204722407895446,0.135976414980543
3.87,0.0223952566295121,0.135835783155022
3.872,0.0243126478156653,0.135633979396482
3.874,0.0262233013999071,0.135389457380894
3.876,0.0281417300615539,0.135085125629267
3.878,0.0300440693362417,0.13476367840413
3.88,0.0319728649376352,0.134377992315995
3.882,0.0338777595847098,0.133943276219816
3.884,0.0357797485925259,0.133465501351439
3.886,0.0376417629799743,0.132937321794021
3.888,0.0395612226408174,0.132366643544479
3.89,0.0414285174080879,0.131742192059916
3.892,0.0432852774966088,0.131056821644054
3.894,0.0451424592556607,0.130359763643631
3.896,0.0469694987513541,0.12960032864488
3.898,0.0487474234508694,0.128811828359923
3.9,0.0505717262895106,0.127961630303221
3.902,0.0523575519625812,0.127052784798045
3.904,0.0541114889331329,0.126118696722914
