"Freq [GHz]","re(S(Antenna1_1_p1,Antenna1_1_p1)) []","im(S(Antenna1_1_p1,Antenna1_1_p1)) []"
3,0.116625297342387,0.019622955403413
3.002,0.120274251663,0.0173973590608722
3.004,0.123834253341926,0.015021844031787
3.006,0.127354429825518,0.0124693468381675
3.008,0.130773690290052,0.00972486818392231
3.01,0.133836256113274,0.0066894508371087
3.012,0.137375321295996,0.0038082783127546
3.014,0.140297506543707,0.000495277056159996
3.016,0.143364472038189,-0.002846796823087
3.018,0.146549517059242,-0.006249445686679
3.02,0.149366772626394,-0.009886958202505
3.022,0.15206786047066,-0.013696304559112
3.024,0.154642620696381,-0.017616188069568
3.026,0.157120839193118,-0.021676426004792
3.028,0.159432867427596,-0.025860340316353
3.03,0.161604901995707,-0.030131538368811
3.032,0.163610711184637,-0.034541864471385
3.034,0.165251716915011,-0.03907424107926
3.036,0.167213828683152,-0.043682326994279
3.038,0.168763165483437,-0.048411630765175
3.04,0.170141795020702,-0.053220782947268
3.042,0.171357042772807,-0.058097829761676
3.044,0.17238375406324,-0.063075426994039
3.046,0.17326364775387,-0.068117453492736
3.048,0.173952233917786,-0.073226118766616
3.05,0.174458202402269,-0.078387509642254
3.052,0.174798117191858,-0.083616101570705
3.054,0.17492588417155,-0.088878445583839
3.056,0.174882505690133,-0.094140490850182
3.058,0.17462409622365,-0.099491353790212
3.06,0.173916734038976,-0.10467442885134
3.062,0.173581138657563,-0.110172257982313
3.064,0.172756427319285,-0.115525754113263
3.066,0.171734222946472,-0.120886292721194
3.068,0.170543254008075,-0.126251441639156
3.07,0.169142695183963,-0.1315861078499
3.072,0.167555846629415,-0.136907238303082
3.074,0.165771030139738,-0.142205272321131
3.076,0.163801446115065,-0.147444591158602
3.078,0.161463992225313,-0.152471779702142
3.08,0.15907703057529,-0.157563791400073
3.082,0.156749452470031,-0.16289100926249
3.084,0.154043384880247,-0.167940617740999
3.086,0.150942481507967,-0.172612599588127
3.088,0.148053092652405,-0.177762814936151
3.09,0.14478659967595,-0.182553456285669
3.092,0.141342619970368,-0.187227107423825
3.094,0.137623744923211,-0.191581475631958
3.096,0.1339821123844,-0.196307150713094
3.098,0.130046387632986,-0.200701281528897
3.1,0.125973921504146,-0.204953713346316
3.102,0.121716065696323,-0.20904802788408
3.104,0.117311227798811,-0.213062303657592
3.106,0.112775438158891,-0.216931587316469
3.108,0.10811566277008,-0.220660781497813
3.11,0.10328439624993,-0.224215661041959
3.112,0.0983705869382531,-0.227655358196783
3.114,0.0933074841055584,-0.230899405901964
3.116,0.0881300516417158,-0.234040174432707
3.118,0.0828128664848076,-0.23696796734327
3.12,0.0774458700801886,-0.239733530150144
3.122,0.0719518742398488,-0.242331683104856
3.124,0.0663637111118793,-0.244747375916503
3.126,0.0606934099802858,-0.246991611333957
3.128,0.0549377240249227,-0.249043260437773
3.13,0.0491180780817671,-0.250921522531722
3.132,0.0432201400333201,-0.252607925634102
3.134,0.037285206569284,-0.254112760468731
3.136,0.031392413847521,-0.255137271555617
3.138,0.0252351305651748,-0.256489755801332
3.14,0.0191705382500765,-0.257426156089134
3.142,0.0130568635423442,-0.25811722386881
3.144,0.00692647694830222,-0.258619332946205
3.146,0.00078518002854882,-0.258925376572471
3.148,-0.00538843736963422,-0.259041747433098
3.15,-0.0115313068737121,-0.258964683336622
3.152,-0.017688552733063,-0.258695127703115
3.154,-0.023827356367823,-0.25819847535237
3.156,-0.0299524972715792,-0.257512590391885
3.158,-0.0360253349477657,-0.256618209204539
3.16,-0.0420875083418068,-0.255559380236072
3.162,-0.048093925587004,-0.254268004882263
3.164,-0.0540543611902148,-0.25279898927596
3.166,-0.0599678451271991,-0.25114027847377
3.168,-0.0658029409177878,-0.249300335042574
3.17,-0.0715897356007379,-0.247257204945821
3.172,-0.076998178688365,-0.244917856429584
3.174,-0.082564154120902,-0.242494190508355
3.176,-0.0883833831105904,-0.240080966750713
3.178,-0.0938300279955646,-0.237317730464705
3.18,-0.0991301275033719,-0.234414637033031
3.182,-0.104327716274341,-0.231322744748046
3.184,-0.109435116244639,-0.228072695846555
3.186,-0.114395961569049,-0.224682320094373
3.188,-0.119241381053523,-0.22113127579075
3.19,-0.123687616327436,-0.217368142292557
3.192,-0.128562987755612,-0.213565299158312
3.194,-0.132995397670058,-0.209589200441998
3.196,-0.136996578351437,-0.205451711516725
3.198,-0.141431453660296,-0.201229100608217
3.2,-0.145149940557976,-0.196886324128068
3.202,-0.149241225887349,-0.192384693856932
3.204,-0.152571269693184,-0.187843070277445
3.206,-0.15640822694231,-0.183096272087038
3.208,-0.1597253672435,-0.178330012470586
3.21,-0.162904399367078,-0.17341688045289
3.212,-0.165863752764274,-0.168479459171009
3.214,-0.168386976786276,-0.163520773116442
3.216,-0.171284897003078,-0.158352645917167
3.218,-0.17369539242198,-0.153185912549524
3.22,-0.17594593090589,-0.147958324550005
3.222,-0.178011979491311,-0.142679205966815
3.224,-0.179883437706102,-0.137355994623418
3.226,-0.181586778986918,-0.13202817804785
3.228,-0.183036720996416,-0.126672225701104
3.23,-0.184357532340206,-0.121265065821507
3.232,-0.185192003383491,-0.116060259733175
3.234,-0.18633060966748,-0.110473578848403
3.236,-0.187044619025483,-0.105040946036159
3.238,-0.187575856398818,-0.099614855690569
3.24,-0.187926988352369,-0.094248358647458
3.242,-0.188061577889906,-0.088893622363793
3.244,-0.188014148269168,-0.083562022927981
3.246,-0.187780021016613,-0.078247926440128
3.248,-0.18720358224198,-0.073242910022137
3.25,-0.186592910252499,-0.068031375547781
3.252,-0.185994072866923,-0.062649624742633
3.254,-0.185030214529223,-0.057558972733938
3.256,-0.183892639622031,-0.052548461920383
3.258,-0.182588586179864,-0.047608600661805
3.26,-0.180990272902013,-0.043055323608794
3.262,-0.179475817365231,-0.037999557702253
3.264,-0.177662540656102,-0.033342242422867
3.266,-0.175696931933173,-0.028771966260483
3.268,-0.173599799338843,-0.024315660403469
3.27,-0.171311701910925,-0.019979941567985
3.272,-0.16893203814403,-0.015779408347156
3.274,-0.166378495860596,-0.011662861220265
3.276,-0.163704929261741,-0.007733502691829
3.278,-0.160893899167794,-0.003899485560619
3.28,-0.15795100241858,-0.000185604738683995
3.282,-0.154916143943474,0.00334019351972099
3.284,-0.151743191681142,0.006770830409255
3.286,-0.148467525259069,0.010017388894613
3.288,-0.145178638362811,0.012672237131726
3.29,-0.141660669674976,0.016039718388977
3.292,-0.138121759803971,0.018816710568471
3.294,-0.134487496422459,0.021425596227317
3.296,-0.130786127535602,0.023855397898945
3.298,-0.127020671429017,0.026149427514459
3.3,-0.123188616596485,0.028228288624023
3.302,-0.119316592457401,0.0301510432182171
3.304,-0.115360745063971,0.0319041570495013
3.306,-0.111430176916186,0.0334638390536054
3.308,-0.107434987338481,0.0348516327709884
3.31,-0.103409245688283,0.036059808668322
3.312,-0.099357823982738,0.0371058252598995
3.314,-0.095273789210602,0.0379328485291795
3.316,-0.091460117988956,0.0383763345502177
3.318,-0.087211175879156,0.0390931043091676
3.32,-0.083412884674918,0.0391410945257658
3.322,-0.079130465736244,0.0395148394748098
3.324,-0.075137012954161,0.0394631854076291
3.326,-0.071142156185144,0.0392540611735574
3.328,-0.067246447985334,0.0388256722414093
3.33,-0.063347347314514,0.0382498125208948
3.332,-0.059527250009803,0.0374789050841011
3.334,-0.055761337759151,0.0365894772868709
3.336,-0.052111298554604,0.0354721554902144
3.338,-0.048446283735247,0.0342219992817166
3.34,-0.044883737130002,0.0328249169968558
3.342,-0.041476741320126,0.0312495949403635
3.344,-0.038090098011499,0.0295158061075175
3.346,-0.034809116426659,0.0276258484054297
3.348,-0.031670640786631,0.0256390450842871
3.35,-0.028597532192474,0.023453869928545
3.352,-0.025660012146631,0.0211429803981383
3.354,-0.023166164004032,0.0186950602495824
3.356,-0.020155579912974,0.0161761958571038
3.358,-0.017602389565741,0.0134995277136707
3.36,-0.015191720339048,0.0107193500120113
3.362,-0.012934000414194,0.00781850445558289
3.364,-0.011098737157034,0.0048404426994802
3.366,-0.00875449171769699,0.0016788557813084
3.368,-0.006943473530099,-0.0014936446880128
3.37,-0.005594915711204,-0.0047465866734807
3.372,-0.00371857966009799,-0.0081815813953162
3.374,-0.00272757135678801,-0.0115114309083304
3.376,-0.00122075426084201,-0.0151154827913154
3.378,-0.000572756609772018,-0.0185615664665588
3.38,0.000656150882820006,-0.0222797791093595
3.382,0.00101628202926599,-0.0258316717876676
3.384,0.00181745467011299,-0.0296642080517444
3.386,0.00214925787658601,-0.033430804293935
3.388,0.00229625945331102,-0.0371752371584745
3.39,0.00189191774120198,-0.0407654695613831
3.392,0.00175173832060099,-0.0445627079426563
3.394,0.001650273714598,-0.0485670749403839
3.396,0.00102652159257299,-0.0523181530777036
3.398,0.000299212873969001,-0.0561181562211993
3.4,-0.000655830767787996,-0.0598815090921265
3.402,-0.00202143960107298,-0.0633521511196012
3.404,-0.00307583513175699,-0.0672960438660835
3.406,-0.00454439329855899,-0.0709495538979242
3.408,-0.00620953876833602,-0.07457471085605
3.41,-0.008019636631074,-0.0781227005966889
3.412,-0.010036554594713,-0.0816250204122155
3.414,-0.012182744679788,-0.0850802913420991
3.416,-0.01452909291385,-0.0884294090339436
3.418,-0.017185521425692,-0.0913711293346081
3.42,-0.019827779439408,-0.0945514164114765
3.422,-0.022494655968225,-0.0979337602337805
3.424,-0.025476029208167,-0.100965383934063
3.426,-0.028601269731508,-0.103821727269722
3.428,-0.031864012780079,-0.106607394254685
3.43,-0.035362705558331,-0.108900553191196
3.432,-0.038823582656248,-0.111774623811692
3.434,-0.042484677632069,-0.114181808670804
3.436,-0.046295055324843,-0.116456901287487
3.438,-0.050222037766747,-0.118553357767245
3.44,-0.054255999275315,-0.12054912670451
3.442,-0.058445754055395,-0.122328423095076
3.444,-0.062691106781002,-0.124017303558737
3.446,-0.067043844246934,-0.125494005721987
3.448,-0.071512936820294,-0.126830732700865
3.45,-0.076028456591751,-0.127998440483948
3.452,-0.080620356616694,-0.128624405015422
3.454,-0.085277791276179,-0.129463761078346
3.456,-0.090122476347762,-0.130462325877981
3.458,-0.094964365706086,-0.130999286125325
3.46,-0.099802064233375,-0.131213141920692
3.462,-0.10472814297974,-0.13130364513753
3.464,-0.109686989593315,-0.131208964606283
3.466,-0.11469536261024,-0.13095399529846
3.468,-0.119700065064509,-0.130450049310795
3.47,-0.12473136067762,-0.129797459149577
3.472,-0.129783199640117,-0.128940631215127
3.474,-0.13482502246293,-0.127882868186383
3.476,-0.139863075852626,-0.126658716905688
3.478,-0.144887379399446,-0.125218381963653
3.48,-0.149901214851248,-0.123579101484244
3.482,-0.154901454050277,-0.121729824709949
3.484,-0.159862778499791,-0.119749943487163
3.486,-0.164749316071562,-0.117511448551659
3.488,-0.169619369425227,-0.115115452014259
3.49,-0.174423164266493,-0.112517586846643
3.492,-0.179154443025232,-0.10973911236731
3.494,-0.183820682313395,-0.106755376027721
3.496,-0.188417488722865,-0.103631084598537
3.498,-0.192953598753101,-0.100304703356117
3.5,-0.197024922098696,-0.0966072229690684
3.502,-0.201658837106824,-0.0931190777850349
3.504,-0.205878593814503,-0.0892600047176262
3.506,-0.209988677595821,-0.0852420461334859
3.508,-0.213944939428933,-0.0810666635395658
3.51,-0.217809457433048,-0.0767169000705278
3.512,-0.221542283785218,-0.0722320786763632
3.514,-0.225115468947046,-0.0675767910101
3.516,-0.228587231411291,-0.0628091932557682
3.518,-0.231897835148324,-0.0578549349164669
3.52,-0.235056618862516,-0.0528074269726526
3.522,-0.238026224778488,-0.0476005013405486
3.524,-0.24086718906727,-0.0422857066907851
3.526,-0.243075106842351,-0.0368614052871545
3.528,-0.246025104345635,-0.0313416774455833
3.53,-0.247927127133279,-0.0257111368032655
3.532,-0.250466382361472,-0.0199438038979638
3.534,-0.252407949272063,-0.0141116443575016
3.536,-0.254164111078135,-0.0081712955594465
3.538,-0.255754297949494,-0.002172271350896
3.54,-0.25671749989802,0.0037973663814222
3.542,-0.258297468163001,0.0100453895810213
3.544,-0.25927371109631,0.0162348962512127
3.546,-0.26004467484755,0.0224929139245896
3.548,-0.260645591749099,0.0287702048522344
3.55,-0.260984518301067,0.0351160766828438
3.552,-0.261125887456199,0.0414678996315516
3.554,-0.261121508704678,0.0478613664336826
3.556,-0.260826252858874,0.0542297403712487
3.558,-0.260387362038016,0.0606346118438887
3.56,-0.259686222552794,0.0670296692170024
3.562,-0.258471906289887,0.0731751033307256
3.564,-0.257689539396437,0.0797739236317101
3.566,-0.256374537064482,0.0861195788756854
3.568,-0.25486124541527,0.0924490949472709
3.57,-0.253137097083569,0.0986896543692099
3.572,-0.251216481001901,0.104932646739353
3.574,-0.249051378284728,0.111105064977518
3.576,-0.246712045412573,0.11718610856213
3.578,-0.244177704416098,0.123261462646669
3.58,-0.241420009860155,0.129195517955946
3.582,-0.238262383727755,0.134719583612169
3.584,-0.235359323704027,0.140830844180838
3.586,-0.232030974760117,0.146508828766425
3.588,-0.228518328637043,0.15209644725789
3.59,-0.224674230529549,0.157169201473994
3.592,-0.220817495469871,0.162517816238416
3.594,-0.216919169311522,0.168119515274679
3.596,-0.212708024313021,0.173212943430888
3.598,-0.208347957121576,0.178162688184302
3.6,-0.203801738956798,0.182945989175643
3.602,-0.199096771004316,0.187628256863311
3.604,-0.194221481749454,0.191729092917309
3.606,-0.189301042100802,0.196453623203068
3.608,-0.184157716533851,0.200646350855005
3.61,-0.178891751344548,0.204646969379927
3.612,-0.173527192582881,0.208499257060241
3.614,-0.16802134457643,0.212171061356968
3.616,-0.162405562643914,0.215605109912559
3.618,-0.156678230128756,0.218875316853539
3.62,-0.150863049372583,0.221988248492946
3.622,-0.144920903038811,0.22487569213256
3.624,-0.138961373266141,0.227547514164985
3.626,-0.13300502718212,0.229632571075515
3.628,-0.126748623956685,0.232312892343809
3.63,-0.120537373035703,0.234401681845369
3.632,-0.11425095869454,0.236285822252858
3.634,-0.107944397611614,0.237954838037207
3.636,-0.101596246462009,0.239384393168514
3.638,-0.095220744450026,0.240617651416804
3.64,-0.0888232787248427,0.241603177752568
3.642,-0.0823695749411157,0.242423438447104
3.644,-0.0759217933896463,0.243011440572696
3.646,-0.0694704596410528,0.243439821202606
3.648,-0.0633104431254769,0.243217540310865
3.65,-0.0566426902993152,0.24347002047186
3.652,-0.0505310489519752,0.242882518359808
3.654,-0.0438412003626551,0.242728799247948
3.656,-0.0375219624641943,0.241997261607621
3.658,-0.0312209481269053,0.241081827807148
3.66,-0.0250055577924804,0.239952376810507
3.662,-0.0188031536379445,0.238633109675842
3.664,-0.0127177484496043,0.237077909153797
3.666,-0.00668565425709471,0.235329300085651
3.668,-0.00071901625742711,0.233386288601292
3.67,0.0051179446008853,0.231240081417007
3.672,0.0108555010136481,0.228912611733068
3.674,0.0165277748268068,0.226399089931169
3.676,0.0220726979321501,0.223692035271703
3.678,0.0274597758629856,0.220801673890789
3.68,0.0328051955397715,0.217732048797218
3.682,0.0379638624656684,0.214514094269147
3.684,0.0430150690420313,0.211104624750662
3.686,0.0478990055938517,0.207545225878165
3.688,0.052634448385118,0.203835830796555
3.69,0.0572635477341375,0.199960624915286
3.692,0.0612107884287451,0.195924933714221
3.694,0.065936255041485,0.191817513249341
3.696,0.0700696624446987,0.187516320998246
3.698,0.0739703956255365,0.183126181425544
3.7,0.077712899400896,0.17859791624803
3.702,0.0812733621322948,0.173966236519723
3.704,0.0846594083406517,0.169200174716724
3.706,0.0878280987209811,0.164326357031918
3.708,0.0908327044570166,0.159438125999536
3.71,0.0936204602357486,0.1544206784495
3.712,0.0962360843618728,0.149331353001676
3.714,0.098618101072121,0.144182193659918
3.716,0.100371854349585,0.139127701875981
3.718,0.102784508637838,0.133675343663269
3.72,0.104550715655047,0.128383230850434
3.722,0.106150965707961,0.123020724240807
3.724,0.107484069205791,0.117666202276697
3.726,0.108642812374012,0.112244265915529
3.728,0.109597430768045,0.106831573064823
3.73,0.109854749786872,0.101727857115062
3.732,0.110806518086494,0.095968498091342
3.734,0.111122604993338,0.090611181744959
3.736,0.111200740817518,0.085184151217801
3.738,0.111079117766014,0.079802695442592
3.74,0.110745966455723,0.074502670915037
3.742,0.110227675326423,0.06922340788579
3.744,0.109495438853595,0.0639526703223
3.746,0.108532058861142,0.058797257380493
3.748,0.107124645134017,0.05408440634637
3.75,0.106083647430683,0.048628118897433
3.752,0.104550281195508,0.043659967443967
3.754,0.102810367471014,0.038802931170228
3.756,0.10090113341,0.034020727365486
3.758,0.0988272171875497,0.029311732844918
3.76,0.0965410292129348,0.024776526380421
3.762,0.0940773208413429,0.020336685201226
3.764,0.0914755127855435,0.015989090634489
3.766,0.0886986405273683,0.011780463185677
3.768,0.0857386927291009,0.007708380668851
3.77,0.0826578496447261,0.003794297706864
3.772,0.0793956381410292,1.68224814219992E-05
3.774,0.0759910072385931,-0.00362226367700499
3.776,0.0724813339926362,-0.00709100809931701
3.778,0.0688102986937303,-0.010409180588089
3.78,0.0650326333383746,-0.013065059427953
3.782,0.0611552126194344,-0.016528267896115
3.784,0.0571079184664397,-0.019316060672938
3.786,0.0529850440857538,-0.02192170715269
3.788,0.0487639147105819,-0.024396322554327
3.79,0.0445564078308545,-0.026123435732435
3.792,0.0402300306329593,-0.028075869288246
3.794,0.0356271943993377,-0.030583784880753
3.796,0.0310582296979187,-0.032209306137917
3.798,0.0264842506214331,-0.033653206867994
3.8,0.0220260473165532,-0.034476939270923
3.802,0.0173687867429092,-0.035547978449809
3.804,0.012413407771936,-0.036865580722546
3.806,0.00766996411257551,-0.037535130033415
3.808,0.00285614042285254,-0.037944390464926
3.81,-0.00192576511575023,-0.038193506449587
3.812,-0.00641015794401705,-0.037803138081857
3.814,-0.0114890096719098,-0.038020805830138
3.816,-0.0162918773776282,-0.037659014448853
3.818,-0.0210342177478158,-0.037033777490604
3.82,-0.0253653168759289,-0.035804507318403
3.822,-0.0304662274607428,-0.035227703017956
3.824,-0.0347334833390591,-0.033714071210059
3.826,-0.0397183119185289,-0.032642775663017
3.828,-0.0442679925306409,-0.031009981505165
3.83,-0.0487518964138866,-0.029197474737428
3.832,-0.0531499850970656,-0.02726348874597
3.834,-0.057478652482779,-0.025034023614858
3.836,-0.0617035072510386,-0.022646539538857
3.838,-0.0658381967830771,-0.020094396336203
3.84,-0.0699284378953201,-0.017344252161478
3.842,-0.0738249159734728,-0.014420294018551
3.844,-0.0770571430768313,-0.011083020873494
3.846,-0.081321230982727,-0.008085637467658
3.848,-0.084334062471127,-0.004473331130687
3.85,-0.0882466986894145,-0.001035400993664
3.852,-0.091528809397341,0.00271571469776999
3.854,-0.0946326018221037,0.006605060070213
3.856,-0.0976053088536386,0.010613966559251
3.858,-0.100412205440056,0.014774919236237
3.86,-0.103056574683223,0.019061476034943
3.862,-0.10500313883455,0.02349660821826
3.864,-0.107822062290922,0.027992472804821
3.866,-0.109984266590793,0.032659346495613
3.868,-0.111902421510455,0.037400667760543
3.87,-0.113111936160488,0.042169415845022
3.872,-0.115217368782335,0.047169635066482
3.874,-0.116542532045093,0.052164538050894
3.876,-0.117692308842446,0.057241966599267
3.878,-0.118657433289758,0.06241598175413
3.88,-0.119449830421365,0.067600339705995
3.882,-0.11947264738799,0.072698493099816
3.884,-0.120311021054374,0.078150365101439
3.886,-0.120500872197026,0.083523951494021
3.888,-0.120342464202183,0.088858145114479
3.89,-0.120062817763912,0.094235438681916
3.892,-0.119567811782391,0.099618991991054
3.894,-0.118830666862339,0.105039872410631
3.896,-0.117474263711646,0.11012981887288
3.898,-0.116787691940131,0.115811662169923
3.9,-0.114988401558489,0.120813706363221
3.902,-0.113832448777419,0.126470786588045
3.904,-0.112083326306867,0.131773613572914
3.906,-0.1096785143555,0.136614474208086
3.908,-0.107885222330284,0.142173987232025
3.91,-0.105411823236281,0.14726824954794
3.912,-0.10253829927656,0.151917385420288
3.914,-0.0996955216523177,0.156896269731305
