"Freq [GHz]","re(S(Antenna1_1_p1,Antenna1_1_p1)) []","im(S(Antenna1_1_p1,Antenna1_1_p1)) []"
3,0.111864475052387,-0.102061348209587
3.002,0.110630742263,-0.104097237081128
3.004,0.109342527801926,-0.106089563958213
3.006,0.108002178715518,-0.108051654111832
3.008,0.106607070320052,-0.110005023706078
3.01,0.105164648153275,-0.111918559662891
3.012,0.103681887725996,-0.113806854757245
3.014,0.102135238433707,-0.11565256496384
3.016,0.100556240338189,-0.117470100843087
3.018,0.0989230234692424,-0.119246978836679
3.02,0.0972549779563935,-0.120984918432505
3.022,0.0955219072306598,-0.122684657979112
3.024,0.0937636334363809,-0.124331120429568
3.026,0.0919751646731175,-0.125960525354792
3.028,0.0901391597375956,-0.127534140106353
3.03,0.0882563709457071,-0.129056225668811
3.032,0.0863511826646373,-0.130538025921385
3.034,0.0844051355050112,-0.13197102868926
3.036,0.0824237955631525,-0.133358986124279
3.038,0.0804207781534368,-0.134700132215175
3.04,0.0783790086207017,-0.135987893267268
3.042,0.076314229253807,-0.137205173111676
3.044,0.07421153199924,-0.138418247564039
3.046,0.0721069556218701,-0.139544402142736
3.048,0.069972846112786,-0.140624810756616
3.05,0.0678167487472692,-0.141651665782254
3.052,0.065646870502858,-0.142609790840705
3.054,0.06344901875355,-0.143537480413839
3.056,0.0612388648231328,-0.144407723990182
3.058,0.0590246488206504,-0.145213746180212
3.06,0.0567880702083762,-0.14596779115134
3.062,0.0545621160784629,-0.146664648212313
3.064,0.0523243780272852,-0.147311591867263
3.066,0.0500451939004716,-0.147903414199194
3.068,0.0478152223600752,-0.148443183873156
3.07,0.0455569201059626,-0.1489264849689
3.072,0.0432995963824154,-0.149353845033082
3.074,0.0410234935047382,-0.149730345081131
3.076,0.0387892622050651,-0.150048808998602
3.078,0.0365255013823133,-0.150318068412142
3.08,0.0342907223082896,-0.150522288520073
3.082,0.0320628871500308,-0.15068765923249
3.084,0.029820391200247,-0.150799021050999
3.086,0.0276201717479667,-0.150855046758127
3.088,0.0254350093224046,-0.150873763366151
3.09,0.0232174899959499,-0.150823393375669
3.092,0.021052890010368,-0.150730407773825
3.094,0.0189152112032107,-0.150601380061958
3.096,0.0168001503244003,-0.150419616333094
3.098,0.0146949814429856,-0.150183213958897
3.1,0.0125975853741464,-0.149901131096316
3.102,0.0105137200363232,-0.14957919975408
3.104,0.0084726232788112,-0.149209722997592
3.106,0.006463154368891,-0.148806399596469
3.108,0.0044987679800803,-0.148372691597813
3.11,0.0025178646299295,-0.147873265021959
3.112,0.000616354328253098,-0.147368612186783
3.114,-0.0012844325644416,-0.146810812011964
3.116,-0.0031457851282842,-0.146228999982707
3.118,-0.0050083467951924,-0.14557140651327
3.12,-0.0067851059498114,-0.144932744150144
3.122,-0.0085469145701512,-0.144235593403856
3.124,-0.0102914516881207,-0.143510949875503
3.126,-0.0119855082697142,-0.142770067058957
3.128,-0.0136492827750773,-0.141984890325773
3.13,-0.0152644607082329,-0.141192010896722
3.132,-0.0168728875566799,-0.140347318854102
3.134,-0.018417953850716,-0.139505629835731
3.136,-0.019907153392479,-0.138649232525617
3.138,-0.0213886091548252,-0.137758570595332
3.14,-0.0228253652899235,-0.136870981215834
3.142,-0.0242213295476558,-0.13594658371071
3.144,-0.0255769004636978,-0.134988264091205
3.146,-0.0268850572774512,-0.134058101532471
3.148,-0.0281724118496342,-0.133086140191098
3.15,-0.0294046326597121,-0.132139043628622
3.152,-0.030605551383063,-0.131176643507115
3.154,-0.031756880277823,-0.13018155385537
3.156,-0.0328955786515792,-0.129183125883885
3.158,-0.0339740147477657,-0.128213554852539
3.16,-0.0350152034718068,-0.127223281814072
3.162,-0.036021754087004,-0.126206015242263
3.164,-0.0369982460802148,-0.12522083575596
3.166,-0.0379349207071991,-0.12425895714377
3.168,-0.0388424317577878,-0.123275241782574
3.17,-0.0396921664107379,-0.122274810475821
3.172,-0.040524948858365,-0.121331985969584
3.174,-0.041325656400902,-0.120363719558355
3.176,-0.0420791920405904,-0.119387019000713
3.178,-0.0428227138355646,-0.118472503834705
3.18,-0.0435153523333719,-0.117539028563031
3.182,-0.0441710155243407,-0.116598952948046
3.184,-0.0448120565846394,-0.115691565816555
3.186,-0.0454319432590488,-0.114824594044373
3.188,-0.0460037278035233,-0.11395978971075
3.19,-0.0465670291874359,-0.113100920612557
3.192,-0.0470890099656117,-0.112232954088312
3.194,-0.0476031404900576,-0.111449937441998
3.196,-0.0480906450714375,-0.110640013936725
3.198,-0.0485485110202961,-0.109866335118217
3.2,-0.0490089508329762,-0.109117119448068
3.202,-0.0493927899743491,-0.108366482976932
3.204,-0.049819419855184,-0.107665082567445
3.206,-0.0502059172193099,-0.106967264037038
3.208,-0.0505785761864999,-0.106302890920586
3.21,-0.0509205424410784,-0.10565284745289
3.212,-0.0512702043392741,-0.105037278191009
3.214,-0.0516052562632763,-0.104454591856442
3.216,-0.0519378166720783,-0.103876290887167
3.218,-0.0522442819399802,-0.103341064489524
3.22,-0.0525566586189496,-0.102824968380005
3.222,-0.0528642429660105,-0.102334009376815
3.224,-0.0531757924401017,-0.101866478631418
3.226,-0.0534776614419182,-0.10142958262985
3.228,-0.0537713394374161,-0.101019152823954
3.23,-0.0540764318062065,-0.100630367192507
3.232,-0.0543658766184913,-0.100265485562175
3.234,-0.0546674586404804,-0.099926859968403
3.236,-0.054966766001483,-0.099604660456159
3.238,-0.0552836861158185,-0.099317696100569
3.24,-0.0556105977833694,-0.099050632587458
3.242,-0.0559280911799061,-0.098806097833793
3.244,-0.0562687594791684,-0.098588448377981
3.246,-0.056609066316613,-0.098380332380128
3.248,-0.0569687807419803,-0.098209847682137
3.25,-0.0573286835424992,-0.098042288107781
3.252,-0.0577406519869234,-0.097906829782633
3.254,-0.0581265837792231,-0.097784773233938
3.256,-0.0585408589920309,-0.097688138510383
3.258,-0.0589834704098637,-0.097585831671805
3.26,-0.059426381402013,-0.097531764888794
3.262,-0.0599037756052309,-0.097456528352253
3.264,-0.0603916900161025,-0.097421149002867
3.266,-0.0609001746831733,-0.097389250730483
3.268,-0.0614380513288425,-0.097370552603469
3.27,-0.0619832616209247,-0.097357808727985
3.272,-0.06257688638403,-0.097364120477156
3.274,-0.0631647863405963,-0.097388394250265
3.276,-0.0637887890717412,-0.097407692051829
3.278,-0.0644468296077944,-0.097433587290619
3.28,-0.0651117236385796,-0.097468008538684
3.282,-0.0658215044234739,-0.097506444409279
3.284,-0.0665498323011423,-0.097537184562745
3.286,-0.0672984545890687,-0.097575225185387
3.288,-0.0680787826128109,-0.097613121257274
3.29,-0.0689024016149762,-0.097656160705023
3.292,-0.0697362883639712,-0.097677053831529
3.294,-0.0705947204024589,-0.097717261669683
3.296,-0.071476185445602,-0.097742602061055
3.298,-0.0724175852990166,-0.097751718604541
3.3,-0.0733448136664852,-0.097766797860077
3.302,-0.074324037147401,-0.0977595179547829
3.304,-0.075310095423971,-0.0977671197164987
3.306,-0.076350349748186,-0.0977369929313946
3.308,-0.077399005598481,-0.0976990355670116
3.31,-0.078480483856183,-0.097646708404678
3.312,-0.079582517691738,-0.0975794934941005
3.314,-0.080716387380602,-0.0975039392458205
3.316,-0.081875643058956,-0.0973860315437823
3.318,-0.083055984569156,-0.0972683747448324
3.32,-0.084272715024918,-0.0971165718142342
3.322,-0.085492710546244,-0.0969699135851902
3.324,-0.086742568234161,-0.0967719016523709
3.326,-0.088024352685144,-0.0965601813364426
3.328,-0.089321476175334,-0.0963266098985907
3.33,-0.090627567174514,-0.0960482182391052
3.332,-0.091971233289803,-0.0957651091358989
3.334,-0.093336291539151,-0.0954313453631291
3.336,-0.094707072964604,-0.0950856006197856
3.338,-0.096106167425247,-0.0947037611982834
3.34,-0.097509191400002,-0.0942826869531442
3.342,-0.098928426180126,-0.0938333888696365
3.344,-0.100372684631499,-0.0933444082924825
3.346,-0.101814969806659,-0.0928431716545703
3.348,-0.103280446456631,-0.0922666903757129
3.35,-0.104752523762474,-0.091690585401455
3.352,-0.106235247216631,-0.0910772533418617
3.354,-0.107717898454032,-0.0903941754004176
3.356,-0.109230557392974,-0.0897049360328962
3.358,-0.110728220745741,-0.0889532424063293
3.36,-0.112236470329048,-0.0881852033379887
3.362,-0.113756582314194,-0.0873570229944171
3.364,-0.115263890628034,-0.0864960019605198
3.366,-0.116777444968697,-0.0856042178586916
3.368,-0.118291785937099,-0.0846676027380128
3.37,-0.119799733180204,-0.0836762073134807
3.372,-0.121305910702098,-0.0826684717253162
3.374,-0.122795147897788,-0.0815816702883304
3.376,-0.124296797410842,-0.0804889389613154
3.378,-0.125785156660772,-0.0793349364065588
3.38,-0.12725008130718,-0.0781389984693595
3.382,-0.128708926602534,-0.0769078877376676
3.384,-0.130180893292187,-0.0756357328917444
3.386,-0.131616171732414,-0.074333513063935
3.388,-0.133033616682689,-0.0729554636684745
3.39,-0.134447496274798,-0.0715714908113831
3.392,-0.135825539198399,-0.0701155808904763
3.394,-0.137198108698402,-0.0686410063853839
3.396,-0.138543189014427,-0.0671209933077036
3.398,-0.139877598705031,-0.0655692328711993
3.4,-0.141173300283788,-0.0639652320821265
3.402,-0.142434119744073,-0.0623237180896012
3.404,-0.143690071471757,-0.0606455886360835
3.406,-0.144897231428559,-0.0589277429179242
3.408,-0.146098343898336,-0.05719244871605
3.41,-0.147247107841074,-0.0553962490166889
3.412,-0.148386260854713,-0.0535728663722155
3.414,-0.149472785949788,-0.0517265053020991
3.416,-0.15053241335385,-0.0498397197939436
3.418,-0.151557531665692,-0.0479066139146081
3.42,-0.152520669369408,-0.0459639290914765
3.422,-0.153482759938225,-0.0439754026937805
3.424,-0.154393894668167,-0.041971533384063
3.426,-0.155255206571508,-0.0399317117797225
3.428,-0.156091004640079,-0.0378573439046846
3.43,-0.156862642768331,-0.0357765114911962
3.432,-0.157609582256248,-0.0336564811016924
3.434,-0.158298588122069,-0.0315148750508036
3.436,-0.158952348604843,-0.0293607231174868
3.438,-0.159564795616747,-0.0271686408772454
3.44,-0.160107826815315,-0.0249816815245102
3.442,-0.160631408435395,-0.0227570156950755
3.444,-0.161077704231002,-0.0205252798487369
3.446,-0.161490555246934,-0.0182772710459866
3.448,-0.161865454050294,-0.0160133743388652
3.45,-0.162175068581751,-0.0137497831689477
3.452,-0.162444405906694,-0.0114600632154222
3.454,-0.162648344056179,-0.00918950343134643
3.456,-0.162821948067762,-0.00687522318198083
3.458,-0.162927754596086,-0.00458311575232494
3.46,-0.162989045073375,-0.00228151577369163
3.462,-0.16299680185974,3.09989114701899E-05
3.464,-0.162960166063315,0.00233094427431692
3.466,-0.16286089096024,0.00464060896724004
3.468,-0.162719446984509,0.00694370591920474
3.47,-0.16252939168762,0.0092281588904226
3.472,-0.162274083888117,0.0115406221698729
3.474,-0.16197560474093,0.0138245865636166
3.476,-0.161635742966626,0.0160762578493116
3.478,-0.161225671060446,0.0183346227623468
3.48,-0.160782943941248,0.0205978140377556
3.482,-0.160285902180277,0.0228471150980513
3.484,-0.159742951959791,0.0250532390488373
3.486,-0.159139202061562,0.0272674456783406
3.488,-0.158509367015227,0.0294376093257411
3.49,-0.157808713916493,0.0316122577333574
3.492,-0.157072397545232,0.0337566300426897
3.494,-0.156287448703395,0.0358839318422793
3.496,-0.155473483562865,0.037965963361463
3.498,-0.154597113623101,0.0400551109438831
3.5,-0.153695344488696,0.0420852316409316
3.502,-0.152736660916824,0.0441002453649651
3.504,-0.151742838464503,0.0460867707223738
3.506,-0.150706923495821,0.0480379759765141
3.508,-0.149632943008933,0.0499700244604342
3.51,-0.148521377323048,0.0518606132294722
3.512,-0.147377974025218,0.0537198657536368
3.514,-0.146168585227046,0.0555330778799
3.516,-0.144971258571291,0.0573251563742318
3.518,-0.143731557218324,0.0590768719035331
3.52,-0.142447713882516,0.0607781563473474
3.522,-0.141112301018488,0.0624618746994514
3.524,-0.13977565991727,0.0640974036292149
3.526,-0.138419083212351,0.0656850556728455
3.528,-0.137028164941635,0.0672292987344167
3.53,-0.135586402702279,0.0687367166867345
3.532,-0.134173950912472,0.0702195113820362
3.534,-0.132683304770063,0.0716419155124984
3.536,-0.131209044406135,0.0730386825705535
3.538,-0.129725723664494,0.074369832819104
3.54,-0.12817878724102,0.0756543566514222
3.542,-0.126652004654001,0.0769137026310213
3.544,-0.12511737508831,0.0781433168612127
3.546,-0.12354919058905,0.0792980632845896
3.548,-0.121993119217999,0.0804219735522344
3.55,-0.120403889501067,0.0814966776728438
3.552,-0.118787400381199,0.0825281657615516
3.554,-0.117195353291678,0.0835044823686826
3.556,-0.115596551340874,0.0844443838982487
3.558,-0.114003039347016,0.0853391010862887
3.56,-0.112398847362794,0.0862216567490024
3.562,-0.110773692016887,0.0870157558707256
3.564,-0.109165776463437,0.0877921903817101
3.566,-0.107548173031482,0.0885124047656854
3.568,-0.10594190124527,0.0891857364372709
3.57,-0.104347714203569,0.0898333849492099
3.572,-0.102757162941901,0.0904292533193531
3.574,-0.101171296074728,0.0909990248375179
3.576,-0.099591732662573,0.0914993309021303
3.578,-0.098024788386098,0.091961478536669
3.58,-0.096467958650155,0.0924074275759463
3.582,-0.094916420727755,0.0928066504821691
3.584,-0.093401429724027,0.093163410600838
3.586,-0.091887024640117,0.0934710326064247
3.588,-0.090387279177043,0.0937692594678896
3.59,-0.088910422489549,0.0940168477539944
3.592,-0.087435339079871,0.0942155454184159
3.594,-0.085995572111522,0.0943957033046786
3.596,-0.084566410533021,0.0945375435708876
3.598,-0.083164511161576,0.0946582181943024
3.6,-0.081784378676798,0.0947482230256428
3.602,-0.080421393464316,0.094796966793311
3.604,-0.079100372549454,0.0948226312173087
3.606,-0.077784979630802,0.0948292993930682
3.608,-0.076491078623851,0.0948057502950054
3.61,-0.0752392448845481,0.0947653944399266
3.612,-0.0740158060728813,0.0946714177572414
3.614,-0.07279918369643,0.0945753837949679
3.616,-0.0716197201639138,0.0944563370895591
3.618,-0.0704636316687556,0.094325667048539
3.62,-0.0693549806025832,0.0941702375869458
3.622,-0.0682556579988115,0.0939916977525597
3.624,-0.0672113486761408,0.0937711129989854
3.626,-0.0661802464721196,0.0935547862915147
3.628,-0.0651734690866849,0.0933388140688085
3.63,-0.0642107406057032,0.0931032382071693
3.632,-0.0632514776745401,0.0928727315258583
3.634,-0.0623603159816142,0.0925943738032071
3.636,-0.0614842970620088,0.0923264554785139
3.638,-0.060631427351026,0.0920534203688041
3.64,-0.0598222108378427,0.0917678088815675
3.642,-0.0590379088591157,0.0914817097791043
3.644,-0.0582816457726463,0.0911782216946958
3.646,-0.0575587606610528,0.0908941034226065
3.648,-0.0568574216754769,0.0906044829928645
3.65,-0.0562049378093152,0.0902984692578599
3.652,-0.0555632696519752,0.090004983819808
3.654,-0.0549716502726551,0.089720311977948
3.656,-0.0543939613241943,0.089431381977621
3.658,-0.0538432627569053,0.089144089007148
3.66,-0.0533352153624804,0.088875098650507
3.662,-0.0528460269779445,0.088603457125842
3.664,-0.0523858595096043,0.088345856003797
3.666,-0.0519422116770947,0.088100190135651
3.668,-0.0515517214574271,0.087850144021292
3.67,-0.0511748039191147,0.087628996707007
3.672,-0.0508234775263519,0.087418366503068
3.674,-0.0504770223931932,0.087221763151169
3.676,-0.0501778578478499,0.087034902081703
3.678,-0.0498941624570144,0.086861279020789
3.68,-0.0496255254402285,0.086715623047218
3.682,-0.0493846616343316,0.086582278259147
3.684,-0.0491558793379687,0.086461015250662
3.686,-0.0489492544761483,0.086367876468165
3.688,-0.048768839644882,0.086296340406555
3.69,-0.0485983117658625,0.086238126305286
3.692,-0.0484505602112549,0.086211014544221
3.694,-0.048310400808515,0.086206846909341
3.696,-0.0481660770123013,0.086216521658246
3.698,-0.0480634673714635,0.086231521965544
3.7,-0.047955986994104,0.08631960618803
3.702,-0.0478678961007052,0.086404733759723
3.704,-0.0477873542883483,0.086513936396724
3.706,-0.0477084513020189,0.086648466501918
3.708,-0.0476333878229834,0.086815850689536
3.71,-0.0475840924792514,0.0870025957995
3.712,-0.0475052270501272,0.087226925681676
3.714,-0.047445039963579,0.087483692609918
3.716,-0.0473925392915147,0.087752235775981
3.718,-0.0473357353951621,0.088040936593269
3.72,-0.0472663053249527,0.088375575980434
3.722,-0.0471991299330388,0.088728809664807
3.724,-0.047131287541209,0.089112189535697
3.726,-0.0470641314289882,0.089519664847529
3.728,-0.0469694745969552,0.089947230382823
3.73,-0.0468922691261279,0.090406642495062
3.732,-0.0467910560065063,0.090892746141342
3.734,-0.0466744040846625,0.091410984454959
3.736,-0.0465455759524823,0.091952323587801
3.738,-0.0464196191039859,0.092519571162592
3.74,-0.0462684421542767,0.093103022885037
3.742,-0.0460997474135766,0.09371861493579
3.744,-0.045909228396405,0.0943509585923
3.746,-0.0457265495388577,0.094999386560493
3.748,-0.0454972729859832,0.09569166499637
3.75,-0.045254918759317,0.096391158917433
3.752,-0.0449865731244924,0.097106963963967
3.754,-0.0447042809989863,0.097870312810228
3.756,-0.0443916967800003,0.098624725965486
3.758,-0.0440610482824503,0.099400529704918
3.76,-0.0436997050070652,0.100185682490421
3.762,-0.0433135947586571,0.101019812721226
3.764,-0.0428955020644565,0.101827243204489
3.766,-0.0424507052326317,0.102678326055677
3.768,-0.0419612026408991,0.103526464498851
3.77,-0.0414755020652739,0.104389348476864
3.772,-0.0409406193889708,0.105275846571422
3.774,-0.0403775408214069,0.106150403332995
3.776,-0.0397814066873638,0.107046752980683
3.778,-0.0391529029362697,0.107934749091911
3.78,-0.0384827079716254,0.108873509182047
3.782,-0.0377899040405656,0.109772294684885
3.784,-0.0370598024535603,0.110680405831062
3.786,-0.0363086679942462,0.11160501269631
3.788,-0.0355126054094181,0.112497758646673
3.79,-0.0346724520991455,0.113433832022565
3.792,-0.0337957958070407,0.114333432233754
3.794,-0.0328971157206623,0.115215946795247
3.796,-0.0319695227220813,0.116126052810083
3.798,-0.0309734595385669,0.117034137829856
3.8,-0.0299643225134468,0.117910803413977
3.802,-0.0289156097470908,0.118791117417191
3.804,-0.027835729768064,0.119654532698454
3.806,-0.0267143469344245,0.120502904819585
3.808,-0.0255652364351475,0.121343390476074
3.81,-0.0243798880917502,0.122158950085413
3.812,-0.023160641680017,0.122961277024143
3.814,-0.0219005927919098,0.123745486809862
3.816,-0.0206176824676282,0.124510566224147
3.818,-0.0192886835478158,0.125263802099396
3.82,-0.0179373589559289,0.125984060341597
3.822,-0.0165533916707428,0.126678215252044
3.824,-0.0151377485390591,0.127347599869941
3.826,-0.0137089522385289,0.127988040286983
3.828,-0.0122153646606409,0.128611102224835
3.83,-0.0107234698538866,0.129198784742572
3.832,-0.0091871389870656,0.12976468587403
3.834,-0.007628945312779,0.130292747095142
3.836,-0.0060453891510386,0.130785813601143
3.838,-0.0044402452230771,0.131246875353797
3.84,-0.0027973726953201,0.131680812988522
3.842,-0.0011442256434728,0.132071964841449
3.844,0.000523807793168702,0.132434654036506
3.846,0.002212229277273,0.132757833702342
3.848,0.003938359118873,0.133040173629313
3.85,0.0056775256905855,0.133276528856336
3.852,0.007426215422659,0.13348791015777
3.854,0.0091770200978963,0.133660268440213
3.856,0.0109607619463614,0.133774603889251
3.858,0.0127638101099444,0.133855100386237
3.86,0.014577810276777,0.133893418044943
3.862,0.0163906281624504,0.13389248141826
3.864,0.0182119846560784,0.133843567374821
3.866,0.0200250287592071,0.133760199535613
3.868,0.0218732432005446,0.133614139300543
3.87,0.0237096903205121,0.133441762585022
3.872,0.0255493054346653,0.133222514906482
3.874,0.0273892682859071,0.132932300550894
3.876,0.0292462512315539,0.132628635109267
3.878,0.0310783675552417,0.13226685631413
3.88,0.0328997014155352,0.131859358085995
3.882,0.0347441169732098,0.131426390759816
3.884,0.0365704170156259,0.130902322331439
3.886,0.0383923804869743,0.130378017844021
3.888,0.0402113690288174,0.129792417114479
3.89,0.0420086314950879,0.129160092929916
3.892,0.0437802772876088,0.128505413704054
3.894,0.0455736424356607,0.127768315593631
3.896,0.0473157636713541,0.12700892579488
3.898,0.0490630907978694,0.126211524079923
3.9,0.0507964675815106,0.125365170273221
3.902,0.0524957088325812,0.124456815568045
3.904,0.0541718076331329,0.123525155362914
