"Freq [GHz]","re(S(Antenna1_1_p1,Antenna1_1_p1)) []","im(S(Antenna1_1_p1,Antenna1_1_p1)) []"
3,0.0789993933853872,-0.085188577751587
3.002,0.0784448818099999,-0.0858807298231278
3.004,0.0778820991759265,-0.086561042504213
3.006,0.0773201588735175,-0.0872455247518325
3.008,0.0767491150200517,-0.0879478833480777
3.01,0.0761984354002745,-0.0886361793698913
3.012,0.0756477794569965,-0.0893416403272454
3.014,0.0750929887477069,-0.09004448364384
3.016,0.0745366645671895,-0.090743736253087
3.018,0.0739712234102424,-0.091447751726679
3.02,0.0734252372813935,-0.092172810552505
3.022,0.0728450813106598,-0.092891994839112
3.024,0.0723252110253809,-0.093621201579568
3.026,0.0717700917571175,-0.094354095474792
3.028,0.0712043372905956,-0.095101122896353
3.03,0.0706361812857071,-0.095846327318811
3.032,0.0700724741246373,-0.096606039811385
3.034,0.0694968386970112,-0.09736331065926
3.036,0.0689425340271525,-0.098136172324279
3.038,0.0683526495745368,-0.098927239255175
3.04,0.0677686552539417,-0.099724946467268
3.042,0.067187471696507,-0.100506185101676
3.044,0.06659042150324,-0.101315574254039
3.046,0.0659884205148701,-0.102140316162736
3.048,0.065371894164786,-0.102954410346616
3.05,0.0647112623012692,-0.103762686672254
3.052,0.064108894104858,-0.104642608970705
3.054,0.06346011007455,-0.105501090173839
3.056,0.0628069762391328,-0.106358764720182
3.058,0.0621309084456504,-0.107231805690212
3.06,0.0614439242519762,-0.10811272399134
3.062,0.0607520518435629,-0.109004643222313
3.064,0.0600388394322852,-0.109898639067263
3.066,0.0593082396924716,-0.110810022369194
3.068,0.0585617928740752,-0.111721397653156
3.07,0.0577981989859626,-0.1126331264589
3.072,0.0570271875484154,-0.113557908263082
3.074,0.0561988038697382,-0.114502295331131
3.076,0.0553884050470651,-0.115427364055602
3.078,0.0545365304413133,-0.116383585982142
3.08,0.0536839364942896,-0.117332907960073
3.082,0.0527923190600308,-0.11828515248949
3.084,0.051906389090247,-0.119251854875999
3.086,0.0509539853679667,-0.120202688420127
3.088,0.0500133269324046,-0.121171187694151
3.09,0.0490253287859499,-0.122125834591669
3.092,0.048029761280368,-0.123100147233825
3.094,0.0469943675532107,-0.124059112975958
3.096,0.0459366932344003,-0.125030212022094
3.098,0.0448400987829856,-0.125983362874897
3.1,0.0437524650641464,-0.126957378602316
3.102,0.0426154883163232,-0.12789982807208
3.104,0.0414480255588112,-0.128848959252592
3.106,0.040266406268891,-0.129776165694469
3.108,0.0390229429500803,-0.130717323238813
3.11,0.0377837439899295,-0.131646194147959
3.112,0.0364949476782531,-0.132569289213783
3.114,0.0352032481555584,-0.133473550296864
3.116,0.0338660513217158,-0.134357892644997
3.118,0.0324913405348076,-0.13523851201577
3.12,0.0310942993901886,-0.136122637212144
3.122,0.0296745005598488,-0.136964302870856
3.124,0.0282158173818793,-0.137808331510503
3.126,0.0267359097502858,-0.138624893030957
3.128,0.0252274436949227,-0.139411236698773
3.13,0.0237051245117671,-0.140201272361722
3.132,0.0221236115633201,-0.140965132049102
3.134,0.020534996549284,-0.141696981592731
3.136,0.018915488277521,-0.142415555943617
3.138,0.0172654921151748,-0.143107339526332
3.14,0.0156056855100765,-0.143753537542134
3.142,0.0138998010223442,-0.14440866768281
3.144,0.0121846233463022,-0.145027617638205
3.146,0.0104404361925488,-0.145611941726471
3.148,0.00867341768036578,-0.146148987443098
3.15,0.00688205910028789,-0.146674393364622
3.152,0.00506535287693698,-0.147171682573115
3.154,0.00322036288217696,-0.14762706454237
3.156,0.0013529465624208,-0.148058173251885
3.158,-0.00050647509776567,-0.148439568504539
3.16,-0.0023939212358068,-0.148792427256072
3.162,-0.004305464624004,-0.149121674392263
3.164,-0.0062321409112148,-0.14939974666596
3.166,-0.0081500861161991,-0.14964710255377
3.168,-0.0101212966377878,-0.149836995562574
3.17,-0.0120766934897379,-0.150006626705821
3.172,-0.014059142566365,-0.150136863139584
3.174,-0.016039606161902,-0.150215596688355
3.176,-0.0180298483695904,-0.150289501450713
3.178,-0.0200307495905646,-0.150283007324705
3.18,-0.0220599295663719,-0.150235587613031
3.182,-0.0240554099813407,-0.150173187328046
3.184,-0.0260811248976394,-0.150055428766555
3.186,-0.0280954133560488,-0.149883394854373
3.188,-0.0301160863341233,-0.14967446645075
3.19,-0.0321361154804889,-0.149428426352557
3.192,-0.0341481898089117,-0.149157726288312
3.194,-0.0361542981990576,-0.148825229981998
3.196,-0.0381585465704375,-0.148462832586725
3.198,-0.0401511020082961,-0.148013656928217
3.2,-0.0421547994409762,-0.147562549158068
3.202,-0.0441389769673491,-0.147089194786932
3.204,-0.046117189319184,-0.146526369837445
3.206,-0.0480818991053099,-0.145957303397038
3.208,-0.0500274876374999,-0.145333737910586
3.21,-0.0519694387230784,-0.14464847852289
3.212,-0.0538800599442741,-0.143962177871009
3.214,-0.0557890633052763,-0.143215928356442
3.216,-0.0576712288810783,-0.142431476037167
3.218,-0.0595382065899802,-0.141621001299524
3.22,-0.0613807784368896,-0.140748364500005
3.222,-0.0631991143703105,-0.139874224426815
3.224,-0.0650060285911017,-0.138944338011418
3.226,-0.0667792763569182,-0.13797684065985
3.228,-0.0685318690064161,-0.136967243243954
3.23,-0.0702592113702065,-0.135950679097507
3.232,-0.0719509072834913,-0.134885095996175
3.234,-0.0736289104274804,-0.133781389552403
3.236,-0.075266102175483,-0.132657884629159
3.238,-0.0768759010188185,-0.131511619241569
3.24,-0.0784681098623694,-0.130341984667458
3.242,-0.0800217866699061,-0.129128493837793
3.244,-0.0815435656791684,-0.127914248880981
3.246,-0.083011642036613,-0.126633039591128
3.248,-0.0844437667619803,-0.125378965903137
3.25,-0.0858764054724992,-0.124051654330781
3.252,-0.0872625866769234,-0.122724533798633
3.254,-0.0886365815792231,-0.121395809433938
3.256,-0.0899274075320309,-0.120026332927383
3.258,-0.0912253662398637,-0.118654179141805
3.26,-0.092451204002013,-0.117260284435794
3.262,-0.0936457109552309,-0.115876988569253
3.264,-0.0948416795561025,-0.114431881740697
3.266,-0.0959773424731733,-0.112996370678683
3.268,-0.0970771641088425,-0.111573805586469
3.27,-0.0981371357809247,-0.110116388926985
3.272,-0.09915567219403,-0.108679679944156
3.274,-0.100143961140596,-0.107200353910265
3.276,-0.101120263631741,-0.105729587278829
3.278,-0.102040490827794,-0.104263016118619
3.28,-0.10292563894858,-0.102779604637684
3.282,-0.103758043403474,-0.101302815612279
3.284,-0.104592188611142,-0.099827017361745
3.286,-0.105359237929069,-0.098351836394387
3.288,-0.106118454812811,-0.096874416888274
3.29,-0.106822172034976,-0.095412517554023
3.292,-0.107505101403971,-0.093941850697529
3.294,-0.108163119602459,-0.092481462992683
3.296,-0.108776901685602,-0.091034930628055
3.298,-0.109353969269017,-0.089591089871541
3.3,-0.109928042366485,-0.088133404605977
3.302,-0.110460235597401,-0.0867081186617829
3.304,-0.110966446517971,-0.0852867921304987
3.306,-0.111427559635186,-0.0838872061863946
3.308,-0.111862120609481,-0.0824869548490116
3.31,-0.112292552988183,-0.081108150651678
3.312,-0.112681341627738,-0.0797367516701005
3.314,-0.113052972708602,-0.0783748221308205
3.316,-0.113395733512956,-0.0770335077597823
3.318,-0.113719831655156,-0.0757145354108324
3.32,-0.114034910025918,-0.0743926879542342
3.322,-0.114318612824244,-0.0730927530751902
3.324,-0.114566927206161,-0.0718327393823709
3.326,-0.114820893950144,-0.0705601981864426
3.328,-0.115062898358334,-0.0693147295385907
3.33,-0.115254164764514,-0.0681007826391052
3.332,-0.115450192356803,-0.0668933936258989
3.334,-0.115622696944151,-0.0657023431031291
3.336,-0.115803793653004,-0.0645294644797856
3.338,-0.115964878493747,-0.0633732252582834
3.34,-0.116126055035302,-0.0622104001831442
3.342,-0.116240952771126,-0.0611023457696365
3.344,-0.116379324728499,-0.0600188256924825
3.346,-0.116493745594659,-0.0589317136645703
3.348,-0.116614505268631,-0.0578552500157129
3.35,-0.116711176378474,-0.056803914001455
3.352,-0.116808515161631,-0.0557903500118617
3.354,-0.116926309945032,-0.0547814387104176
3.356,-0.117005854809974,-0.0537822347028962
3.358,-0.117102956799741,-0.0528085166263293
3.36,-0.117187879374048,-0.0518486331479887
3.362,-0.117275383351194,-0.0508950686944171
3.364,-0.117360971469034,-0.0499783947505198
3.366,-0.117444643836697,-0.0490518453686916
3.368,-0.117540102609099,-0.0481622347480128
3.37,-0.117636561607204,-0.0472855632334807
3.372,-0.117740135904098,-0.0464022586153162
3.374,-0.117836305692788,-0.0455495995683304
3.376,-0.117940170927842,-0.0446946678913154
3.378,-0.118052233639772,-0.0438642951375588
3.38,-0.11816300151718,-0.0430147046503595
3.382,-0.118286608640734,-0.0422090994086676
3.384,-0.118414920499887,-0.0414046527457444
3.386,-0.118549519603414,-0.040593569910935
3.388,-0.118693179476689,-0.0398058148544745
3.39,-0.118842656038798,-0.0390218879373831
3.392,-0.119004741449399,-0.0382465769664763
3.394,-0.119164395865402,-0.0374678048623839
3.396,-0.119333395957427,-0.0366934583677036
3.398,-0.119512337016031,-0.0359153804791993
3.4,-0.119711005567788,-0.0351677490621265
3.402,-0.119917182901073,-0.0343880635166012
3.404,-0.120131717111757,-0.0336403319100835
3.406,-0.120339786428559,-0.0328864794169242
3.408,-0.120576906218336,-0.03212153327105
3.41,-0.120821011081074,-0.0313731215466889
3.412,-0.121077813294713,-0.0306041034727155
3.414,-0.121330298279788,-0.0298468509068991
3.416,-0.12160117591385,-0.0290710783736436
3.418,-0.121877576965692,-0.0282913969164081
3.42,-0.122155980679408,-0.0275183408884765
3.422,-0.122439096518225,-0.0267387552597805
3.424,-0.122738640518167,-0.025939373563063
3.426,-0.123055406471508,-0.0251524393587225
3.428,-0.123370839420079,-0.0243360319336846
3.43,-0.123687002048331,-0.0235297039381962
3.432,-0.124015908246248,-0.0227045320546924
3.434,-0.124345350642069,-0.0218654630058036
3.436,-0.124687053654843,-0.0210177945324868
3.438,-0.125028287086747,-0.0201745023042454
3.44,-0.125363839635315,-0.0193199250445102
3.442,-0.125718770995395,-0.0184311477900755
3.444,-0.126084148681002,-0.0175416830457369
3.446,-0.126441050666934,-0.0166356378099866
3.448,-0.126800344020294,-0.0157151761328652
3.45,-0.127166124811751,-0.0148005867299477
3.452,-0.127511920363694,-0.0138442852094222
3.454,-0.127884064076179,-0.0128822754923464
3.456,-0.128246675775762,-0.0119114364099808
3.458,-0.128605176586086,-0.0109192325893249
3.46,-0.128967010800375,-0.00991451216069163
3.462,-0.12932739021774,-0.00889495790752981
3.464,-0.129688980594315,-0.00785394049628308
3.466,-0.13001965313524,-0.00679972182845996
3.468,-0.130358213738509,-0.00571424187079526
3.47,-0.13071057850862,-0.0046435304295774
3.472,-0.131032251284117,-0.00352623788512708
3.474,-0.13136104551293,-0.00241015779638339
3.476,-0.131668579823626,-0.0012891910956884
3.478,-0.131994373886446,-0.0001338316936532
3.48,-0.132298716415248,0.0010495368457556
3.482,-0.132582158714277,0.0022289466300513
3.484,-0.132852713899791,0.0034365042628373
3.486,-0.133135406936562,0.0046542367383406
3.488,-0.133395936639227,0.0058750116157411
3.49,-0.133636908716493,0.0071270561533574
3.492,-0.133878467068132,0.0084000114826897
3.494,-0.134080221817415,0.0096736029122793
3.496,-0.134283248665665,0.010973841151463
3.498,-0.134456510699501,0.0122829610138831
3.5,-0.134641354580696,0.0136012416609316
3.502,-0.134790043118824,0.0149592304849651
3.504,-0.134914424788503,0.0163082276423738
3.506,-0.135046033289821,0.0176749079965141
3.508,-0.135165140925933,0.0190296958804342
3.51,-0.135212357346048,0.0204253906394722
3.512,-0.135285435763218,0.0218331607736368
3.514,-0.135312440586046,0.0232614678399
3.516,-0.135341697785291,0.0246582144042318
3.518,-0.135331516202324,0.0261156124235331
3.52,-0.135302021046516,0.0275492158873474
3.522,-0.135235462198488,0.0290167372994514
3.524,-0.13518261028527,0.0304657087892149
3.526,-0.135088432978351,0.0319419365528455
3.528,-0.134968015788635,0.0334144859664167
3.53,-0.134819659480279,0.0348982110427345
3.532,-0.134656186656472,0.0363917460170362
3.534,-0.134471378997063,0.0378774864454984
3.536,-0.134243902367135,0.0393857398525535
3.538,-0.134008126204494,0.040890199248104
3.54,-0.13374039624602,0.0424023315244222
3.542,-0.133446773037001,0.0439061224600213
3.544,-0.13312901670131,0.0454236789272127
3.546,-0.13278535286755,0.0469296108775896
3.548,-0.132423438799099,0.0484368126272344
3.55,-0.132008020551067,0.0499466553488438
3.552,-0.131585057776199,0.0514539585105516
3.554,-0.131140585994678,0.0529642317196826
3.556,-0.130661515648874,0.0544758499642487
3.558,-0.130161313328016,0.0559703660442887
3.56,-0.129642954252794,0.0574551673020024
3.562,-0.129071636189887,0.0589634894177256
3.564,-0.128482470366437,0.0604518605747101
3.566,-0.127876868944482,0.0619345213846854
3.568,-0.12723746479527,0.0634050834372709
3.57,-0.126582259663569,0.0648750102892099
3.572,-0.125888892561901,0.0663338863595531
3.574,-0.125176886484728,0.0677806522592179
3.576,-0.124447720512573,0.0692336675689303
3.578,-0.123683780666098,0.070666016435669
3.58,-0.122877514350155,0.0720667050289463
3.582,-0.122076799807755,0.0734889888781691
3.584,-0.121227390954027,0.074864936196838
3.586,-0.120380855510117,0.0762548826894247
3.588,-0.119485523717043,0.0776290723208896
3.59,-0.118578687359549,0.0789652929809944
3.592,-0.117633341819871,0.0803099247294159
3.594,-0.116678511921522,0.0816398277486786
3.596,-0.115698762713021,0.0829394217368876
3.598,-0.114693468081576,0.0842268270023024
3.6,-0.113668588146798,0.0854965130996428
3.602,-0.112632072090316,0.086739763549311
3.604,-0.111551378657454,0.0879804702683087
3.606,-0.110471496565802,0.0891972088130682
3.608,-0.109360254804851,0.0903941888400054
3.61,-0.108227474662548,0.0915662812689266
3.612,-0.107082929669881,0.0927403695532414
3.614,-0.10592672263943,0.0938690932519679
3.616,-0.104749510103914,0.0949685364825591
3.618,-0.103552312757756,0.096056167344539
3.62,-0.102329248076583,0.0971346386999458
3.622,-0.101103614007811,0.0981754617925597
3.624,-0.0998606931081408,0.0992007299659854
3.626,-0.0985899425801196,0.100190988248515
3.628,-0.0973273704826849,0.101175304581809
3.63,-0.0960261890237032,0.102123062233369
3.632,-0.0947320061625401,0.103062585343858
3.634,-0.0934239493266142,0.103948125138207
3.636,-0.0921083774550088,0.104836740248514
3.638,-0.090772057558026,0.105692089236804
3.64,-0.0894148559268427,0.106510159312567
3.642,-0.0880668067821157,0.107323252397104
3.644,-0.0866949126806463,0.108104450082696
3.646,-0.0853285713870528,0.108848340342607
3.648,-0.0839521175744769,0.109568956650864
3.65,-0.0825591958123152,0.11026080045186
3.652,-0.0811655236859752,0.110953510679808
3.654,-0.0797745509293551,0.111598875857948
3.656,-0.0783692074519943,0.112217049417621
3.658,-0.0769676442300553,0.112809505887148
3.66,-0.0755601808896804,0.113395805350507
3.662,-0.0741335195598445,0.113924133035842
3.664,-0.0727224267486043,0.114450980443797
3.666,-0.0713130579360947,0.114951908595651
3.668,-0.0698834000884271,0.115404168771292
3.67,-0.0684778895901147,0.115844726457007
3.672,-0.0670758679253519,0.116266303353068
3.674,-0.0656411711321932,0.116664158401169
3.676,-0.0642283515468499,0.117024662081703
3.678,-0.0628163614400144,0.117365288520789
3.68,-0.0614084147782285,0.117683203913218
3.682,-0.0600122257573316,0.117967822350147
3.684,-0.0586082471479687,0.118243584269662
3.686,-0.0572247987471483,0.118484054608165
3.688,-0.055814909110882,0.118704623173555
3.69,-0.0544631577788625,0.118907281711286
3.692,-0.0530696352542549,0.119074106816221
3.694,-0.051704955153515,0.119232911717341
3.696,-0.0503333360793013,0.119356467743246
3.698,-0.0490083154924635,0.119456199278544
3.7,-0.047649886337104,0.11954105407203
3.702,-0.0463204697517052,0.119600459267723
3.704,-0.0449962618453483,0.119639212351724
3.706,-0.0436645292170189,0.119667435129918
3.708,-0.0423677424439834,0.119682180440536
3.71,-0.0410780584032514,0.1196498551885
3.712,-0.0397969677741272,0.119618088294676
3.714,-0.038511574210879,0.119570685721918
3.716,-0.0372612211604147,0.119493607441981
3.718,-0.0360289607181621,0.119395191439269
3.72,-0.0347939884679527,0.119299879119434
3.722,-0.0335723193020388,0.119166448583807
3.724,-0.032369186024209,0.119034198736697
3.726,-0.0311811744559882,0.118872077086529
3.728,-0.0300154868319552,0.118704556396823
3.73,-0.0288397384831279,0.118504853831062
3.732,-0.0276997391335063,0.118313855535342
3.734,-0.0265708080066625,0.118111063147959
3.736,-0.0254437574224823,0.117888972678801
3.738,-0.0243475873939859,0.117636049444492
3.74,-0.0232672384042767,0.117391405982537
3.742,-0.0221777717635766,0.11714786845509
3.744,-0.021129755446405,0.1168585237647
3.746,-0.0200992810588577,0.116596138740293
3.748,-0.0190841597959832,0.11630796905637
3.75,-0.018057636179317,0.116013560823433
3.752,-0.0170687675544924,0.115708968098967
3.754,-0.0160934881389863,0.115391335489228
3.756,-0.0151357339600003,0.115089936104486
3.758,-0.0141870117824503,0.114749196040918
3.76,-0.0132697021630652,0.114415975236421
3.762,-0.0123523705706571,0.114077459009226
3.764,-0.0114592456234565,0.113737028895489
3.766,-0.0105803286456317,0.113391293928677
3.768,-0.0097155328738991,0.113045808268851
3.77,-0.0088626904882739,0.112700670206864
3.772,-0.0080235867329708,0.112348882966422
3.774,-0.0072131814844069,0.111989120870995
3.776,-0.0063946012973638,0.111643077307683
3.778,-0.0056070233172697,0.111274652047911
3.78,-0.0048455503996254,0.110913301506047
3.782,-0.0040819702675656,0.110563923094885
3.784,-0.0033330609535603,0.110202641874062
3.786,-0.00260657297924622,0.10985575371131
3.788,-0.00188219194541815,0.109500054636673
3.79,-0.00117151259114551,0.109157523942565
3.792,-0.00047451298104067,0.108809320624754
3.794,0.00021445034833767,0.108453012885247
3.796,0.000873209959918709,0.108102460340083
3.798,0.00153941948443312,0.107768046356006
3.8,0.00219504442755323,0.107430754760077
3.802,0.00283242861790921,0.107102832998191
3.804,0.00346532219193597,0.106767500337454
3.806,0.00409178651157551,0.106446637800585
3.808,0.00468911843685254,0.106131329605074
3.81,0.00530061527424977,0.105808859690413
3.812,0.00590063359998295,0.105510752798143
3.814,0.00646799737109017,0.105206112539862
3.816,0.00706821598937176,0.104926679711147
3.818,0.00762407121818423,0.104624422919396
3.82,0.00819270740447112,0.104341292621597
3.822,0.00874549951755717,0.104071050512044
3.824,0.00930270981564094,0.103799994469941
3.826,0.0098484419363711,0.103533444876983
3.828,0.0103969867120591,0.103277489044835
3.83,0.0109469631591134,0.103019443612572
3.832,0.0114859316149344,0.10278382549403
3.834,0.012003923186221,0.102548742085142
3.836,0.0125262318619614,0.102324464941143
3.838,0.0130669486439229,0.102091523593797
3.84,0.0135868505356799,0.101886820598522
3.842,0.0141116637855272,0.101677681051449
3.844,0.0146437470991687,0.101456500695506
3.846,0.015169432913273,0.101274333172342
3.848,0.015694938917873,0.101089707995313
3.85,0.0162209705895855,0.100899324302336
3.852,0.016755338768659,0.10072780420877
3.854,0.0172775104328963,0.100567109262213
3.856,0.0178041928223614,0.100387964760251
3.858,0.0183365214539444,0.100226090229237
3.86,0.018869551149777,0.100083619037943
3.862,0.0194249973984504,0.09992955147526
3.864,0.0199645242120784,0.099787420358821
3.866,0.0205130922832071,0.099652341774613
3.868,0.0210736611445446,0.099516497653543
3.87,0.0216208697115121,0.099366936737022
3.872,0.0221881645166653,0.099243212157482
3.874,0.0227598109329071,0.099103736495894
3.876,0.0233300711895539,0.099004092537267
3.878,0.0239016653922417,0.09887515906713
3.88,0.0244868273656352,0.098755731716995
3.882,0.0250837631020098,0.098645454718816
3.884,0.0256894379816259,0.098529481327439
3.886,0.0262882379609743,0.098415001979021
3.888,0.0269120196038174,0.098273249191479
3.89,0.0275464677160879,0.098171328760916
3.892,0.0281696155676088,0.098046993832054
3.894,0.0287974399376607,0.097949618499631
3.896,0.0294509882183541,0.09781302461988
3.898,0.0300979627098694,0.0977108869669227
3.9,0.0307691256715106,0.097577776817221
3.902,0.0314267921125812,0.0974453716090452
3.904,0.0321042911631329,0.0973017432875138
