"Freq [GHz]","re(S(Antenna1_1_p1,Antenna1_1_p1)) []","im(S(Antenna1_1_p1,Antenna1_1_p1)) []"
3,0.111935900502387,-0.102015049598587
3.002,0.110704464083,-0.104052639994128
3.004,0.109413508661926,-0.106052798888213
3.006,0.108082573635518,-0.108017919161833
3.008,0.106681534870052,-0.109972776266078
3.01,0.105249962283275,-0.111886706022891
3.012,0.103762306905996,-0.113780793267245
3.014,0.102216295523707,-0.11562786110384
3.016,0.100635396278189,-0.117450877963087
3.018,0.0990005275392424,-0.119229913026679
3.02,0.0973350702063935,-0.120977511522505
3.022,0.0956022114606598,-0.122676518929112
3.024,0.0938459473163809,-0.124332460089568
3.026,0.0920568667931175,-0.125960271994792
3.028,0.0902096547175956,-0.127539318816353
3.03,0.0883384273257071,-0.129065573338811
3.032,0.0864294933646373,-0.130548916511385
3.034,0.0844853024850112,-0.13199179351926
3.036,0.0824962700831525,-0.133381306154279
3.038,0.0804951094334368,-0.134720309035175
3.04,0.0784500857007017,-0.136005803837268
3.042,0.076387887274807,-0.137235647521676
3.044,0.07428692714124,-0.138440734344039
3.046,0.0721766910888701,-0.139577420642736
3.048,0.070040906876786,-0.140658830896616
3.05,0.0678898393012692,-0.141686951982254
3.052,0.065708297427858,-0.142654731130705
3.054,0.06351054063655,-0.143585018183839
3.056,0.0612962632281328,-0.144449256260182
3.058,0.0590806339686504,-0.145265130750212
3.06,0.0568334006232762,-0.14602148958134
3.062,0.0546154572373629,-0.146720396512313
3.064,0.0523649085722852,-0.147361345017263
3.066,0.0500951588844716,-0.147960860539194
3.068,0.0478552582500752,-0.148490275303156
3.07,0.0455918035179626,-0.1489775183389
3.072,0.0433328316864154,-0.149407689013082
3.074,0.0410594934447382,-0.149786836911131
3.076,0.0388159832570651,-0.150102740688602
3.078,0.0365604847173133,-0.150376758632142
3.08,0.0343161833202896,-0.150574642340073
3.082,0.0320876976700308,-0.15073604033249
3.084,0.029837519890247,-0.150855695560999
3.086,0.0276417201879667,-0.150906215438127
3.088,0.0254491534724046,-0.150932771806151
3.09,0.0232386085859499,-0.150888583545669
3.092,0.021067869800368,-0.150795380223825
3.094,0.0189283035832107,-0.150657868821958
3.096,0.0168101287544003,-0.150474743613094
3.098,0.0147053591629856,-0.150236373368897
3.1,0.0126083208241464,-0.149957022996316
3.102,0.0105275685263232,-0.14964072926408
3.104,0.0084842670588112,-0.149279431267592
3.106,0.006466636388891,-0.148874602786469
3.108,0.0045053440800803,-0.148426569497813
3.11,0.0025197480199295,-0.147943409071959
3.112,0.0006110193382531,-0.147424264386783
3.114,-0.0012905644044416,-0.146862075941964
3.116,-0.0031494602482842,-0.146274059622707
3.118,-0.0050103284351924,-0.14564363807327
3.12,-0.0067998514598114,-0.144995973210144
3.122,-0.0085626076601512,-0.144298086258856
3.124,-0.0103050698881207,-0.143571363786503
3.126,-0.0120008588397142,-0.142829986882957
3.128,-0.0136696449050773,-0.142045636649773
3.13,-0.0152860827682329,-0.141250995279722
3.132,-0.0168977744266799,-0.140420390072102
3.134,-0.018443224610716,-0.139576655950731
3.136,-0.019937859082479,-0.138711477239617
3.138,-0.0214115406648252,-0.137824336101332
3.14,-0.0228441685499235,-0.136926716677134
3.142,-0.0242503486476558,-0.13600688897961
3.144,-0.0256170601336978,-0.135047625916205
3.146,-0.0269164466774512,-0.134110750982471
3.148,-0.0282090853296342,-0.133155314489098
3.15,-0.0294483352897121,-0.132197636467622
3.152,-0.030647627773063,-0.131235222137115
3.154,-0.031806752947823,-0.13024247826337
3.156,-0.0329604519015792,-0.129241967936885
3.158,-0.0340319385977657,-0.128263864690539
3.16,-0.0350752225518068,-0.127278119898072
3.162,-0.036087189567004,-0.126264702902263
3.164,-0.0370710960902148,-0.12527554579596
3.166,-0.0380048127971991,-0.12430754074377
3.168,-0.0389131086477878,-0.123318393902574
3.17,-0.0397754221107379,-0.122315966275821
3.172,-0.040600893998365,-0.121371403109584
3.174,-0.041407565780902,-0.120400983158355
3.176,-0.0421749126705904,-0.119431663290713
3.178,-0.0429035692255646,-0.118500700414705
3.18,-0.0436051028533719,-0.117567171883031
3.182,-0.0442710973643407,-0.116633311148046
3.184,-0.0449146003246394,-0.115708253296555
3.186,-0.0455245088190488,-0.114843140424373
3.188,-0.0461008730335233,-0.11396763843075
3.19,-0.0466643977874359,-0.113113036792557
3.192,-0.0471991663756117,-0.112237617628312
3.194,-0.0477053053800576,-0.111450678871998
3.196,-0.0481934991914375,-0.110632939626725
3.198,-0.0486452406502961,-0.109860343168217
3.2,-0.0491117050679762,-0.109106999378068
3.202,-0.0495125959823491,-0.108342056546932
3.204,-0.049922703459184,-0.107645385197445
3.206,-0.0503074490453099,-0.106940782777038
3.208,-0.0506827286944999,-0.106266007510586
3.21,-0.0510332125090784,-0.10561397657289
3.212,-0.0513764490452741,-0.104986319651009
3.214,-0.0517111036192763,-0.104401230906442
3.216,-0.0520416173950783,-0.103819887487167
3.218,-0.0523481090219802,-0.103272220079524
3.22,-0.0526627623226896,-0.102755529630005
3.222,-0.0529590050000105,-0.102257689576815
3.224,-0.0532757689061017,-0.101786334691418
3.226,-0.0535662368839182,-0.10134432253985
3.228,-0.0538620997144161,-0.100931698683954
3.23,-0.0541594072572065,-0.100533889752507
3.232,-0.0544464885344913,-0.100167672102175
3.234,-0.0547429046754804,-0.099825082888403
3.236,-0.055039420109483,-0.099496430446159
3.238,-0.0553484252188185,-0.099209164470569
3.24,-0.0556670728473694,-0.098937615267458
3.242,-0.0559879646899061,-0.098688268673793
3.244,-0.0563109900291684,-0.098466468297981
3.246,-0.056652287716613,-0.098256473900128
3.248,-0.0569961727419803,-0.098093952562137
3.25,-0.0573648987524992,-0.097906243147781
3.252,-0.0577573278669234,-0.097776986072633
3.254,-0.0581403787992231,-0.097649615523938
3.256,-0.0585466068420309,-0.097554020170383
3.258,-0.0589824974698637,-0.097457743941805
3.26,-0.059424773322013,-0.097396306318794
3.262,-0.0598901880852309,-0.097330686132253
3.264,-0.0603739077861025,-0.097291617002867
3.266,-0.0608729062431733,-0.097263128000483
3.268,-0.0614073851688425,-0.097234481683469
3.27,-0.0619364168109247,-0.097239813407985
3.272,-0.06252857512403,-0.097250383597156
3.274,-0.0631155323105963,-0.097270264180265
3.276,-0.0637353418117412,-0.097293035981829
3.278,-0.0643818633977944,-0.097322246460619
3.28,-0.0650404766985796,-0.097355920648684
3.282,-0.0657475867834739,-0.097398560654279
3.284,-0.0664693091311423,-0.097436685428745
3.286,-0.0672087814690687,-0.097480968090387
3.288,-0.0679856730428109,-0.097523465265274
3.29,-0.0688049616149762,-0.097573079105023
3.292,-0.0696359864339712,-0.097593544046529
3.294,-0.0704926021524589,-0.097638719149683
3.296,-0.071370063165602,-0.097670702894055
3.298,-0.0723044537090166,-0.097682053840541
3.3,-0.0732322552364852,-0.097701613783577
3.302,-0.074208944737401,-0.0977037546769829
3.304,-0.075189470793971,-0.0977110877024987
3.306,-0.076226029818186,-0.0976915084283946
3.308,-0.077278966918481,-0.0976629144720116
3.31,-0.078358329736183,-0.097619081833678
3.312,-0.079457624631738,-0.0975601555191005
3.314,-0.080592628520602,-0.0974861796688205
3.316,-0.081746819048956,-0.0973746491407823
3.318,-0.082928213019156,-0.0972645620028324
3.32,-0.084148537424918,-0.0971294087502342
3.322,-0.085369260886244,-0.0969787831951902
3.324,-0.086625169834161,-0.0967819053823709
3.326,-0.087903505625144,-0.0965764403964426
3.328,-0.089199620275334,-0.0963541307785907
3.33,-0.090510669294514,-0.0960744202191052
3.332,-0.091860041259803,-0.0958041277158989
3.334,-0.093221999449151,-0.0954766364731291
3.336,-0.094597555624604,-0.0951295208297856
3.338,-0.095997058395247,-0.0947512509482834
3.34,-0.097403147710002,-0.0943306110331442
3.342,-0.098832424740126,-0.0938908685496365
3.344,-0.100277831151499,-0.0934128079624825
3.346,-0.101726951236659,-0.0929145957745703
3.348,-0.103196319696631,-0.0923451175257129
3.35,-0.104677654662474,-0.091766947401455
3.352,-0.106162416066631,-0.0911643816918617
3.354,-0.107640895914032,-0.0904791040704176
3.356,-0.109157616762974,-0.0897841746928962
3.358,-0.110665263395741,-0.0890366930463293
3.36,-0.112174319329048,-0.0882690675879887
3.362,-0.113699566764194,-0.0874470493044171
3.364,-0.115212822804034,-0.0865898322505198
3.366,-0.116731030022697,-0.0856976789786916
3.368,-0.118249901724099,-0.0847661532380128
3.37,-0.119755773702204,-0.0837684261734807
3.372,-0.121274961677098,-0.0827670827753162
3.374,-0.122769460106788,-0.0816792139083304
3.376,-0.124279660612842,-0.0805855445913154
3.378,-0.125769089872772,-0.0794358143865588
3.38,-0.12723800740118,-0.0782296432793595
3.382,-0.128703652458534,-0.0770076263376676
3.384,-0.130165872724987,-0.0757304907417444
3.386,-0.131614566381414,-0.074429044523935
3.388,-0.133034644646689,-0.0730553773284745
3.39,-0.134455212021798,-0.0716629404413831
3.392,-0.135835653460399,-0.0702060235804763
3.394,-0.137216294804402,-0.0687314265653839
3.396,-0.138565667663427,-0.0672093083977036
3.398,-0.139893446118031,-0.0656612853911993
3.4,-0.141196399214788,-0.0640516048221265
3.402,-0.142464575176073,-0.0624024441796012
3.404,-0.143727070701757,-0.0607224481160835
3.406,-0.144933361148559,-0.0590135681879242
3.408,-0.146140662478336,-0.05726693512605
3.41,-0.147293072111074,-0.0554711855766889
3.412,-0.148431243964713,-0.0536421918722155
3.414,-0.149521235909788,-0.0517962507020991
3.416,-0.15058332088385,-0.0498998999739436
3.418,-0.151608998995692,-0.0479730812446081
3.42,-0.152577727599408,-0.0460292983314765
3.422,-0.153537439368225,-0.0440372226737805
3.424,-0.154449166438167,-0.042032177284063
3.426,-0.155317924071508,-0.0399861571397225
3.428,-0.156149547450079,-0.0379142253046846
3.43,-0.156926651638331,-0.0358214117311962
3.432,-0.157669231376248,-0.0337077466616924
3.434,-0.158358991112069,-0.0315610802608036
3.436,-0.159010615954843,-0.0294054034874868
3.438,-0.159626167606747,-0.0272158763872454
3.44,-0.160171686725315,-0.0250273918445102
3.442,-0.160699560235395,-0.0228003119750755
3.444,-0.161143646501002,-0.0205649935187369
3.446,-0.161560044386934,-0.0183153837319866
3.448,-0.161932032100294,-0.0160495179828652
3.45,-0.162243359561751,-0.0137840910339477
3.452,-0.162515891706694,-0.0114829793404222
3.454,-0.162719946496179,-0.00920827876434643
3.456,-0.162896645387762,-0.00690387507098083
3.458,-0.162999276016086,-0.00460435950432494
3.46,-0.163065749483375,-0.00229711895969163
3.462,-0.16306664983974,1.73831304701899E-05
3.464,-0.163036058653315,0.00232075445731692
3.466,-0.16293710678024,0.00462807192864004
3.468,-0.162797896964509,0.00693663464220474
3.47,-0.16260327215762,0.0092258175664226
3.472,-0.162350622938117,0.0115379652768729
3.474,-0.16205372783093,0.0138249596536166
3.476,-0.161710624666626,0.0160805008833116
3.478,-0.161296856160446,0.0183509257993468
3.48,-0.160861955941248,0.0206062194317556
3.482,-0.160357901070277,0.0228584555640513
3.484,-0.159812983919791,0.0250698912458373
3.486,-0.159211955641562,0.0272909836983406
3.488,-0.158581075455227,0.0294625503557411
3.49,-0.157880619336493,0.0316351499733574
3.492,-0.157141838395232,0.0337807694326897
3.494,-0.156359741053395,0.0359108593822793
3.496,-0.155539063352865,0.038000399441463
3.498,-0.154664763493101,0.0400866687438831
3.5,-0.153761132218696,0.0421194147409316
3.502,-0.152797202636824,0.0441392649349651
3.504,-0.151797617394503,0.0461261471123738
3.506,-0.150762668995821,0.0480782619065141
3.508,-0.149683019518933,0.0500170850004342
3.51,-0.148569118833048,0.0519053170394722
3.512,-0.147429832425218,0.0537681042436368
3.514,-0.146223706127046,0.0555883466099
3.516,-0.145018408541291,0.0573779970342318
3.518,-0.143771764028324,0.0591352929335331
3.52,-0.142487482562516,0.0608405492173474
3.522,-0.141151429668488,0.0625248655094514
3.524,-0.13981264040727,0.0641577348792149
3.526,-0.138455511542351,0.0657506059428455
3.528,-0.137061435203635,0.0673071600544167
3.53,-0.135619944606279,0.0688054765867345
3.532,-0.134195684687472,0.0702935769920362
3.534,-0.132716021283063,0.0717184060524984
3.536,-0.131227662653135,0.0731092010705535
3.538,-0.129740179361494,0.074452939359104
3.54,-0.12819514014102,0.0757324039814222
3.542,-0.126661866412001,0.0769944957910213
3.544,-0.12511684489631,0.0782231334812127
3.546,-0.12354940224435,0.0793672826945896
3.548,-0.121987242860299,0.0805018061522344
3.55,-0.120397017729067,0.0815834806528438
3.552,-0.118778049914199,0.0826039910515516
3.554,-0.117183471418678,0.0835822565186826
3.556,-0.115584282624874,0.0845230844282487
3.558,-0.113983400427016,0.0854198569062887
3.56,-0.112369908376794,0.0862936749590024
3.562,-0.110747699229887,0.0870864210207256
3.564,-0.109129083106437,0.0878650211517101
3.566,-0.107514953776482,0.0885791702156854
3.568,-0.10590574135327,0.0892568112772709
3.57,-0.104309170433569,0.0899013266492099
3.572,-0.102715661971901,0.0904899387693531
3.574,-0.101123709554728,0.0910552448275179
3.576,-0.099544380842573,0.0915545575121303
3.578,-0.097973197816098,0.092022408026669
3.58,-0.096412976550155,0.0924661262459463
3.582,-0.094864224117755,0.0928577497221691
3.584,-0.093334217304027,0.093218097120838
3.586,-0.091816675980117,0.0935293671464247
3.588,-0.090308810837043,0.0938157317978896
3.59,-0.088839048419549,0.0940566184339944
3.592,-0.087367406059871,0.0942492307084159
3.594,-0.085930722161522,0.0944344486546786
3.596,-0.084497659353021,0.0945666670208876
3.598,-0.083086787461576,0.0946902288843024
3.6,-0.081707748096798,0.0947766597356428
3.602,-0.080352901694316,0.094819509543311
3.604,-0.079020674109454,0.0948443108673087
3.606,-0.077714288880802,0.0948390515430682
3.608,-0.076412409753851,0.0948155704550054
3.61,-0.0751539679045481,0.0947645546099266
3.612,-0.0739328880428813,0.0946786588842414
3.614,-0.07272735120643,0.0945690252399679
3.616,-0.0715471491239138,0.0944543975705591
3.618,-0.0703894208587556,0.094308355440539
3.62,-0.0692833381325832,0.0941490227339458
3.622,-0.0681787166488115,0.0939726096365597
3.624,-0.0671385208861408,0.0937524894159854
3.626,-0.0661070054021196,0.0935351823065147
3.628,-0.0651099755466849,0.0933131684748085
3.63,-0.0641421246957032,0.0930756270866693
3.632,-0.0631885382445401,0.0928364070045583
3.634,-0.0623040135516142,0.0925618466082071
3.636,-0.0614365959320088,0.0922895259605139
3.638,-0.060587771171026,0.0920180482308041
3.64,-0.0597628704778427,0.0917259891855675
3.642,-0.0589950278791157,0.0914384164861043
3.644,-0.0582290765526463,0.0911403283686958
3.646,-0.0575157630310528,0.0908438023836065
3.648,-0.0568113847754769,0.0905540707258645
3.65,-0.0561619200293152,0.0902591719478599
3.652,-0.0555315701519752,0.089955526559808
3.654,-0.0549369444126551,0.089669669037948
3.656,-0.0543594068841943,0.089386585817621
3.658,-0.0538140509669053,0.089097882057148
3.66,-0.0533142418424804,0.088822374300507
3.662,-0.0528219645479445,0.088553454575842
3.664,-0.0523666745296043,0.088291880223797
3.666,-0.0519288384270947,0.088044244055651
3.668,-0.0515385979774271,0.087804142991292
3.67,-0.0511723241491147,0.087576773357007
3.672,-0.0508181030263519,0.087366112013068
3.674,-0.0504778557331932,0.087175420061169
3.676,-0.0501789254478499,0.086989813371703
3.678,-0.0498996322570144,0.086817388460789
3.68,-0.0496314604102285,0.086671892747218
3.682,-0.0493917314043316,0.086538683449147
3.684,-0.0491699624979687,0.086425310660662
3.686,-0.0489618407461483,0.086329242908165
3.688,-0.048780405144882,0.086260755206555
3.69,-0.0486071336658625,0.086204900645286
3.692,-0.0484680803912549,0.086191188124221
3.694,-0.048327590778515,0.086173200069341
3.696,-0.0481916958493013,0.086195872598246
3.698,-0.0480747311544635,0.086218603705544
3.7,-0.047979128180104,0.08630102738803
3.702,-0.0478902003697052,0.086383115119723
3.704,-0.0478031021623483,0.086509451106724
3.706,-0.0477320139720189,0.086631871821918
3.708,-0.0476530593069834,0.086811420409536
3.71,-0.0475958664872514,0.0869939030395
3.712,-0.0475226580431272,0.087224045111676
3.714,-0.047464708840379,0.087480901009918
3.716,-0.0474111006406147,0.087740776565981
3.718,-0.0473454240501621,0.088036223823269
3.72,-0.0472829390509527,0.088369460540434
3.722,-0.0472168305010388,0.088721871594807
3.724,-0.047144648495209,0.089115845085697
3.726,-0.0470731374219882,0.089526603077529
3.728,-0.0469861445919552,0.089947371412823
3.73,-0.0468998122971279,0.090402004815062
3.732,-0.0467972421615063,0.090887418001342
3.734,-0.0466862535556625,0.091414478824959
3.736,-0.0465559200924823,0.091952093757801
3.738,-0.0464298954439859,0.092520059482592
3.74,-0.0462734114342767,0.093105996385037
3.742,-0.0461068088735766,0.09371790199579
3.744,-0.045910595276405,0.0943617058823
3.746,-0.0457260469988577,0.095000369970493
3.748,-0.0454917888259832,0.09570692526637
3.75,-0.045243682219317,0.096396540837433
3.752,-0.0449835938644924,0.097116692243967
3.754,-0.0446966213789863,0.097879130660228
3.756,-0.0443816902500003,0.098629990355486
3.758,-0.0440468783924503,0.099399911844918
3.76,-0.0436882859170652,0.100190368060421
3.762,-0.0432965111486571,0.101020116841226
3.764,-0.0428763238044565,0.101829507894489
3.766,-0.0424337264926317,0.102681329955677
3.768,-0.0419517549508991,0.103526103178851
3.77,-0.0414605212652739,0.104388165696864
3.772,-0.0409232953689708,0.105271995561422
3.774,-0.0403555697814069,0.106142660042995
3.776,-0.0397572684473638,0.107037439920683
3.778,-0.0391373277762697,0.107932132591911
3.78,-0.0384665949116254,0.108858314985047
3.782,-0.0377692692205656,0.109759821668885
3.784,-0.0370449509435603,0.110668371700062
3.786,-0.0362893727142462,0.11157993989031
3.788,-0.0354901656294181,0.112478205974673
3.79,-0.0346548931091455,0.113406395491565
3.792,-0.0337793448570407,0.114309882930754
3.794,-0.0328772407706623,0.115199037031247
3.796,-0.0319532235720813,0.116101450314083
3.798,-0.0309606536085669,0.117000869667966
3.8,-0.0299558766234468,0.117878147057677
3.802,-0.0289066095470908,0.118764599694191
3.804,-0.027828123678064,0.119624473465454
3.806,-0.0267072860944245,0.120472510268585
3.808,-0.0255656694551475,0.121312486521074
3.81,-0.0243798340917502,0.122125150314413
3.812,-0.023162380710017,0.122927385352143
3.814,-0.0219025715819098,0.123717956373862
3.816,-0.0206215114776282,0.124471431351147
3.818,-0.0192985482578158,0.125226820589396
3.82,-0.0179436273459289,0.125949234151597
3.822,-0.0165715065707428,0.126647907262044
3.824,-0.0151517245090591,0.127313523279941
3.826,-0.0137208146785289,0.127954782006983
3.828,-0.0122340656006409,0.128568243094835
3.83,-0.0107429745338866,0.129159205892572
3.832,-0.0092161649370656,0.12972606649403
3.834,-0.007655221582779,0.130255381165142
3.836,-0.0060692085310386,0.130750002481143
3.838,-0.0044679821830771,0.131205961303797
3.84,-0.0028365589153201,0.131643543968522
3.842,-0.0011851081034728,0.132035775401449
3.844,0.000495422483168702,0.132406988856506
3.846,0.002177733077273,0.132734393672342
3.848,0.003900281968873,0.133004876299313
3.85,0.0056333207305855,0.133249336326336
3.852,0.007378856722659,0.13346371444777
3.854,0.0091352672778963,0.133632403430213
3.856,0.0109217287763614,0.133745125399251
3.858,0.0127167560299444,0.133834805836237
3.86,0.014536842166777,0.133874692254943
3.862,0.0163331933254504,0.13387789886826
3.864,0.0181670198120784,0.133832788154821
3.866,0.0199790577792071,0.133745195725613
3.868,0.0218237846855446,0.133604421960543
3.87,0.0236601581435121,0.133432032745022
3.872,0.0254991041186653,0.133212094056482
3.874,0.0273509017839071,0.132921640280894
3.876,0.0291955774765539,0.132633826579267
3.878,0.0310354998502417,0.13227685276413
3.88,0.0328680804624352,0.131854982185995
3.882,0.0347005128987098,0.131432879319816
3.884,0.0365338480776259,0.130904198001439
3.886,0.0383444418849743,0.130389080844021
3.888,0.0401725599948174,0.129802922974479
3.89,0.0419591184990879,0.129174557089916
3.892,0.0437403533556088,0.128515742194054
3.894,0.0455347143916607,0.127788244463631
3.896,0.0472749211763541,0.12703179731488
3.898,0.0490245799118694,0.126233183129923
3.9,0.0507523099355106,0.125389511193221
3.902,0.0524563204625812,0.124489772348045
3.904,0.0541347959031329,0.123557856762914
