"Freq [GHz]","re(S(Rx_p1,Tx_p1)) []","im(S(Rx_p1,Tx_p1)) []"
1,-0.01903623773,0.03415001978
1.01,-0.004506284287,0.03901444693
1.02,0.0108639563,0.03789424813
1.03,0.0246761611,0.0308907797
1.04,0.03474385932,0.0190427073
1.05,0.03944964038,0.004174611468
1.06,0.03801596251,-0.01138677046
1.07,0.03064220429,-0.02518411056
1.08,0.01848227743,-0.03502818236
1.09,0.003463864011,-0.03935701483
1.1,-0.01202245794,-0.03749436826
1.11,-0.02551311964,-0.02976273183
1.12,-0.03487515461,-0.01743052313
1.13,-0.03865514385,-0.002501568708
1.14,-0.03631416719,0.01261776198
1.15,-0.0283089253,0.02551711647
1.16,-0.01600582114,0.0341783695
1.17,-0.00144378353,0.0373020449
1.18,0.01301223441,0.03450903386
1.19,0.02506655509,0.02638486917
1.2,0.03286863371,0.01436160088
1.21,0.03530571193,0.0004606510387
1.22,0.03216423602,-0.0130562276
1.23,0.02413597486,-0.0240658398
1.24,0.01267248213,-0.03092668034
1.25,-0.0002821154873,-0.03272892803
1.26,-0.01262981341,-0.02941211812
1.27,-0.02246814014,-0.02173588764
1.28,-0.02839018658,-0.01111545038
1.29,-0.02968653808,0.0006434539058
1.3,-0.02641997063,0.01165957362
1.31,-0.01936758935,0.02028458701
1.32,-0.009848564338,0.02535292198
1.33,0.0005255457638,0.02633446812
1.34,0.01012990259,0.02337131259
1.35,0.01758534784,0.0172012992
1.36,0.02195508686,0.008990777842
1.37,0.02285144138,0.0001128930504
1.38,0.02044327023,-0.008086019185
1.39,0.01537296273,-0.01449142396
1.4,0.008606824539,-0.01836570392
1.41,0.001251699491,-0.01941612724
1.42,-0.005627324818,-0.01778401185
1.43,-0.01115793643,-0.01396751518
1.44,-0.01475982597,-0.008700486373
1.45,-0.01618381695,-0.002814286728
1.46,-0.01549462622,0.002891769071
1.47,-0.01301045709,0.007751664599
1.48,-0.009217986679,0.01129475076
1.49,-0.004682053409,0.01326717617
1.5,3.396461123E-05,0.01361916915
1.51,0.004427090989,0.01246965149
1.52,0.008089919883,0.01006107415
1.53,0.01072495728,0.006715482223
1.54,0.01214494211,0.00279866593
1.55,0.01226702915,-0.001305719785
1.56,0.01110716623,-0.005214512823
1.57,0.008777647243,-0.008560873942
1.58,0.005486887686,-0.01101281089
1.59,0.001537219741,-0.01229765317
1.6,-0.002685061675,-0.01223230249
1.61,-0.006732567478,-0.01075528294
1.62,-0.01013511407,-0.007953612375
1.63,-0.01245195128,-0.004076253432
1.64,-0.01333206769,0.0004731359233
1.65,-0.01257318577,0.005168326202
1.66,-0.01016829711,0.009417050565
1.67,-0.006329159414,0.01263630969
1.68,-0.001479119688,0.01433623453
1.69,0.003787548711,0.01419935372
1.7,0.008776799589,0.01214150342
1.71,0.01278778082,0.008342569111
1.72,0.01521447346,0.003239483737
1.73,0.01564047542,-0.00252028574
1.74,0.01391156676,-0.008160148167
1.75,0.01017342727,-0.01288020837
1.76,0.004866758164,-0.01597263758
1.77,-0.001321676773,-0.01692957813
1.78,-0.007546898504,-0.0155269852
1.79,-0.01292117925,-0.01187075958
1.8,-0.01664128741,-0.006396597122
1.81,-0.01810928657,0.000178533839
1.82,-0.0170288461,0.006948371012
1.83,-0.01346180587,0.01294132025
1.84,-0.007834822619,0.01725974337
1.85,-0.0008927015445,0.01921487139
1.86,0.006397372384,0.0184372692
1.87,0.0129790573,0.01494527984
1.88,0.01785969645,0.009159087716
1.89,0.02026097819,0.0018554086
1.9,0.01974462446,-0.005933571711
1.91,0.01629270068,-0.01306471304
1.92,0.01032781852,-0.01845217449
1.93,0.002666880094,-0.02123478904
1.94,-0.005588001504,-0.02091655358
1.95,-0.01320764347,-0.01745688012
1.96,-0.01902060829,-0.01129385165
1.97,-0.02209672922,-0.003293502828
1.98,-0.02190003284,0.00537028543
1.99,-0.01838516537,0.01338914902
2,-0.01201937638,0.01952119462
2.01,-0.003723523863,0.02278811312
2.02,0.005261320006,0.02263626384
2.03,0.01356244421,0.01903421264
2.04,0.01989010951,0.0124887792
2.05,0.02324370414,0.003974681482
2.06,0.02307533322,-0.005212784428
2.07,0.01938298822,-0.01365940124
2.08,0.01271667396,-0.0200557371
2.09,0.004095233593,-0.02340629751
2.1,-0.005153359276,-0.02318943689
2.11,-0.0136024265,-0.01944128148
2.12,-0.01995319194,-0.01274955341
2.13,-0.02324021868,-0.004158333579
2.14,-0.02298195197,0.005000209541
2.15,-0.01925206582,0.01331891761
2.16,-0.01266083937,0.01953812426
2.17,-0.004250998899,0.02274101778
2.18,0.004673351061,0.02249058928
2.19,0.01275538772,0.01888730823
2.2,0.0187970841,0.01254037471
2.21,0.02193948689,0.004459879912
2.22,0.02178404763,-0.004110084687
2.23,0.0184380658,-0.01188852753
2.24,0.01248038887,-0.01775246372
2.25,0.004856545763,-0.02089924015
2.26,-0.003276763847,-0.02095280122
2.27,-0.01073111677,-0.01800072309
2.28,-0.01646107566,-0.01256055322
2.29,-0.01970827879,-0.005485025139
2.3,-0.02009569374,0.002175699871
2.31,-0.01766188335,0.009331659537
2.32,-0.01283486478,0.01500657825
2.33,-0.00635390253,0.01846603254
2.34,0.0008458983255,0.01930474594
2.35,0.007767745286,0.01748464947
2.36,0.01348705635,0.01332276056
2.37,0.01726817449,0.007434455483
2.38,0.01865090521,0.000642581313
2.39,0.01749879321,-0.006134257947
2.4,0.01400612227,-0.01199994073
2.41,0.008665247301,-0.01619192481
2.42,0.002199705534,-0.01817332555
2.43,-0.004528499684,-0.01769664107
2.44,-0.01062696258,-0.01483278905
2.45,-0.01528451426,-0.00996242332
2.46,-0.01787416754,-0.003730040312
2.47,-0.01803549236,0.003034899764
2.48,-0.01572601005,0.00942188714
2.49,-0.01123388835,0.01455694913
2.5,-0.005148180954,0.0177199251
2.51,0.001712115873,0.01844618254
2.52,0.008403310287,0.01659814058
2.53,0.01398426749,0.01239476854
2.54,0.01764906963,0.006392178142
2.55,0.01884622338,-0.0005849423869
2.56,0.01736603287,-0.00755388168
2.57,0.01338125592,-0.01351225018
2.58,0.007432427531,-0.01758457193
2.59,0.0003574478133,-0.01915502589
2.6,-0.006826084196,-0.01796518945
2.61,-0.01306927579,-0.01416019793
2.62,-0.01744886923,-0.008274344986
2.63,-0.01930825525,-0.001156639002
2.64,-0.01835995047,0.006153387129
2.65,-0.01473261554,0.01258095412
2.66,-0.008954387621,0.0171783193
2.67,-0.001874542054,0.01926851213
2.68,0.005464480188,0.018547773
2.69,0.01198458399,0.01513056835
2.7,0.0167342729,0.009530353475
2.71,0.01903028659,0.002579613805
2.72,0.01855688911,-0.004697648075
2.73,0.01540817969,-0.01124051755
2.74,0.01006809569,-0.01610861348
2.75,0.003332642666,-0.01861835061
2.76,-0.003812332594,-0.01843804066
2.77,-0.01033819638,-0.0156288749
2.78,-0.01532281958,-0.01062753468
2.79,-0.01808017671,-0.004175075986
2.8,-0.01825225913,0.002795577492
2.81,-0.01585167536,0.00929581567
2.82,-0.01125095409,0.01442103343
2.83,-0.005122250602,0.01747426596
2.84,0.001662224381,0.01805748547
2.85,0.008154001911,0.01611953295
2.86,0.01345893341,0.01195598592
2.87,0.01685712629,0.00616273553
2.88,0.01789700316,-0.000449153342
2.89,0.01645214265,-0.0069652169
2.9,0.01273456074,-0.01249109231
2.91,0.007263578503,-0.0162718537
2.92,0.0007948027654,-0.01779214358
2.93,-0.005781506752,-0.01684456633
2.94,-0.01155974547,-0.01355769381
2.95,-0.01574078716,-0.008379909549
2.96,-0.01774064495,-0.002020717917
2.97,-0.01727161146,0.004643484493
2.98,-0.0143846405,0.01068744229
2.99,-0.009466418213,0.0152636584
3,-0.003190359488,0.017720676
3.01,0.003573015042,0.01769657684
3.02,0.009875035467,0.01517400867
3.03,0.01482131032,0.0104879038
3.04,0.01769921308,0.004283443811
3.05,0.01808202515,-0.002571084045
3.06,0.01589407762,-0.009105139868
3.07,0.01142645672,-0.01438374782
3.08,0.005299857166,-0.01764250389
3.09,-0.001621037072,-0.01839988516
3.1,-0.008349898368,-0.01652990166
3.11,-0.01392032793,-0.01228374906
3.12,-0.01752597628,-0.006256603628
3.13,-0.01863848507,0.0006960992965
3.14,-0.01708566108,0.007580936487
3.15,-0.01307814554,0.01340950574
3.16,-0.007180497353,0.01734121889
3.17,-0.0002308670875,0.0188049656
3.18,0.006778980921,0.01758192189
3.19,0.0128457889,0.01383757991
3.2,0.01709846926,0.008098565632
3.21,0.018922685,0.001177832509
3.22,0.0180486764,-0.005940822589
3.23,0.01459008541,-0.01224232406
3.24,0.009028566441,-0.01682417121
3.25,0.002146588363,-0.01902441298
3.26,-0.005082033515,-0.01851597395
3.27,-0.0116286245,-0.01535432114
3.28,-0.01655432167,-0.009971884284
3.29,-0.01914304199,-0.00311985944
3.3,-0.01900442024,0.004234893103
3.31,-0.01613233012,0.01104408006
3.32,-0.0109104259,0.01632525181
3.33,-0.004063141614,0.0193020294
3.34,0.003442082009,0.01951775332
3.35,0.01052880756,0.01690616845
3.36,0.01616398935,0.01180817669
3.37,0.01950775055,0.004930792797
3.38,0.02003915518,-0.002747612131
3.39,0.0176391293,-0.01011391978
3.4,0.01261703583,-0.01608035367
3.41,0.005675002099,-0.01974544265
3.42,-0.002186999242,-0.0205320881
3.43,-0.009813335281,-0.01828127354
3.44,-0.01606248534,-0.01328565262
3.45,-0.01997959704,-0.00625570523
3.46,-0.02094546588,0.001778769825
3.47,-0.01877809119,0.009618853054
3.48,-0.01376940994,0.01607673882
3.49,-0.006649387375,0.02015871163
3.5,0.001519048321,0.0212220897
3.51,0.009499493527,0.01908052157
3.52,0.01607195503,0.01403953149
3.53,0.02022344353,0.006855005711
3.54,0.02130866249,-0.001380300485
3.55,0.01915434692,-0.009405230704
3.56,0.01408952484,-0.0159872677
3.57,0.006895881475,-0.02011656537
3.58,-0.001314467606,-0.02116543856
3.59,-0.009274386683,-0.018987154
3.6,-0.0157619414,-0.0139377363
3.61,-0.01979282842,-0.006817215361
3.62,-0.02077368812,0.001259883348
3.63,-0.01859156699,0.00904328471
3.64,-0.0136255595,0.01534539453
3.65,-0.006679711783,0.01922690095
3.66,0.001150671355,0.02013961025
3.67,0.008656368979,0.01800418252
3.68,0.01470556917,0.01321165904
3.69,0.01841794885,0.006550508451
3.7,0.0192940152,-0.000926891357
3.71,0.01728044323,-0.008074951539
3.72,0.01276329746,-0.01383415271
3.73,0.0064930795,-0.01739007269
3.74,-0.0005435980048,-0.01828788846
3.75,-0.007283034177,-0.01648642797
3.76,-0.01274776228,-0.01234636541
3.77,-0.01618859038,-0.006557938319
3.78,-0.0171847027,-2.279073074E-05
3.79,-0.01568908609,0.006289218011
3.8,-0.01201592563,0.01148496082
3.81,-0.006775787749,0.01487292012
3.82,-0.0007718954216,0.01605092975
3.83,0.005124453008,0.01494670518
3.84,0.01009974798,0.01180895606
3.85,0.01350743653,0.007154283454
3.86,0.01494651438,0.001680907202
3.87,0.01430132771,-0.003836160445
3.88,0.01174053638,-0.008652817908
3.89,0.007678876963,-0.01215202979
3.9,0.002709824607,-0.01391704855
3.91,-0.002479938222,-0.01377443178
3.92,-0.007202276486,-0.01180404499
3.93,-0.01085412151,-0.008317417489
3.94,-0.01298902391,-0.003809268151
3.95,-0.01336653647,0.001110499829
3.96,-0.01197514577,0.005795579799
3.97,-0.009027468075,0.009643569858
3.98,-0.004929267412,0.01216890906
3.99,-0.0002263900375,0.01306060668
4,0.004464172496,0.01221860199
4.01,0.008531288336,0.0097647795
4.02,0.01144601661,0.006027262691
4.03,0.01282837479,0.001499466406
4.04,0.01249641177,-0.003221720944
4.05,0.01049117498,-0.007511628115
4.06,0.007073774311,-0.01079835541
4.07,0.002694044292,-0.01263812656
4.08,-0.002066069254,-0.01277553439
4.09,-0.006567794013,-0.011180276
4.1,-0.01020006914,-0.008054727629
4.11,-0.01246224132,-0.003810427843
4.12,-0.01303362201,0.0009842604907
4.13,-0.01182000998,0.005678950099
4.14,-0.008970167046,0.009628776201
4.15,-0.004859237391,0.01228289146
4.16,-4.066637998E-05,0.013261657
4.17,0.004827358112,0.01241157268
4.18,0.009071212034,0.00982988271
4.19,0.01209476728,0.005854889322
4.2,0.01346311291,0.001022729468
4.21,0.01296530708,-0.004003950715
4.22,0.01064713079,-0.008526011802
4.23,0.006808821005,-0.01190439578
4.24,0.001967499416,-0.01365004197
4.25,-0.003211154633,-0.01349462597
4.26,-0.008003156373,-0.01143200405
4.27,-0.01172639964,-0.007724043995
4.28,-0.01383716323,-0.002869240786
4.29,-0.01400949774,0.002462445206
4.3,-0.01218602324,0.007520374663
4.31,-0.008592243591,0.01157771833
4.32,-0.003711255859,0.01403543206
4.33,0.001778873671,0.01451105038
4.34,0.007097471199,0.01289917872
4.35,0.01147123111,0.009394016425
4.36,0.01424662744,0.004469239806
4.37,0.01498853115,-0.001183483195
4.38,0.01355004681,-0.006749976814
4.39,0.01010210444,-0.01141029786
4.4,0.005116784673,-0.01446020061
4.41,-0.000694967549,-0.01541927801
4.42,-0.00648361482,-0.01410888833
4.43,-0.01138546445,-0.01068681703
4.44,-0.01465307063,-0.005631724327
4.45,-0.01577165874,0.0003220389688
4.46,-0.01454297672,0.006290831048
4.47,-0.01112238204,0.01137404737
4.48,-0.006001882282,0.0147923724
4.49,5.975285587E-05,0.01601028295
4.5,0.00615012996,0.01482294744
4.51,0.01134265255,0.01139281853
4.52,0.01484052149,0.006228977588
4.53,0.01610233235,0.0001114415194
4.54,0.01492879588,-0.006028322559
4.55,0.01149609187,-0.01125205456
4.56,0.006329893609,-0.0147614982
4.57,0.000223767305,-0.01602367411
4.58,-0.005885176064,-0.01485429192
4.59,-0.01106339894,-0.01144573095
4.6,-0.01452705663,-0.006335100782
4.61,-0.01576353567,-0.0003177472442
4.62,-0.01460896739,0.005679491684
4.63,-0.01126964622,0.01074447782
4.64,-0.00628460892,0.01412165067
4.65,-0.0004362983467,0.01532687559
4.66,0.005375409169,0.01421736263
4.67,0.01027488758,0.01100645403
4.68,0.01354519138,0.006222285418
4.69,0.01473408434,0.0006184432237
4.7,0.01371576596,-0.0049477671
4.71,0.01070007023,-0.009649165756
4.72,0.006189632504,-0.01281321855
4.73,0.0008937850404,-0.01401817586
4.74,-0.004385601472,-0.01314713287
4.75,-0.008877439552,-0.01039360652
4.76,-0.01195457369,-0.006220142617
4.77,-0.01322007885,-0.001278675001
4.78,-0.01255515555,0.003693266676
4.79,-0.01012365687,0.007983600012
4.8,-0.006335168787,0.01100710346
4.81,-0.001774634273,0.01238293181
4.82,0.002889120262,0.01197853439
4.83,0.007001449933,0.009915915247
4.84,0.01001222892,0.00654191511
4.85,0.0115463946,0.002369160216
4.86,0.01144639297,-0.002002138178
4.87,0.009782769441,-0.005969589997
4.88,0.0068337464,-0.009009350785
4.89,0.003038631282,-0.01074191438
4.9,-0.001067152607,-0.0109755178
4.91,-0.004925967599,-0.0097231368
4.92,-0.00803102102,-0.007192611436
4.93,-0.009989659392,-0.003752691681
4.94,-0.01056975191,0.0001195888091
4.95,-0.009724414603,0.003903007842
4.96,-0.007593034287,0.007099622517
4.97,-0.004479289547,0.009297509575
4.98,-0.0008093942798,0.01022149087
4.99,0.002924092034,0.009766072399
5,0.006226001341,0.008006899042
5.01,0.0086621255,0.00518948168
5.02,0.009914880469,0.001696574652
5.03,0.009824164135,-0.002001879725
5.04,0.008408161681,-0.00541014282
5.05,0.005861204317,-0.008071764759
5.06,0.002528606163,-0.009630046516
5.07,-0.001138631171,-0.009875916848
5.08,-0.00464362796,-0.00877667692
5.09,-0.007510228854,-0.006481424736
5.1,-0.009347538538,-0.003302007406
5.11,-0.009903575753,0.0003283314181
5.12,-0.009100517064,0.003913305063
5.13,-0.00704639821,0.006961148637
5.14,-0.004021337812,0.009052162498
5.15,-0.0004398986271,0.009896849425
5.16,0.003205411873,0.00937645477
5.17,0.006411781746,0.007560109549
5.18,0.008735517093,0.004696026813
5.19,0.009853578786,0.001177840991
5.2,0.009608634532,-0.002509322517
5.21,0.008031318228,-0.005855611348
5.22,0.005336564951,-0.008396813521
5.23,0.001894492064,-0.009778604035
5.24,-0.001820186949,-0.009805807269
5.25,-0.005293286415,-0.008469888236
5.26,-0.008041905824,-0.005950874947
5.27,-0.009681161558,-0.002593397295
5.28,-0.009977781821,0.00113996733
5.29,-0.008883214432,0.004731787157
5.3,-0.006541628781,0.007680823858
5.31,-0.003271536881,0.009571437921
5.32,0.0004767148513,0.01013189774
5.33,0.004182069947,0.009273524293
5.34,0.007324409995,0.007105067462
5.35,0.009457077016,0.003919956083
5.36,0.01027030889,0.0001576943001
5.37,0.009636637852,-0.003655767538
5.38,0.007631551466,-0.006980846485
5.39,0.004525955125,-0.009340438502
5.4,0.0007508126858,-0.01038868419
5.41,-0.003161721679,-0.009962445705
5.42,-0.006652878567,-0.0081076889
5.43,-0.009217235196,-0.005076311749
5.44,-0.01047661528,-0.001293098465
5.45,-0.01023698299,0.002703158593
5.46,-0.008519538356,0.006336380401
5.47,-0.005560781054,0.009076867544
5.48,-0.001780800989,0.01051963893
5.49,0.002276172163,0.01044562015
5.5,0.006020608926,0.00885614323
5.51,0.008904392131,0.005975055746
5.52,0.01050241911,0.002217573909
5.53,0.01057664049,-0.001869885917
5.54,0.009112579478,-0.005690111607
5.55,0.00632249049,-0.008683694083
5.56,0.002614419511,-0.01041237316
5.57,-0.001468288841,-0.01062438675
5.58,-0.005327883639,-0.009291806677
5.59,-0.008401163545,-0.006614169415
5.6,-0.01024292628,-0.002987939767
5.61,-0.01059125396,0.001053367563
5.62,-0.009404877124,0.004919092429
5.63,-0.006867262132,0.00804906423
5.64,-0.003357243094,0.009995660121
5.65,0.0006088723496,0.01048805934
5.66,0.00445456302,0.009469417428
5.67,0.007627849788,0.007101987062
5.68,0.009680862549,0.003740147465
5.69,0.01033267175,-0.0001239184705
5.7,0.009506669186,-0.003933271617
5.71,0.007337798244,-0.007146911519
5.72,0.004149468029,-0.009316328179
5.73,0.0004043369004,-0.01014715309
5.74,-0.003363307676,-0.00953767777
5.75,-0.006623573298,-0.007589570921
5.76,-0.008924625591,-0.004590154209
5.77,-0.009953970507,-0.0009695042515
5.78,-0.009579388803,0.002761085672
5.79,-0.007864553912,0.006080510795
5.8,-0.005057860018,0.008529357175
5.81,-0.001556512223,0.009772020441
5.82,0.002148942754,0.009641421109
5.83,0.005542085026,0.008160693286
5.84,0.008151130623,0.005539238184
5.85,0.009613231429,0.002143805693
5.86,0.009724140201,-0.001551573332
5.87,0.008466654404,-0.005030284129
5.88,0.006013909503,-0.00780400479
5.89,0.0027067823,-0.009480387887
5.9,-0.0009919661797,-0.009818395893
5.91,-0.004561028862,-0.008763540064
5.92,-0.007493068237,-0.006457742848
5.93,-0.009366574669,-0.003221833395
5.94,-0.00990696938,0.000487589297
5.95,-0.00902798733,0.004141514394
5.96,-0.006846846602,0.007213586046
5.97,-0.003670257449,0.009256336283
5.98,4.750712187E-05,0.009967461734
5.99,0.003769058674,0.009236081532
6,0.006951857803,0.007161555878
