"Freq [GHz]","re(S(Rx_p1,Tx_p1)) []","im(S(Rx_p1,Tx_p1)) []"
1,-0.067629391,0.08467601742
1.01,-0.03121137821,0.1031143694
1.02,0.009201509861,0.1067110862
1.03,0.04783380451,0.09513868004
1.04,0.07923589071,0.07022124416
1.05,0.0990502645,0.03564774686
1.06,0.1046127725,-0.003574000208
1.07,0.09530652151,-0.04184183703
1.08,0.07262226584,-0.07375752489
1.09,0.03992106802,-0.09488538483
1.1,0.001936888974,-0.1023652288
1.11,-0.03590734371,-0.09529556443
1.12,-0.06827162051,-0.0748364943
1.13,-0.09064926021,-0.04402169592
1.14,-0.09999098706,-0.007309688807
1.15,-0.09511692019,0.03005941017
1.16,-0.0768614765,0.06280918568
1.17,-0.0479341554,0.08636878634
1.18,-0.01251899453,0.09750765621
1.19,0.02432837135,0.09477560991
1.2,0.05739959222,0.0786888423
1.21,0.08206675817,0.05163849695
1.22,0.09492721673,0.01753730178
1.23,0.09427074056,-0.01874388151
1.24,0.08030529991,-0.052068946
1.25,0.0551118856,-0.07776086152
1.26,0.02233685053,-0.09225581899
1.27,-0.01333319477,-0.09359612742
1.28,-0.04683883491,-0.08169393346
1.29,-0.07346312741,-0.05833029354
1.3,-0.08949403427,-0.02689136137
1.31,-0.09274126985,0.008119735067
1.32,-0.0828356886,0.04172548424
1.33,-0.06127018432,0.06917982729
1.34,-0.03117757568,0.08663749255
1.35,0.003122005557,0.09169258583
1.36,0.03673932371,0.08371094243
1.37,0.06491176999,0.06391009596
1.38,0.08367783409,0.03517653411
1.39,0.09043481409,0.001647135007
1.4,0.08430106589,-0.03188495339
1.41,0.06623204681,-0.06065495122
1.42,0.03887454586,-0.08060390024
1.43,0.006180817127,-0.08895249756
1.44,-0.02716148319,-0.08458989675
1.45,-0.0564014994,-0.06822270103
1.46,-0.0774030866,-0.04226381555
1.47,-0.08723146559,-0.01047812821
1.48,-0.08456504909,0.02256321072
1.49,-0.0698742416,0.05214085516
1.5,-0.04534270581,0.0740627803
1.51,-0.01454371626,0.08526023434
1.52,0.01808059143,0.08421899172
1.53,0.04786111403,0.07118490815
1.54,0.07057179867,0.04811562732
1.55,0.08303124639,0.01838705683
1.56,0.08354983472,-0.01370144238
1.57,0.07215916965,-0.04355045239
1.58,0.05059256271,-0.06692174346
1.59,0.02202142682,-0.08054187369
1.6,-0.009412306639,-0.08256177378
1.61,-0.03919854794,-0.07280751776
1.62,-0.06310818286,-0.05278825075
1.63,-0.07779511539,-0.02546264763
1.64,-0.08126515755,0.005199890918
1.65,-0.07314588768,0.03479789931
1.66,-0.05472107943,0.05913157781
1.67,-0.02872767955,0.07479993598
1.68,0.001052477392,0.07967616472
1.69,0.03034494899,0.07319473923
1.7,0.05499787969,0.05641176074
1.71,0.07157121049,0.03183316617
1.72,0.07781610546,0.003038794834
1.73,0.0729778582,-0.02584092108
1.74,0.05788188163,-0.05071874678
1.75,0.03479403814,-0.06812927163
1.76,0.007078879957,-0.07571039196
1.77,-0.02129230281,-0.07252096478
1.78,-0.04631135443,-0.05915244165
1.79,-0.06449908687,-0.03762228754
1.8,-0.07338725393,-0.01106809486
1.81,-0.0718502369,0.01671092538
1.82,-0.06024249472,0.04179780839
1.83,-0.040326014,0.06070912698
1.84,-0.01500177055,0.07087630058
1.85,0.01211363418,0.0709908685
1.86,0.03720420669,0.0611680073
1.87,0.05679001841,0.04290882261
1.88,0.06820704828,0.0188703152
1.89,0.06996578296,-0.007521576105
1.9,0.06194102763,-0.03255943024
1.91,0.04536962177,-0.05277309427
1.92,0.02265967936,-0.06540753843
1.93,-0.002959169424,-0.06879460856
1.94,-0.02789376908,-0.06256923192
1.95,-0.04868896938,-0.0477028306
1.96,-0.06250316214,-0.02635217465
1.97,-0.06749299763,-0.001547147075
1.98,-0.06305587566,0.023237508
1.99,-0.04989896474,0.04456626246
2,-0.02992756184,0.0595157864
2.01,-0.005970267679,0.06607233519
2.02,0.01861959711,0.06340013698
2.03,0.04043057111,0.05194553134
2.04,0.0564632444,0.03336429862
2.05,0.06453984238,0.01028375012
2.06,0.06359779912,-0.01406652164
2.07,0.05382813405,-0.03630377632
2.08,0.03664082414,-0.05335921232
2.09,0.0144630036,-0.06289903836
2.1,-0.009601459633,-0.0636421854
2.11,-0.03220371576,-0.05553167099
2.12,-0.05021345386,-0.03973675892
2.13,-0.06115048857,-0.01848623592
2.14,-0.063525238,0.005243781725
2.15,-0.05704150492,0.02814422372
2.16,-0.04263391451,0.04703237551
2.17,-0.02233509252,0.05929274089
2.18,0.001008907117,0.06323862305
2.19,0.02413549646,0.05834449562
2.2,0.04381980587,0.04531703504
2.21,0.05732333776,0.02599495846
2.22,0.06277475022,0.003091509811
2.23,0.05942980806,-0.02018470963
2.24,0.04777422793,-0.04057789516
2.25,0.02945493344,-0.05523979349
2.26,0.007049121759,-0.06212761447
2.27,-0.01629679298,-0.06028944202
2.28,-0.03730802703,-0.04999707972
2.29,-0.05304044038,-0.0327075254
2.3,-0.06129339577,-0.01085824356
2.31,-0.06091846593,0.01247525999
2.32,-0.05198048834,0.03401164486
2.33,-0.03574813488,0.05072507232
2.34,-0.01451511577,0.06027078792
2.35,0.008722995087,0.06131497268
2.36,0.03069091599,0.05372227208
2.37,0.04829534649,0.03857441771
2.38,0.05906106156,0.01801717118
2.39,0.06147980552,-0.005042918607
2.4,0.05522263352,-0.02734918587
2.41,0.04118561614,-0.04575493694
2.42,0.02136238574,-0.05766789751
2.43,-0.001438475071,-0.06141612239
2.44,-0.02399120614,-0.05648356274
2.45,-0.04310946481,-0.04358193928
2.46,-0.0560970485,-0.02454877278
2.47,-0.06112887623,-0.002086080131
2.48,-0.05750825875,0.02062315023
2.49,-0.04576405495,0.04036625288
2.5,-0.0275740528,0.05435589946
2.51,-0.005525591424,0.06062428672
2.52,0.01725245475,0.05830063246
2.53,0.0375339666,0.04773273055
2.54,0.05245299697,0.03043550301
2.55,0.05990936664,0.008874082525
2.56,0.05886493296,-0.01388754017
2.57,0.04948863451,-0.03462220696
2.58,0.03312996669,-0.05039760999
2.59,0.01212495924,-0.05899154737
2.6,-0.01053747035,-0.05920551463
2.61,-0.03164111448,-0.0510322864
2.62,-0.0481993673,-0.03565398503
2.63,-0.05787842548,-0.01527128246
2.64,-0.05932673988,0.007211606843
2.65,-0.05236412537,0.0286010302
2.66,-0.0380040045,0.04586799735
2.67,-0.01830605937,0.0565776313
2.68,0.003919302761,0.05923299432
2.69,0.02551224146,0.05348465689
2.7,0.04341317599,0.04017661253
2.71,0.05509680219,0.02122250994
2.72,0.05892878006,-0.000669665386
2.73,0.05439463474,-0.02238482169
2.74,0.04216876066,-0.04084447029
2.75,0.02401427913,-0.05344363205
2.76,0.002528600616,-0.05841884919
2.77,-0.01922855683,-0.05509524071
2.78,-0.03817135487,-0.04397794636
2.79,-0.05162596357,-0.02667558116
2.8,-0.05770834281,-0.005667272957
2.81,-0.05558823405,0.01605293965
2.82,-0.0456023387,0.03540327195
2.83,-0.02920127658,0.04965189212
2.84,-0.008738629557,0.05680290944
2.85,0.01286720688,0.0558760557
2.86,0.03254970719,0.04704084655
2.87,0.04752985693,0.03158689397
2.88,0.05570878798,0.01173542559
2.89,0.05596188454,-0.00968039463
2.9,0.04829313855,-0.0296202592
2.91,0.03382861429,-0.0452687056
2.92,0.0146508514,-0.05443285184
2.93,-0.006501392298,-0.05584965285
2.94,-0.02662468976,-0.04935963017
2.95,-0.04287772806,-0.03592323665
2.96,-0.05298261986,-0.01747848877
2.97,-0.05554403423,0.003338983292
2.98,-0.0502414542,0.0235729513
2.99,-0.0378681409,0.04036666513
3,-0.02021227577,0.05136624572
3.01,0.0002018695456,0.0550504183
3.02,0.02047519599,0.05094042821
3.03,0.03774570179,0.03966125583
3.04,0.04959249842,0.02284648235
3.05,0.05437488366,0.002901315546
3.06,0.05145902587,-0.0173417763
3.07,0.04130103387,-0.0350254567
3.08,0.02537569172,-0.04767074392
3.09,0.00596199657,-0.05352417505
3.1,-0.01418324729,-0.05180035248
3.11,-0.03221697689,-0.04278642703
3.12,-0.04561093246,-0.02779477827
3.13,-0.05250568342,-0.008971637705
3.14,-0.05196811803,0.01101037905
3.15,-0.0441168541,0.02933174097
3.16,-0.03009887182,0.04342358929
3.17,-0.01192170894,0.05132742166
3.18,0.007834181607,0.05196659758
3.19,0.02638166772,0.04529214889
3.2,0.04111980047,0.0322833007
3.21,0.04999798462,0.01480363473
3.22,0.0518005678,-0.004665938466
3.23,0.04631248155,-0.02337912054
3.24,0.03434351184,-0.0387111813
3.25,0.01760872981,-0.0485264813
3.26,-0.001517238287,-0.05147521113
3.27,-0.02033689431,-0.04717825083
3.28,-0.03620981411,-0.03627497253
3.29,-0.04692242995,-0.02032813314
3.3,-0.05099598498,-0.00160000997
3.31,-0.04788995223,0.01726816989
3.32,-0.03807306583,0.03362814466
3.33,-0.02295275611,0.0451956121
3.34,-0.004673594585,0.05036846013
3.35,0.01418642407,0.04844803388
3.36,0.03097883213,0.0397329962
3.37,0.04335588925,0.02547326227
3.38,0.0495981405,0.007691065333
3.39,0.0488527577,-0.0111052881
3.4,0.04124972446,-0.02827455491
3.41,0.02788009479,-0.04141299352
3.42,0.01063985323,-0.04869028187
3.43,-0.008038355588,-0.04910408613
3.44,-0.02552778267,-0.04261794996
3.45,-0.03937631016,-0.03016356242
3.46,-0.04764973099,-0.01350744702
3.47,-0.04920161392,0.004998948675
3.48,-0.04383215295,0.02275053219
3.49,-0.03231398755,0.03725467375
3.5,-0.01628161929,0.04648080617
3.51,0.001999859132,0.0491445607
3.52,0.01995412891,0.04488670356
3.53,0.03505620071,0.03432191143
3.54,0.04518723734,0.0189506869
3.55,0.04893183294,0.0009469138513
3.56,0.04577603467,-0.01714899794
3.57,0.03617834324,-0.03278817805
3.58,0.02150378479,-0.04377217688
3.59,0.003830404951,-0.04856215582
3.6,-0.01434450621,-0.04649486788
3.61,-0.03045702247,-0.03787503306
3.62,-0.04223828476,-0.0239311288
3.63,-0.0480342665,-0.006640879951
3.64,-0.04703847426,0.0115488723
3.65,-0.03940474498,0.02806831618
3.66,-0.02622424336,0.04058788229
3.67,-0.009369970119,0.04734715298
3.68,0.008769153364,0.04740294711
3.69,0.02562691715,0.04076150581
3.7,0.03882316144,0.02837613351
3.71,0.04650031704,0.01201073154
3.72,0.04758546229,-0.00601131015
3.73,0.04194080727,-0.02313713342
3.74,0.03038138633,-0.0369464302
3.75,0.01455762523,-0.04549403769
3.76,-0.003280342765,-0.04758450318
3.77,-0.02060294456,-0.04293974469
3.78,-0.03496037157,-0.03223619474
3.79,-0.04432961172,-0.01700642186
3.8,-0.04740003144,0.0005804833531
3.81,-0.04375708218,0.0180282496
3.82,-0.03393830385,0.03286829298
3.83,-0.01935404205,0.04300955136
3.84,-0.002084573029,0.04703359102
3.85,0.01541711912,0.04439324141
3.86,0.03067434577,0.03548688782
3.87,0.04153772436,0.02159834811
3.88,0.04648833956,0.004711419965
3.89,0.04485021814,-0.01277403091
3.9,0.03688236981,-0.02838369798
3.91,0.02373790593,-0.03991942781
3.92,0.007296693951,-0.04576900793
3.93,-0.01010407161,-0.04513143646
3.94,-0.0260026499,-0.03812620164
3.95,-0.0381613935,-0.02577173633
3.96,-0.04488179452,-0.009836849215
3.97,-0.04524155407,0.007413091699
3.98,-0.03922062052,0.02353868682
3.99,-0.02769907333,0.03627172771
4,-0.01232796718,0.04383420455
4.01,0.004707805938,0.04518623401
4.02,0.02100046901,0.04016839965
4.03,0.03425979288,0.02951914427
4.04,0.0426348473,0.01476561045
4.05,0.04497189829,-0.001995836239
4.06,0.04097260771,-0.0183977629
4.07,0.03123098306,-0.03213604082
4.08,0.01714472695,-0.04129320469
4.09,0.0007143023549,-0.04460547777
4.1,-0.01574132009,-0.04163638936
4.11,-0.02991180873,-0.03283328457
4.12,-0.03981938438,-0.01945960663
4.13,-0.04409417071,-0.003413268989
4.14,-0.04216277638,0.01304271272
4.15,-0.03432430496,0.02759908949
4.16,-0.02170389024,0.03822386974
4.17,-0.006091012192,0.04344522082
4.18,0.01031413435,0.04255453674
4.19,0.02521028728,0.03570181073
4.2,0.03651727744,0.02387062779
4.21,0.04266572369,0.00873692627
4.22,0.04281406677,-0.007568176176
4.23,0.03696307706,-0.02275796969
4.24,0.02595238305,-0.03471013328
4.25,0.01134004123,-0.04176246915
4.26,-0.004817588533,-0.04294333027
4.27,-0.02025462685,-0.03810493481
4.28,-0.03281267532,-0.02794137865
4.29,-0.0407418262,-0.01388923753
4.3,-0.04294384664,0.002075038539
4.31,-0.03912386351,0.01771244849
4.32,-0.02982967505,0.03083469334
4.33,-0.01637347546,0.0396096754
4.34,-0.0006471247272,0.04281672867
4.35,0.01514312955,0.04001612586
4.36,0.02878541245,0.03160937455
4.37,0.03837139239,0.01878202781
4.38,0.04256276776,0.003337085337
4.39,0.04077793667,-0.01255771475
4.4,0.03327283903,-0.02667342722
4.41,0.02110470246,-0.03703188324
4.42,0.005983743555,-0.04218256183
4.43,-0.00996649113,-0.0414056559
4.44,-0.02450669005,-0.03481290827
4.45,-0.03559566912,-0.0233320413
4.46,-0.04167667711,-0.008576855212
4.47,-0.04189599296,0.007378935381
4.48,-0.03622310374,0.02229255408
4.49,-0.02545548141,0.03406701374
4.5,-0.0111071179,0.04104583165
4.51,0.004803718884,0.04224620653
4.52,0.02003786613,0.03749780233
4.53,0.03245008239,0.02746746656
4.54,0.04029108478,0.013566198
4.55,0.04245428307,-0.002248768788
4.56,0.03863236552,-0.01774910054
4.57,0.0293615002,-0.03074911745
4.58,0.01594669768,-0.03941401495
4.59,0.0002786222428,-0.04251907751
4.6,-0.01543251943,-0.03962321256
4.61,-0.02896861232,-0.031132136
4.62,-0.03841686766,-0.0182420666
4.63,-0.04244040214,-0.002771650406
4.64,-0.04046783081,0.01309434156
4.65,-0.03277490849,0.02711346428
4.66,-0.02044646961,0.03730265728
4.67,-0.005223836777,0.04221905413
4.68,0.01074089955,0.041164723
4.69,0.02518908824,0.03428621248
4.7,0.03607521057,0.02255462686
4.71,0.04185677843,0.007628865449
4.72,0.04171329789,-0.008378765567
4.73,0.03566314673,-0.02320147641
4.74,0.02456164661,-0.03473914569
4.75,0.009980444894,-0.0413561701
4.76,-0.006014828599,-0.04211371769
4.77,-0.02115719512,-0.03690334151
4.78,-0.03329978797,-0.02646287299
4.79,-0.0407205273,-0.01227221159
4.8,-0.04236672146,0.003656311443
4.81,-0.03800479255,0.01906331706
4.82,-0.02825376912,0.03176303157
4.83,-0.01449769016,0.03995367283
4.84,0.001310723104,0.04247344662
4.85,0.01692729559,0.03896572351
4.86,0.03013516289,0.02992985241
4.87,0.03905976604,0.01665031733
4.88,0.0424352718,0.001014249746
4.89,0.03978449557,-0.01475679497
4.9,0.03148669206,-0.02842266718
4.91,0.01872352886,-0.0380431289
4.92,0.003310900408,-0.04225370156
4.93,-0.01255949677,-0.04045957699
4.94,-0.02663204199,-0.03291997087
4.95,-0.03690810824,-0.02071090011
4.96,-0.04193030822,-0.00557169034
4.97,-0.04098957766,0.01034290599
4.98,-0.0342256046,0.0247696408
4.99,-0.02260632349,0.03565899167
5,-0.007789444871,0.0414667386
5.01,0.008114180859,0.04137334462
5.02,0.02284156634,0.03539990441
5.03,0.03429998777,0.02440420083
5.04,0.04086478475,0.009957532045
5.05,0.04161010652,-0.005880007684
5.06,0.03643976163,-0.02085362669
5.07,0.02609962622,-0.03283527252
5.08,0.01207000204,-0.04012650908
5.09,-0.003646536066,-0.041699648
5.1,-0.01881135909,-0.03734283094
5.11,-0.03126909513,-0.02768853579
5.12,-0.03925440687,-0.01412166947
5.13,-0.04164249073,0.001419382382
5.14,-0.03810768765,0.0167201175
5.15,-0.02916780492,0.02960592859
5.16,-0.01610812812,0.03825158419
5.17,-0.0007962995608,0.04144005667
5.18,0.01458521177,0.03873393812
5.19,0.02785064434,0.03053527975
5.2,0.03712192676,0.01802569626
5.21,0.04109479138,0.00299569023
5.22,0.03922226794,-0.01241207943
5.23,0.0317897384,-0.02600868724
5.24,0.01987129912,-0.03587023685
5.25,0.005174135086,-0.04061022984
5.26,-0.01020646757,-0.0395744203
5.27,-0.0240862275,-0.03293078553
5.28,-0.03450231892,-0.02164230297
5.29,-0.03999099469,-0.007326955738
5.3,-0.03979310537,0.007974601107
5.31,-0.03395869196,0.02209026884
5.32,-0.02333632042,0.0330250015
5.33,-0.009449264825,0.03924272473
5.34,0.005723315836,0.03988184959
5.35,0.02002869806,0.03487419712
5.36,0.03144609018,0.02495100948
5.37,0.03837193962,0.01153580673
5.38,0.03984480028,-0.00346013962
5.39,0.03567829563,-0.01791026852
5.4,0.02648388878,-0.02977425483
5.41,0.01358084242,-0.03738585378
5.42,-0.001193311492,-0.03968650543
5.43,-0.01574451729,-0.03637202997
5.44,-0.02801886118,-0.02793218809
5.45,-0.0362921572,-0.01557809079
5.46,-0.03941168976,-0.001068264137
5.47,-0.03695630951,0.01354162352
5.48,-0.02929274879,0.02618976232
5.49,-0.01752073211,0.03509878339
5.5,-0.003315123813,0.0390250477
5.51,0.01131222093,0.03743177147
5.52,0.02429706878,0.03056198209
5.53,0.03381368457,0.01940147206
5.54,0.03853106983,0.00553740153
5.55,0.03779869434,-0.009067181333
5.56,0.03173588631,-0.02235091655
5.57,0.02121265877,-0.03244463163
5.58,0.0077250208,-0.03793391523
5.59,-0.006817387231,-0.03805696736
5.6,-0.02036125084,-0.03281011867
5.61,-0.03099905232,-0.02294644075
5.62,-0.03723733555,-0.009867905604
5.63,-0.03820611428,0.004573511098
5.64,-0.03378011174,0.01833763981
5.65,-0.02459495084,0.02948391584
5.66,-0.01195619358,0.03644465175
5.67,0.002345816038,0.03824536436
5.68,0.01628912824,0.03464122211
5.69,0.02790566686,0.02615050078
5.7,0.03555877901,0.01398043664
5.71,0.03817376029,-0.0001439889095
5.72,0.03538889712,-0.01422413605
5.73,0.02760577188,-0.02627020713
5.74,0.01593177719,-0.03458229187
5.75,0.002022987408,-0.03799029082
5.76,-0.01215040227,-0.03601884633
5.77,-0.02458291909,-0.02895398999
5.78,-0.03351751959,-0.01780209208
5.79,-0.03769403596,-0.004146920038
5.8,-0.03652720573,0.01007497119
5.81,-0.03018907567,0.02284872371
5.82,-0.0195840999,0.03236666076
5.83,-0.006220451439,0.0372843133
5.84,0.008004214957,0.03691068546
5.85,0.02107216321,0.03130576409
5.86,0.03113190712,0.02127143076
5.87,0.03676081627,0.008237067689
5.88,0.03716669444,-0.005943885431
5.89,0.03229969196,-0.01925749987
5.9,0.02285866006,-0.0298155673
5.91,0.01019107495,-0.03612373701
5.92,-0.003899187659,-0.03729343794
5.93,-0.01740882245,-0.03316745141
5.94,-0.02842018331,-0.02434130973
5.95,-0.03537386911,-0.01207755011
5.96,-0.03728998622,0.001874867695
5.97,-0.03390661205,0.0155301531
5.98,-0.02571582112,0.02694863418
5.99,-0.01389227172,0.03451268686
6,-0.000124691888,0.03715631419
