"Freq [GHz]","re(S(Tx_p1,Tx_p1)) []","im(S(Tx_p1,Tx_p1)) []"
1,0.00681447079,-0.1813318385
1.01,0.001197154311,-0.1809499181
1.02,-0.00441107433,-0.1803928074
1.03,-0.01000316338,-0.1796602558
1.04,-0.01557211105,-0.178752391
1.05,-0.021110984,-0.1776697066
1.06,-0.02661293492,-0.1764130507
1.07,-0.03207121896,-0.1749836126
1.08,-0.03747920928,-0.1733829099
1.09,-0.04283041146,-0.1716127748
1.1,-0.04811847691,-0.16967534
1.11,-0.05333721532,-0.1675730246
1.12,-0.05848060592,-0.1653085195
1.13,-0.06354280789,-0.1628847723
1.14,-0.06851816959,-0.1603049726
1.15,-0.07340123692,-0.157572537
1.16,-0.07818676051,-0.1546910938
1.17,-0.0828697021,-0.1516644678
1.18,-0.0874452398,-0.1484966655
1.19,-0.09190877252,-0.1451918598
1.2,-0.09625592333,-0.1417543754
1.21,-0.1004825421,-0.1381886738
1.22,-0.1045847069,-0.1344993395
1.23,-0.1085587253,-0.1306910651
1.24,-0.1124011339,-0.1267686381
1.25,-0.1161086974,-0.1227369273
1.26,-0.1196784079,-0.1186008693
1.27,-0.1231074815,-0.1143654569
1.28,-0.1263933563,-0.1100357259
1.29,-0.1295336883,-0.1056167441
1.3,-0.1325263475,-0.1011136003
1.31,-0.1353694131,-0.09653139338
1.32,-0.1380611684,-0.09187522255
1.33,-0.140600095,-0.08715017813
1.34,-0.1429848669,-0.08236133269
1.35,-0.1452143439,-0.07751373306
1.36,-0.1472875652,-0.07261239284
1.37,-0.1492037421,-0.06766228567
1.38,-0.1509622509,-0.06266833909
1.39,-0.1525626256,-0.0576354291
1.4,-0.1540045504,-0.05256837536
1.41,-0.1552878519,-0.04747193705
1.42,-0.1564124918,-0.04235080939
1.43,-0.1573785593,-0.0372096208
1.44,-0.1581862635,-0.03205293068
1.45,-0.1588359259,-0.02688522779
1.46,-0.1593279733,-0.02171092924
1.47,-0.1596629308,-0.01653438008
1.48,-0.1598414148,-0.01135985339
1.49,-0.1598641264,-0.006191550914
1.5,-0.1597318454,-0.001033604232
1.51,-0.1594454239,0.004109923674
1.52,-0.1590057811,0.00923503635
1.53,-0.1584138981,0.01433780143
1.54,-0.1576708128,0.01941434782
1.55,-0.156777616,0.02446086255
1.56,-0.155735447,0.02947358733
1.57,-0.1545454906,0.03444881483
1.58,-0.1532089741,0.03938288482
1.59,-0.1517271648,0.04427218002
1.6,-0.1501013683,0.04911312191
1.61,-0.1483329266,0.05390216641
1.62,-0.1464232181,0.05863579948
1.63,-0.1443736563,0.06331053283
1.64,-0.1421856909,0.06792289947
1.65,-0.1398608078,0.07246944953
1.66,-0.1374005307,0.07694674607
1.67,-0.1348064227,0.0813513611
1.68,-0.1320800885,0.08567987176
1.69,-0.1292231769,0.0899288568
1.7,-0.1262373843,0.09409489325
1.71,-0.1231244579,0.09817455345
1.72,-0.1198861997,0.1021644024
1.73,-0.1165244709,0.1060609955
1.74,-0.1130411966,0.1098608766
1.75,-0.1094383705,0.1135605768
1.76,-0.1057180606,0.1171566132
1.77,-0.1018824144,0.1206454886
1.78,-0.0979336647,0.1240236914
1.79,-0.0938741356,0.1272876962
1.8,-0.08970624847,0.1304339649
1.81,-0.08543252815,0.1334589485
1.82,-0.08105560913,0.1363590887
1.83,-0.07657824175,0.1391308216
1.84,-0.07200329848,0.1417705803
1.85,-0.06733377995,0.1442747994
1.86,-0.06257282102,0.146639919
1.87,-0.05772369663,0.1488623904
1.88,-0.05278982745,0.1509386815
1.89,-0.04777478526,0.1528652831
1.9,-0.04268229811,0.1546387157
1.91,-0.03751625513,0.1562555371
1.92,-0.03228071089,0.1577123501
1.93,-0.02697988947,0.1590058109
1.94,-0.02161818798,0.1601326382
1.95,-0.01620017968,0.1610896225
1.96,-0.01073061647,0.1618736355
1.97,-0.005214430946,0.1624816411
1.98,0.0003432622728,0.162910705
1.99,0.005937165721,0.1631580064
2,0.01156179899,0.1632208488
2.01,0.01721149926,0.1630966714
2.02,0.02288042261,0.1627830608
2.03,0.02856254595,0.162277763
2.04,0.03425166976,0.1615786952
2.05,0.03994142162,0.1606839577
2.06,0.04562526041,0.1595918464
2.07,0.05129648138,0.1583008642
2.08,0.05694822201,0.1568097336
2.09,0.06257346859,0.1551174083
2.1,0.06816506366,0.1532230848
2.11,0.07371571427,0.151126214
2.12,0.07921800093,0.1488265125
2.13,0.08466438745,0.1463239735
2.14,0.09004723146,0.1436188772
2.15,0.09535879576,0.1407118008
2.16,0.1005912603,0.1376036285
2.17,0.1057367352,0.1342955606
2.18,0.1107872738,0.1307891217
2.19,0.1157348871,0.1270861689
2.2,0.1205715585,0.1231888991
2.21,0.1252892589,0.1190998558
2.22,0.1298799633,0.1148219344
2.23,0.1343356663,0.1103583877
2.24,0.1386483999,0.1057128302
2.25,0.1428102505,0.1008892412
2.26,0.1468133768,0.09589196753
2.27,0.1506500278,0.09072572513
2.28,0.1543125616,0.08539559957
2.29,0.1577934638,0.07990704579
2.3,0.1610853665,0.07426588682
2.31,0.1641810674,0.06847831135
2.32,0.1670735488,0.06255087047
2.33,0.1697559971,0.05649047317
2.34,0.1722218214,0.05030438091
2.35,0.1744646729,0.04400020113
2.36,0.1764784638,0.03758587961
2.37,0.1782573859,0.03106969188
2.38,0.179795929,0.02446023349
2.39,0.181088899,0.01776640931
2.4,0.1821314355,0.01099742169
2.41,0.1829190292,0.004162757684
2.42,0.1834475385,-0.002727824745
2.43,0.1837132058,-0.009664311531
2.44,0.1837126729,-0.01663644825
2.45,0.1834429958,-0.02363375677
2.46,0.1829016589,-0.03064555288
2.47,0.1820865883,-0.03766096464
2.48,0.1809961643,-0.0446689517
2.49,0.1796292329,-0.05165832531
2.5,0.1779851164,-0.05861776907
2.51,0.1760636232,-0.06553586044
2.52,0.1738650564,-0.0724010928
2.53,0.1713902212,-0.07920189816
2.54,0.1686404313,-0.08592667036
2.55,0.1656175146,-0.0925637888
2.56,0.1623238169,-0.09910164252
2.57,0.1587622051,-0.1055286547
2.58,0.1549360688,-0.1118333074
2.59,0.1508493208,-0.1180041666
2.6,0.1465063963,-0.1240299072
2.61,0.1419122508,-0.1298993386
2.62,0.1370723569,-0.1356014295
2.63,0.1319926995,-0.1411253335
2.64,0.1266797699,-0.1464604144
2.65,0.1211405587,-0.1515962705
2.66,0.115382547,-0.15652276
2.67,0.1094136967,-0.1612300249
2.68,0.1032424398,-0.1657085152
2.69,0.09687766556,-0.1699490127
2.7,0.09032870712,-0.1739426535
2.71,0.08360532689,-0.1776809508
2.72,0.07671770045,-0.1811558168
2.73,0.06967639954,-0.1843595833
2.74,0.0624923738,-0.1872850225
2.75,0.05517693153,-0.1899253662
2.76,0.04774171937,-0.1922743245
2.77,0.04019870098,-0.1943261031
2.78,0.0325601348,-0.1960754202
2.79,0.02483855093,-0.197517522
2.8,0.01704672711,-0.1986481971
2.81,0.009197664003,-0.1994637896
2.82,0.001304559702,-0.1999612115
2.83,-0.006619216425,-0.2001379531
2.84,-0.01456015046,-0.199992093
2.85,-0.02250461123,-0.1995223063
2.86,-0.03043887801,-0.1987278712
2.87,-0.03834916869,-0.1976086749
2.88,-0.04622166824,-0.1961652174
2.89,-0.0540425574,-0.1943986149
2.9,-0.0617980416,-0.1923106006
2.91,-0.06947437994,-0.1899035246
2.92,-0.0770579143,-0.1871803531
2.93,-0.08453509827,-0.1841446644
2.94,-0.09189252609,-0.1808006456
2.95,-0.09911696132,-0.1771530861
2.96,-0.1061953653,-0.1732073704
2.97,-0.1131149253,-0.1689694699
2.98,-0.1198630822,-0.1644459326
2.99,-0.1264275576,-0.1596438714
3,-0.1327963807,-0.1545709521
3.01,-0.1389579141,-0.1492353787
3.02,-0.1449008795,-0.1436458783
3.03,-0.150614382,-0.1378116846
3.04,-0.1560879341,-0.1317425199
3.05,-0.1613114786,-0.1254485763
3.06,-0.1662754104,-0.1189404955
3.07,-0.1709705978,-0.1122293478
3.08,-0.1753884022,-0.1053266098
3.09,-0.1795206971,-0.09824414124
3.1,-0.1833598858,-0.09099416107
3.11,-0.1868989176,-0.08358922244
3.12,-0.1901313037,-0.07604218711
3.13,-0.1930511306,-0.06836619896
3.14,-0.1956530732,-0.06057465701
3.15,-0.1979324058,-0.05268118772
3.16,-0.1998850126,-0.04469961685
3.17,-0.2015073958,-0.03664394082
3.18,-0.202796683,-0.02852829776
3.19,-0.2037506332,-0.02036693819
3.2,-0.2043676406,-0.01217419552
3.21,-0.204646738,-0.003964456317
3.22,-0.2045875979,0.004247869375
3.23,-0.2041905328,0.01244837787
3.24,-0.2034564934,0.0206227015
3.25,-0.2023870657,0.02875653822
3.26,-0.200984467,0.03683568092
3.27,-0.1992515398,0.04484604648
3.28,-0.1971917447,0.05277370455
3.29,-0.194809152,0.06060490576
3.3,-0.1921084317,0.06832610953
3.31,-0.1890948425,0.07592401131
3.32,-0.1857742188,0.08338556917
3.33,-0.1821529576,0.09069802973
3.34,-0.1782380031,0.09784895328
3.35,-0.1740368309,0.1048262382
3.36,-0.1695574303,0.1116181443
3.37,-0.1648082865,0.1182133156
3.38,-0.1597983608,0.1246008017
3.39,-0.1545370709,0.1307700787
3.4,-0.1490342688,0.1367110681
3.41,-0.1433002194,0.1424141559
3.42,-0.1373455774,0.1478702096
3.43,-0.1311813638,0.1530705939
3.44,-0.1248189411,0.1580071862
3.45,-0.1182699892,0.16267239
3.46,-0.1115464792,0.167059147
3.47,-0.1046606479,0.1711609487
3.48,-0.09762497146,0.1749718456
3.49,-0.09045213852,0.1784864563
3.5,-0.08315502337,0.1816999741
3.51,-0.07574665879,0.1846081732
3.52,-0.06824020876,0.1872074128
3.53,-0.06064894107,0.1894946407
3.54,-0.05298620002,0.1914673946
3.55,-0.04526537908,0.1931238031
3.56,-0.03749989375,0.1944625844
3.57,-0.02970315462,0.1954830444
3.58,-0.02188854064,0.1961850733
3.59,-0.0140693728,0.196569141
3.6,-0.006258888126,0.196636291
3.61,0.001529785857,0.1963881334
3.62,0.009283656128,0.1958268367
3.63,0.01698988865,0.194955118
3.64,0.02463583219,0.1937762332
3.65,0.03220904156,0.1922939647
3.66,0.03969729999,0.1905126091
3.67,0.04708864091,0.1884369636
3.68,0.05437136882,0.1860723113
3.69,0.06153407931,0.1834244059
3.7,0.06856567826,0.1804994555
3.71,0.07545540007,0.1773041055
3.72,0.08219282494,0.1738454206
3.73,0.08876789517,0.1701308667
3.74,0.09517093049,0.1661682914
3.75,0.1013926423,0.1619659048
3.76,0.1074241468,0.1575322589
3.77,0.1132569773,0.1528762273
3.78,0.1188830952,0.1480069839
3.79,0.1242949,0.1429339817
3.8,0.1294852378,0.1376669312
3.81,0.1344474098,0.1322157784
3.82,0.1391751782,0.1265906828
3.83,0.1436627724,0.1208019954
3.84,0.1479048929,0.1148602363
3.85,0.1518967151,0.1087760727
3.86,0.1556338912,0.1025602968
3.87,0.1591125519,0.09622380349
3.88,0.1623293061,0.08977756893
3.89,0.1652812404,0.08323262868
3.9,0.1679659172,0.07660005643
3.91,0.1703813717,0.06989094295
3.92,0.1725261081,0.06311637542
3.93,0.1743990954,0.0562874172
3.94,0.1759997609,0.04941508799
3.95,0.1773279846,0.0425103445
3.96,0.1783840915,0.0355840617
3.97,0.1791688434,0.02864701453
3.98,0.1796834306,0.02170986031
3.99,0.1799294617,0.0147831217
4,0.1799089539,0.007877170371
4.01,0.1796243218,0.001002211309
4.02,0.1790783663,-0.005831732138
4.03,0.1782742625,-0.01261483251
4.04,0.1772155472,-0.01933747175
4.05,0.175906106,-0.02599025391
4.06,0.17435016,-0.03256401718
4.07,0.1725522522,-0.03904984504
4.08,0.1705172334,-0.0454390767
4.09,0.1682502479,-0.05172331668
4.1,0.1657567191,-0.05789444364
4.11,0.1630423347,-0.06394461843
4.12,0.1601130321,-0.06986629131
4.13,0.156974983,-0.07565220836
4.14,0.1536345792,-0.08129541724
4.15,0.1500984168,-0.08678927198
4.16,0.1463732818,-0.09212743721
4.17,0.1424661348,-0.09730389151
4.18,0.1383840967,-0.1023129301
4.19,0.1341344334,-0.1071491669
4.2,0.1297245418,-0.1118075354
4.21,0.1251619356,-0.1162832901
4.22,0.1204542307,-0.1205720054
4.23,0.1156091319,-0.1246695759
4.24,0.1106344192,-0.1285722144
4.25,0.1055379349,-0.1322764508
4.26,0.1003275703,-0.135779129
4.27,0.09501125372,-0.1390774045
4.28,0.08959693817,-0.1421687411
4.29,0.08409258972,-0.1450509067
4.3,0.07850617625,-0.1477219695
4.31,0.07284565661,-0.150180293
4.32,0.06711897025,-0.1524245313
4.33,0.06133402728,-0.1544536239
4.34,0.05549869896,-0.1562667898
4.35,0.04962080872,-0.1578635219
4.36,0.04370812358,-0.1592435808
4.37,0.03776834606,-0.1604069886
4.38,0.03180910656,-0.1613540224
4.39,0.02583795621,-0.1620852079
4.4,0.01986236015,-0.1626013125
4.41,0.01388969128,-0.1629033387
4.42,0.007927224446,-0.1629925171
4.43,0.001982131074,-0.1628702998
4.44,-0.003938525804,-0.1625383536
4.45,-0.009827796087,-0.1619985527
4.46,-0.01567884676,-0.1612529726
4.47,-0.02148496569,-0.1603038831
4.48,-0.02723956499,-0.1591537416
4.49,-0.03293618414,-0.1578051868
4.5,-0.03856849271,-0.1562610324
4.51,-0.04413029276,-0.1545242605
4.52,-0.04961552106,-0.1525980162
4.53,-0.0550182509,-0.1504856009
4.54,-0.06033269377,-0.1481904675
4.55,-0.06555320078,-0.145716214
4.56,-0.07067426385,-0.1430665789
4.57,-0.07569051676,-0.1402454356
4.58,-0.08059673604,-0.1372567879
4.59,-0.08538784169,-0.134104765
4.6,-0.09005889785,-0.1307936171
4.61,-0.09460511332,-0.1273277111
4.62,-0.09902184204,-0.1237115267
4.63,-0.1033045835,-0.1199496525
4.64,-0.1074489833,-0.1160467821
4.65,-0.1114508331,-0.1120077108
4.66,-0.1153060717,-0.1078373326
4.67,-0.1190107848,-0.1035406365
4.68,-0.1225612059,-0.09912270392
4.69,-0.1259537166,-0.094588706
4.7,-0.1291848475,-0.08994390064
4.71,-0.1322512786,-0.08519363014
4.72,-0.1351498401,-0.08034331872
4.73,-0.1378775135,-0.07539847017
4.74,-0.1404314328,-0.07036466563
4.75,-0.142808885,-0.06524756132
4.76,-0.1450073121,-0.0600528864
4.77,-0.1470243122,-0.05478644083
4.78,-0.148857641,-0.04945409316
4.79,-0.150505214,-0.04406177844
4.8,-0.1519651078,-0.03861549595
4.81,-0.1532355624,-0.03312130698
4.82,-0.1543149834,-0.02758533243
4.83,-0.1552019443,-0.02201375046
4.84,-0.1558951889,-0.01641279387
4.85,-0.1563936338,-0.01078874745
4.86,-0.1566963714,-0.005147945142
4.87,-0.1568026721,0.0005032329574
4.88,-0.156711988,0.006158363778
4.89,-0.1564239553,0.01181098466
4.9,-0.1559383973,0.01745459696
4.91,-0.1552553281,0.02308266986
4.92,-0.1543749551,0.02868864445
4.93,-0.1532976826,0.03426593804
4.94,-0.1520241148,0.03980794876
4.95,-0.150555059,0.04530806039
4.96,-0.1488915286,0.05075964752
4.97,-0.1470347463,0.05615608101
4.98,-0.1449861473,0.06149073363
4.99,-0.1427473815,0.06675698616
5,-0.1403203172,0.07194823364
5.01,-0.1377070428,0.07705789204
5.02,-0.1349098699,0.08207940514
5.03,-0.1319313352,0.08700625175
5.04,-0.1287742026,0.0918319532
5.05,-0.1254414652,0.09655008113
5.06,-0.1219363465,0.1011542655
5.07,-0.1182623018,0.1056382032
5.08,-0.1144230191,0.109995666
5.09,-0.1104224197,0.1142205102
5.1,-0.1062646584,0.118306685
5.11,-0.1019541234,0.1222482422
5.12,-0.09749543582,0.1260393454
5.13,-0.09289344857,0.12967428
5.14,-0.08815324512,0.1331474624
5.15,-0.08328013757,0.1364534507
5.16,-0.07827966441,0.1395869542
5.17,-0.0731575877,0.1425428438
5.18,-0.06791988975,0.1453161621
5.19,-0.06257276939,0.1479021337
5.2,-0.05712263762,0.1502961754
5.21,-0.05157611278,0.1524939068
5.22,-0.04594001517,0.1544911597
5.23,-0.04022136114,0.1562839893
5.24,-0.0344273566,0.1578686831
5.25,-0.02856539007,0.1592417716
5.26,-0.02264302507,0.1604000378
5.27,-0.01666799204,0.1613405265
5.28,-0.01064817968,0.1620605536
5.29,-0.004591625777,0.1625577155
5.3,0.001493492497,0.1628298973
5.31,0.007598868851,0.1628752815
5.32,0.01371607861,0.1626923561
5.33,0.01983658994,0.1622799217
5.34,0.02595177563,0.1616370995
5.35,0.03205292522,0.1607633376
5.36,0.03813125771,0.1596584171
5.37,0.0441779346,0.1583224584
5.38,0.05018407335,0.156755926
5.39,0.05614076131,0.1549596334
5.4,0.06203906985,0.1529347472
5.41,0.06787006902,0.1506827903
5.42,0.07362484228,0.1482056452
5.43,0.07929450172,0.1455055556
5.44,0.0848702034,0.1425851285
5.45,0.09034316291,0.1394473346
5.46,0.09570467113,0.1360955086
5.47,0.1009461101,0.1325333482
5.48,0.1060589691,0.1287649135
5.49,0.1110348605,0.1247946241
5.5,0.1158655362,0.1206272566
5.51,0.1205429033,0.1162679407
5.52,0.1250590404,0.1117221554
5.53,0.1294062136,0.1069957228
5.54,0.1335768921,0.1020948033
5.55,0.1375637639,0.09702588772
5.56,0.1413597514,0.09179579066
5.57,0.1449580264,0.08641164176
5.58,0.1483520252,0.0808808768
5.59,0.1515354631,0.0752112279
5.6,0.1545023484,0.069410713
5.61,0.1572469968,0.06348762461
5.62,0.1597640439,0.05745051789
5.63,0.1620484591,0.05130819796
5.64,0.164095557,0.04506970669
5.65,0.1659010099,0.03874430865
5.66,0.1674608587,0.03234147664
5.67,0.1687715237,0.02587087649
5.68,0.1698298143,0.01934235136
5.69,0.1706329385,0.01276590547
5.7,0.1711785113,0.006151687393
5.71,0.1714645627,-0.0004900272307
5.72,0.1714895444,-0.00714885329
5.73,0.1712523365,-0.01381431428
5.74,0.1707522527,-0.02047586071
5.75,0.1699890447,-0.02712288883
5.76,0.1689629063,-0.03374475963
5.77,0.1676744761,-0.04033081811
5.78,0.1661248396,-0.0468704127
5.79,0.1643155302,-0.05335291488
5.8,0.1622485293,-0.05976773885
5.81,0.1599262659,-0.06610436135
5.82,0.1573516145,-0.07235234142
5.83,0.1545278931,-0.07850134016
5.84,0.1514588591,-0.08454114045
5.85,0.1481487055,-0.09046166652
5.86,0.1446020549,-0.09625300335
5.87,0.1408239539,-0.1019054159
5.88,0.1368198656,-0.1074093682
5.89,0.1325956617,-0.1127555416
5.9,0.1281576135,-0.1179348537
5.91,0.1235123821,-0.1229384757
5.92,0.118667008,-0.1277578505
5.93,0.1136288993,-0.1323847091
5.94,0.10840582,-0.1368110878
5.95,0.1030058762,-0.1410293436
5.96,0.09743750297,-0.14503217
5.97,0.09170944964,-0.1488126118
5.98,0.08583076451,-0.1523640789
5.99,0.07981077906,-0.1556803599
6,0.07365909146,-0.1587556351
