"Freq [GHz]","re(S(Tx_p1,Tx_p1)) []","im(S(Tx_p1,Tx_p1)) []"
1,-0.02419980489,-0.221242395
1.01,-0.0318570925,-0.2198619496
1.02,-0.03947962145,-0.2182011533
1.03,-0.04705484329,-0.2162600044
1.04,-0.05457022984,-0.2140391666
1.05,-0.0620133064,-0.2115399608
1.06,-0.06937168418,-0.2087643551
1.07,-0.07663309205,-0.2057149545
1.08,-0.08378540743,-0.2023949885
1.09,-0.09081668626,-0.1988082977
1.1,-0.09771519222,-0.1949593195
1.11,-0.1044694248,-0.1908530725
1.12,-0.1110681465,-0.1864951397
1.13,-0.1175004092,-0.1818916507
1.14,-0.1237555787,-0.1770492629
1.15,-0.1298233593,-0.1719751419
1.16,-0.1356938162,-0.1666769407
1.17,-0.1413573975,-0.1611627782
1.18,-0.1468049542,-0.1554412169
1.19,-0.1520277597,-0.14952124
1.2,-0.1570175278,-0.1434122275
1.21,-0.161766429,-0.1371239317
1.22,-0.1662671064,-0.1306664527
1.23,-0.1705126892,-0.1240502125
1.24,-0.1744968057,-0.1172859294
1.25,-0.1782135946,-0.1103845915
1.26,-0.1816577149,-0.1033574306
1.27,-0.1848243549,-0.09621589479
1.28,-0.1877092389,-0.08897162188
1.29,-0.1903086337,-0.08163641209
1.3,-0.1926193528,-0.07422220091
1.31,-0.1946387597,-0.06674103192
1.32,-0.1963647699,-0.05920502969
1.33,-0.1977958515,-0.05162637282
1.34,-0.1989310242,-0.04401726715
1.35,-0.1997698575,-0.03638991925
1.36,-0.2003124673,-0.02875651021
1.37,-0.2005595113,-0.0211291698
1.38,-0.2005121836,-0.0135199511
1.39,-0.2001722072,-0.005940805511
1.4,-0.1995418263,0.001596441541
1.41,-0.1986237972,0.009080114462
1.42,-0.1974213776,0.01649871062
1.43,-0.1959383156,0.02384092281
1.44,-0.1941788373,0.03109566102
1.45,-0.1921476335,0.03825207337
1.46,-0.1898498455,0.04529956627
1.47,-0.1872910503,0.05222782373
1.48,-0.1844772443,0.05902682578
1.49,-0.1814148271,0.06568686597
1.5,-0.1781105841,0.0721985679
1.51,-0.1745716682,0.07855290082
1.52,-0.1708055817,0.08474119417
1.53,-0.1668201569,0.09075515118
1.54,-0.1626235362,0.09658686135
1.55,-0.1582241528,0.1022288119
1.56,-0.1536307095,0.1076738982
1.57,-0.1488521582,0.1129154331
1.58,-0.1438976789,0.117947155
1.59,-0.1387766586,0.1227632353
1.6,-0.1334986693,0.1273582841
1.61,-0.1280734473,0.1317273553
1.62,-0.1225108707,0.1358659507
1.63,-0.1168209389,0.1397700224
1.64,-0.1110137501,0.1434359749
1.65,-0.1050994806,0.1468606655
1.66,-0.09908836309,0.1500414042
1.67,-0.09299066621,0.1529759521
1.68,-0.0868166733,0.1556625192
1.69,-0.08057666221,0.1580997609
1.7,-0.07428088524,0.1602867738
1.71,-0.0679395494,0.1622230905
1.72,-0.06156279726,0.1639086735
1.73,-0.05516068822,0.1653439078
1.74,-0.04874318027,0.1665295937
1.75,-0.04232011239,0.1674669378
1.76,-0.03590118751,0.1681575438
1.77,-0.02949595609,0.1686034021
1.78,-0.0231138004,0.1688068795
1.79,-0.01676391945,0.1687707073
1.8,-0.01045531465,0.1684979694
1.81,-0.004196776196,0.16799209
1.82,0.002003129724,0.1672568201
1.83,0.00813607304,0.1662962241
1.84,0.01419397105,0.1651146658
1.85,0.02016899887,0.163716794
1.86,0.0260535991,0.1621075278
1.87,0.03184049063,0.1602920415
1.88,0.03752267662,0.1582757494
1.89,0.04309345166,0.1560642904
1.9,0.04854640804,0.1536635121
1.91,0.05387544129,0.1510794557
1.92,0.05907475476,0.1483183394
1.93,0.06413886348,0.1453865434
1.94,0.06906259713,0.1422905933
1.95,0.07384110225,0.1390371451
1.96,0.07846984362,0.1356329692
1.97,0.08294460489,0.1320849349
1.98,0.08726148842,0.1283999955
1.99,0.09141691444,0.1245851728
2,0.09540761936,0.1206475423
2.01,0.09923065353,0.1165942191
2.02,0.1028833782,0.1124323434
2.03,0.1063634619,0.1081690667
2.04,0.1096688763,0.1038115386
2.05,0.1127978911,0.09936689329
2.06,0.1157490688,0.09484223753
2.07,0.1185212586,0.09024463823
2.08,0.1211135903,0.0855811109
2.09,0.1235254668,0.08085860857
2.1,0.1257565574,0.0760840112
2.11,0.1278067894,0.07126411566
2.12,0.1296763404,0.06640562623
2.13,0.1313656298,0.06151514578
2.14,0.1328753098,0.05659916735
2.15,0.1342062568,0.05166406653
2.16,0.1353595618,0.04671609426
2.17,0.1363365211,0.04176137037
2.18,0.1371386269,0.03680587758
2.19,0.1377675574,0.03185545624
2.2,0.1382251673,0.02691579959
2.21,0.1385134776,0.02199244963
2.22,0.1386346663,0.01709079355
2.23,0.1385910582,0.01221606083
2.24,0.1383851154,0.007373320824
2.25,0.1380194276,0.00256748091
2.26,0.1374967025,-0.00219671476
2.27,0.1368197566,-0.006914686036
2.28,0.135991506,-0.011582017
2.29,0.1350149571,-0.01619445573
2.3,0.1338931982,-0.02074791353
2.31,0.132629391,-0.02523846381
2.32,0.1312267622,-0.0296623404
2.33,0.1296885955,-0.0340159356
2.34,0.1280182242,-0.03829579771
2.35,0.1262190241,-0.0424986283
2.36,0.1242944061,-0.0466212791
2.37,0.1222478101,-0.05066074859
2.38,0.1200826985,-0.05461417834
2.39,0.1178025509,-0.05847884906
2.4,0.1154108581,-0.06225217645
2.41,0.1129111179,-0.06593170686
2.42,0.11030683,-0.06951511279
2.43,0.107601492,-0.07300018825
2.44,0.1047985961,-0.07638484399
2.45,0.1019016251,-0.07966710273
2.46,0.09891405044,-0.08284509424
2.47,0.09583932913,-0.08591705049
2.48,0.09268090203,-0.08888130078
2.49,0.08944219219,-0.09173626688
2.5,0.08612660365,-0.09448045828
2.51,0.08273752068,-0.09711246753
2.52,0.0792783073,-0.09963096564
2.53,0.07575230725,-0.1020346977
2.54,0.07216284428,-0.1043224785
2.55,0.06851322275,-0.1064931888
2.56,0.06480672863,-0.1085457709
2.57,0.06104663066,-0.1104792258
2.58,0.05723618196,-0.112292609
2.59,0.05337862175,-0.1139850279
2.6,0.04947717738,-0.115555639
2.61,0.0455350666,-0.1170036448
2.62,0.04155549994,-0.1183282924
2.63,0.03754168335,-0.1195288709
2.64,0.03349682089,-0.1206047103
2.65,0.02942411761,-0.1215551799
2.66,0.02532678252,-0.1223796877
2.67,0.02120803153,-0.1230776796
2.68,0.01707109059,-0.1236486397
2.69,0.01291919868,-0.1240920898
2.7,0.008755610903,-0.1244075906
2.71,0.004583601494,-0.124594742
2.72,0.000406466742,-0.1246531848
2.73,-0.00377247214,-0.1245826021
2.74,-0.007949866284,-0.1243827213
2.75,-0.01212233657,-0.1240533162
2.76,-0.01628647122,-0.1235942096
2.77,-0.02043882352,-0.1230052767
2.78,-0.02457590986,-0.1222864474
2.79,-0.02869420791,-0.1214377105
2.8,-0.0327901551,-0.1204591171
2.81,-0.03686014738,-0.1193507849
2.82,-0.04090053827,-0.1181129018
2.83,-0.04490763824,-0.1167457311
2.84,-0.04887771437,-0.1152496155
2.85,-0.05280699044,-0.1136249824
2.86,-0.05669164731,-0.1118723482
2.87,-0.06052782374,-0.1099923242
2.88,-0.06431161749,-0.1079856208
2.89,-0.06803908699,-0.1058530536
2.9,-0.0717062532,-0.1035955481
2.91,-0.07530910208,-0.1012141452
2.92,-0.07884358735,-0.09871000634
2.93,-0.08230563369,-0.09608441902
2.94,-0.08569114041,-0.09333880164
2.95,-0.08899598549,-0.09047470881
2.96,-0.09221603005,-0.08749383619
2.97,-0.09534712325,-0.08439802537
2.98,-0.09838510757,-0.08118926847
2.99,-0.1013258246,-0.07786971256
3,-0.1041651209,-0.07444166388
3.01,-0.1068988547,-0.07090759179
3.02,-0.1095229029,-0.06727013235
3.03,-0.1120331677,-0.06353209174
3.04,-0.1144255848,-0.05969644922
3.05,-0.1166961308,-0.05576635976
3.06,-0.1188408316,-0.05174515634
3.07,-0.1208557708,-0.04763635175
3.08,-0.1227370984,-0.04344364003
3.09,-0.12448104,-0.03917089745
3.1,-0.1260839056,-0.03482218302
3.11,-0.1275420991,-0.03040173846
3.12,-0.1288521283,-0.02591398778
3.13,-0.1300106137,-0.02136353626
3.14,-0.1310142992,-0.0167551689
3.15,-0.1318600613,-0.01209384837
3.16,-0.1325449195,-0.007384712416
3.17,-0.1330660459,-0.00263307063
3.18,-0.1334207754,0.002155599249
3.19,-0.1336066154,0.006975655672
3.2,-0.1336212556,0.01182129816
3.21,-0.1334625779,0.01668657276
3.22,-0.1331286658,0.02156537808
3.23,-0.1326178139,0.02645147193
3.24,-0.131928537,0.03133847845
3.25,-0.131059579,0.03621989584
3.26,-0.1300099218,0.04108910471
3.27,-0.1287787931,0.04593937684
3.28,-0.1273656753,0.05076388457
3.29,-0.1257703123,0.05555571068
3.3,-0.1239927173,0.06030785875
3.31,-0.1220331792,0.06501326405
3.32,-0.1198922695,0.06966480481
3.33,-0.1175708476,0.07425531404
3.34,-0.1150700664,0.0787775917
3.35,-0.1123913772,0.0832244173
3.36,-0.1095365337,0.08758856281
3.37,-0.1065075959,0.09186280602
3.38,-0.1033069328,0.09603994414
3.39,-0.09993722534,0.1001128076
3.4,-0.09640146737,0.1040742745
3.41,-0.09270296731,0.1079172846
3.42,-0.08884534829,0.1116348541
3.43,-0.08483254779,0.1152200904
3.44,-0.08066881667,0.1186662067
3.45,-0.07635871728,0.1219665373
3.46,-0.07190712102,0.1251145523
3.47,-0.06731920499,0.1281038724
3.48,-0.06260044801,0.1309282842
3.49,-0.05775662584,0.1335817549
3.5,-0.05279380558,0.1360584471
3.51,-0.04771833946,0.1383527334
3.52,-0.04253685775,0.1404592105
3.53,-0.03725626095,0.142372714
3.54,-0.03188371131,0.1440883319
3.55,-0.02642662352,0.1456014183
3.56,-0.02089265475,0.1469076065
3.57,-0.01528969396,0.1480028224
3.58,-0.009625850523,0.1488832964
3.59,-0.003909442149,0.1495455757
3.6,0.001851017782,0.1499865356
3.61,0.007646833584,0.150203391
3.62,0.0134691412,0.1501937061
3.63,0.01930892275,0.1499554046
3.64,0.02515702159,0.149486779
3.65,0.03100415796,0.1487864988
3.66,0.03684094504,0.1478536188
3.67,0.04265790562,0.1466875855
3.68,0.04844548903,0.1452882442
3.69,0.05419408857,0.1436558443
3.7,0.05989405928,0.1417910441
3.71,0.06553573606,0.1396949145
3.72,0.07110945199,0.137368943
3.73,0.07660555699,0.134815035
3.74,0.08201443662,0.132035516
3.75,0.08732653106,0.1290331318
3.76,0.09253235423,0.1258110482
3.77,0.09762251296,0.1223728499
3.78,0.1025877262,0.1187225382
3.79,0.1074188441,0.114864528
3.8,0.1121068674,0.1108036441
3.81,0.1166429662,0.1065451157
3.82,0.1210184991,0.1020945713
3.83,0.1252250314,0.0974580314
3.84,0.1292543542,0.09264190134
3.85,0.1330985022,0.08765296254
3.86,0.1367497714,0.08249836313
3.87,0.140200737,0.07718560779
3.88,0.14344427,0.07172254653
3.89,0.146473554,0.06611736278
3.9,0.1492821014,0.06037856064
3.91,0.1518637687,0.05451495124
3.92,0.1542127717,0.04853563849
3.93,0.1563236995,0.04245000393
3.94,0.1581915287,0.03626769095
3.95,0.1598116359,0.0299985883
3.96,0.1611798102,0.02365281296
3.97,0.1622922648,0.01724069236
3.98,0.1631456473,0.010772746
3.99,0.1637370502,0.004259666637
4,0.1640640193,-0.002287699227
4.01,0.1641245622,-0.008858371161
4.02,0.1639171555,-0.01544125514
4.03,0.163440751,-0.02202516422
4.04,0.1626947813,-0.02859883962
4.05,0.1616791639,-0.03515097202
4.06,0.1603943048,-0.04167022314
4.07,0.1588411011,-0.04814524759
4.08,0.1570209421,-0.05456471477
4.09,0.1549357098,-0.06091733096
4.1,0.1525877785,-0.06719186142
4.11,0.149980013,-0.07337715258
4.12,0.1471157657,-0.07946215407
4.13,0.1439988735,-0.08543594079
4.14,0.1406336527,-0.09128773479
4.15,0.137024893,-0.09700692692
4.16,0.1331778514,-0.1025830984
4.17,0.1290982439,-0.1080060418
4.18,0.1247922372,-0.1132657822
4.19,0.1202664386,-0.1183525975
4.2,0.1155278855,-0.1232570384
4.21,0.1105840339,-0.1279699481
4.22,0.1054427456,-0.1324824813
4.23,0.1001122751,-0.136786123
4.24,0.09460125507,-0.140872706
4.25,0.08891868142,-0.1447344285
4.26,0.08307389717,-0.1483638704
4.27,0.07707657588,-0.1517540096
4.28,0.07093670417,-0.1548982367
4.29,0.06466456352,-0.1577903695
4.3,0.0582707115,-0.1604246667
4.31,0.05176596225,-0.1627958401
4.32,0.04516136649,-0.1648990667
4.33,0.03846819085,-0.1667299995
4.34,0.03169789684,-0.1682847772
4.35,0.02486211923,-0.1695600335
4.36,0.01797264407,-0.1705529046
4.37,0.01104138639,-0.1712610363
4.38,0.00408036745,-0.1716825902
4.39,-0.002898308124,-0.1718162481
4.4,-0.009882475563,-0.1716612161
4.41,-0.01685993327,-0.1712172275
4.42,-0.0238184663,-0.1704845441
4.43,-0.03074586989,-0.169463957
4.44,-0.03762997301,-0.1681567863
4.45,-0.04445866195,-0.1665648793
4.46,-0.05121990369,-0.164690608
4.47,-0.05790176932,-0.1625368654
4.48,-0.06449245711,-0.1601070609
4.49,-0.07098031549,-0.1574051142
4.5,-0.07735386566,-0.1544354485
4.51,-0.08360182392,-0.151202983
4.52,-0.08971312357,-0.1477131235
4.53,-0.09567693652,-0.1439717528
4.54,-0.1014826942,-0.1399852196
4.55,-0.1071201083,-0.1357603272
4.56,-0.1125791906,-0.1313043201
4.57,-0.1178502722,-0.1266248708
4.58,-0.1229240227,-0.121730065
4.59,-0.127791468,-0.1166283866
4.6,-0.1324440073,-0.1113287013
4.61,-0.1368734305,-0.1058402396
4.62,-0.1410719333,-0.1001725796
4.63,-0.1450321323,-0.09433562784
4.64,-0.1487470794,-0.08833960118
4.65,-0.1522102748,-0.08219500655
4.66,-0.1554156794,-0.07591262103
4.67,-0.1583577262,-0.06950347102
4.68,-0.1610313307,-0.06297881106
4.69,-0.1634319001,-0.05635010218
4.7,-0.1655553425,-0.04962898983
4.71,-0.1673980735,-0.04282728148
4.72,-0.1689570229,-0.03595692394
4.73,-0.1702296404,-0.02902998043
4.74,-0.1712138995,-0.02205860741
4.75,-0.1719083009,-0.01505503126
4.76,-0.1723118748,-0.008031524957
4.77,-0.1724241818,-0.001000384533
4.78,-0.1722453132,0.00602609432
4.79,-0.1717758901,0.01303563969
4.8,-0.171017061,0.02001602675
4.81,-0.1699704989,0.02695510094
4.82,-0.1686383974,0.03384080093
4.83,-0.1670234651,0.04066118139
4.84,-0.1651289197,0.04740443543
4.85,-0.1629584808,0.0540589167
4.86,-0.1605163617,0.06061316118
4.87,-0.1578072603,0.06705590847
4.88,-0.1548363489,0.07337612264
4.89,-0.1516092637,0.07956301263
4.9,-0.1481320924,0.08560605197
4.91,-0.1444113617,0.09149499808
4.92,-0.1404540238,0.09721991081
4.93,-0.1362674421,0.1027711704
4.94,-0.1318593759,0.1081394945
4.95,-0.1272379648,0.1133159552
4.96,-0.1224117119,0.1182919942
4.97,-0.1173894669,0.123059438
4.98,-0.112180408,0.1276105121
4.99,-0.1067940238,0.1319378541
5,-0.1012400941,0.1360345263
5.01,-0.09552867065,0.1398940271
5.02,-0.08967005721,0.1435103019
5.03,-0.0836747893,0.1468777524
5.04,-0.07755361351,0.1499912456
5.05,-0.07131746652,0.1528461214
5.06,-0.06497745387,0.1554381998
5.07,-0.05854482846,0.1577637865
5.08,-0.05203096892,0.1598196777
5.09,-0.04544735771,0.1616031642
5.1,-0.03880555932,0.1631120343
5.11,-0.03211719824,0.1643445755
5.12,-0.02539393707,0.1652995755
5.13,-0.01864745454,0.1659763225
5.14,-0.01188942374,0.1663746035
5.15,-0.005131490378,0.166494703
5.16,0.001614748686,0.1663373995
5.17,0.008337766782,0.1659039619
5.18,0.01502612845,0.1651961446
5.19,0.0216685102,0.1642161815
5.2,0.02825372087,0.1629667797
5.21,0.03477072166,0.1614511119
5.22,0.04120864575,0.1596728078
5.23,0.04755681739,0.1576359451
5.24,0.05380477056,0.1553450391
5.25,0.05994226712,0.1528050326
5.26,0.06595931429,0.1500212835
5.27,0.0718461817,0.146999553
5.28,0.07759341764,0.1437459926
5.29,0.08319186483,0.1402671302
5.3,0.08863267537,0.1365698561
5.31,0.09390732509,0.1326614078
5.32,0.09900762709,0.1285493547
5.33,0.1039257446,0.1242415825
5.34,0.1086542031,0.1197462759
5.35,0.1131859015,0.1150719027
5.36,0.1175141226,0.1102271956
5.37,0.1216325429,0.1052211351
5.38,0.1255352412,0.100062931
5.39,0.1292167071,0.09476200467
5.4,0.1326718473,0.08932796984
5.41,0.1358959928,0.0837706142
5.42,0.1388849036,0.07809988029
5.43,0.1416347737,0.07232584639
5.44,0.1441422347,0.06645870734
5.45,0.1464043586,0.06050875526
5.46,0.1484186598,0.05448636025
5.47,0.1501830963,0.04840195116
5.48,0.1516960697,0.04226599636
5.49,0.1529564253,0.03608898464
5.5,0.1539634496,0.02988140624
5.51,0.1547168694,0.02365373405
5.52,0.1552168476,0.01741640501
5.53,0.1554639803,0.01117980176
5.54,0.1554592914,0.00495423456
5.55,0.1552042279,-0.001250076462
5.56,0.1547006536,-0.007423018761
5.57,0.1539508422,-0.01355460441
5.58,0.1529574696,-0.01963498678
5.59,0.1517236062,-0.02565447672
5.6,0.1502527077,-0.03160355836
5.61,0.1485486058,-0.03747290438
5.62,0.146615498,-0.04325339079
5.63,0.1444579369,-0.04893611115
5.64,0.1420808193,-0.0545123903
5.65,0.1394893743,-0.05997379744
5.66,0.1366891511,-0.06531215868
5.67,0.1336860063,-0.07051956891
5.68,0.130486091,-0.07558840316
5.69,0.1270958371,-0.08051132718
5.7,0.1235219436,-0.08528130747
5.71,0.1197713626,-0.08989162061
5.72,0.1158512842,-0.09433586192
5.73,0.1117691225,-0.0986079534
5.74,0.1075325003,-0.1027021511
5.75,0.1031492336,-0.1066130516
5.76,0.0986273169,-0.110335598
5.77,0.09397490706,-0.1138650851
5.78,0.08920030813,-0.1171971639
5.79,0.08431195547,-0.1203278454
5.8,0.07931840007,-0.1232535037
5.81,0.07422829281,-0.1259708783
5.82,0.06905036871,-0.128477076
5.83,0.0637934313,-0.1307695721
5.84,0.058466337,-0.1328462103
5.85,0.05307797962,-0.1347052027
5.86,0.04763727499,-0.1363451291
5.87,0.04215314579,-0.1377649349
5.88,0.03663450652,-0.1389639292
5.89,0.03109024871,-0.1399417821
5.9,0.02552922636,-0.1406985209
5.91,0.01996024162,-0.1412345265
5.92,0.01439203083,-0.1415505286
5.93,0.00883325075,-0.1416476006
5.94,0.003292465243,-0.141527154
5.95,-0.00222186779,-0.1411909323
5.96,-0.007701409059,-0.1406410041
5.97,-0.01313795016,-0.1398797564
5.98,-0.01852342546,-0.1389098866
5.99,-0.02384992354,-0.1377343949
6,-0.02910969825,-0.1363565757
