"Freq [GHz]","re(S(Tx_p1,Tx_p1)) []","im(S(Tx_p1,Tx_p1)) []"
1,-0.05159117135,-0.1979295991
1.01,-0.0591383571,-0.1959874247
1.02,-0.06664155907,-0.1937406228
1.03,-0.07408671313,-0.1911890992
1.04,-0.08145972756,-0.1883334762
1.05,-0.08874651773,-0.1851750906
1.06,-0.09593304048,-0.1817159898
1.07,-0.1030053282,-0.1779589268
1.08,-0.1099495226,-0.173907353
1.09,-0.1167519079,-0.1695654111
1.1,-0.1233989434,-0.1649379249
1.11,-0.1298772962,-0.1600303891
1.12,-0.1361738722,-0.1548489572
1.13,-0.1422758475,-0.1494004279
1.14,-0.1481706988,-0.1436922306
1.15,-0.1538462321,-0.1377324093
1.16,-0.1592906124,-0.1315296058
1.17,-0.1644923908,-0.1250930408
1.18,-0.1694405316,-0.1184324947
1.19,-0.1741244384,-0.1115582869
1.2,-0.1785339788,-0.1044812538
1.21,-0.1826595084,-0.09721272643
1.22,-0.1864918935,-0.08976450602
1.23,-0.1900225327,-0.08214883969
1.24,-0.1932433776,-0.07437839463
1.25,-0.1961469515,-0.06646623151
1.26,-0.1987263678,-0.05842577724
1.27,-0.2009753468,-0.05027079685
1.28,-0.2028882304,-0.04201536472
1.29,-0.2044599968,-0.03367383524
1.3,-0.2056862727,-0.0252608128
1.31,-0.2065633448,-0.01679112136
1.32,-0.2070881695,-0.008279773522
1.33,-0.2072583813,0.000258060729
1.34,-0.2070722998,0.008807085662
1.35,-0.206528935,0.01735191164
1.36,-0.2056279917,0.02587708719
1.37,-0.2043698715,0.03436713112
1.38,-0.2027556746,0.04280656481
1.39,-0.2007871985,0.05117994439
1.4,-0.1984669369,0.05947189288
1.41,-0.195798076,0.06766713218
1.42,-0.1927844895,0.07575051488
1.43,-0.1894307329,0.08370705578
1.44,-0.1857420353,0.09152196305
1.45,-0.1817242904,0.09918066901
1.46,-0.1773840463,0.1066688605
1.47,-0.1727284933,0.1139725085
1.48,-0.1677654508,0.1210778977
1.49,-0.1625033529,0.1279716547
1.5,-0.1569512325,0.1346407758
1.51,-0.151118704,0.1410726547
1.52,-0.1450159456,0.147255108
1.53,-0.1386536793,0.1531764012
1.54,-0.1320431507,0.1588252729
1.55,-0.125196107,0.1641909583
1.56,-0.1181247747,0.1692632121
1.57,-0.1108418356,0.1740323294
1.58,-0.1033604022,0.1784891662
1.59,-0.0956939921,0.182625159
1.6,-0.08785650195,0.1864323421
1.61,-0.07986217988,0.1899033649
1.62,-0.07172559781,0.1930315075
1.63,-0.06346162286,0.1958106943
1.64,-0.05508538815,0.1982355076
1.65,-0.04661226307,0.2003011989
1.66,-0.03805782311,0.2020036992
1.67,-0.02943781917,0.2033396277
1.68,-0.02076814657,0.2043062993
1.69,-0.01206481377,0.2049017309
1.7,-0.003343910791,0.2051246456
1.71,0.00537842246,0.204974476
1.72,0.01408602802,0.2044513663
1.73,0.0227627617,0.203556172
1.74,0.03139252494,0.2022904592
1.75,0.03995929654,0.2006565018
1.76,0.0484471642,0.1986572776
1.77,0.05684035594,0.1962964629
1.78,0.06512327111,0.1935784257
1.79,0.07328051118,0.190508217
1.8,0.08129691003,0.1870915622
1.81,0.08915756376,0.183334849
1.82,0.09684786009,0.179245116
1.83,0.104353507,0.1748300386
1.84,0.1116605609,0.1700979144
1.85,0.1187554539,0.165057647
1.86,0.1256250205,0.1597187288
1.87,0.1322565233,0.1540912222
1.88,0.1386376782,0.1481857405
1.89,0.1447566779,0.1420134266
1.9,0.1506022155,0.1355859318
1.91,0.1561635064,0.1289153925
1.92,0.1614303091,0.1220144069
1.93,0.1663929452,0.1148960103
1.94,0.1710423183,0.1075736493
1.95,0.1753699315,0.1000611559
1.96,0.179367904,0.09237272008
1.97,0.1830289858,0.08452286251
1.98,0.1863465721,0.07652640569
1.99,0.1893147157,0.0683984453
2,0.1919281383,0.06015432058
2.01,0.1941822406,0.05180958443
2.02,0.1960731107,0.04337997303
2.03,0.1975975316,0.03488137518
2.04,0.1987529867,0.0263298013
2.05,0.1995376647,0.01774135229
2.06,0.1999504623,0.009132188142
2.07,0.1999909863,0.0005184965481
2.08,0.1996595534,-0.008083538551
2.09,0.1989571893,-0.01665776839
2.1,0.1978856261,-0.02518811067
2.11,0.1964472984,-0.03365858074
2.12,0.1946453381,-0.0420533225
2.13,0.1924835674,-0.05035663905
2.14,0.1899664912,-0.05855302297
2.15,0.1870992872,-0.0666271862
2.16,0.1838877956,-0.07456408948
2.17,0.1803385073,-0.08234897122
2.18,0.1764585499,-0.08996737584
2.19,0.172255674,-0.0974051814
2.2,0.1677382371,-0.1046486266
2.21,0.1629151867,-0.1116843371
2.22,0.1577960427,-0.1184993508
2.23,0.1523908777,-0.1250811425
2.24,0.1467102974,-0.1314176478
2.25,0.1407654189,-0.1374972855
2.26,0.1345678491,-0.1433089799
2.27,0.1281296612,-0.1488421808
2.28,0.1214633708,-0.1540868841
2.29,0.1145819111,-0.1590336497
2.3,0.1074986076,-0.1636736195
2.31,0.1002271514,-0.167998533
2.32,0.09278157231,-0.1720007434
2.33,0.08517621149,-0.1756732304
2.34,0.07742569297,-0.1790096137
2.35,0.06954489514,-0.1820041639
2.36,0.06154892158,-0.1846518126
2.37,0.05345307153,-0.1869481614
2.38,0.04527281007,-0.1888894889
2.39,0.03702373793,-0.1904727572
2.4,0.02872156125,-0.1916956164
2.41,0.020382061,-0.1925564083
2.42,0.01202106244,-0.1930541678
2.43,0.003654404525,-0.1931886243
2.44,-0.004702090713,-0.1929602006
2.45,-0.01303264863,-0.192370011
2.46,-0.0213215723,-0.1914198576
2.47,-0.02955327269,-0.1901122264
2.48,-0.03771229847,-0.1884502801
2.49,-0.04578336557,-0.1864378519
2.5,-0.05375138634,-0.184079436
2.51,-0.06160149823,-0.1813801781
2.52,-0.06931909202,-0.1783458642
2.53,-0.07688983948,-0.1749829081
2.54,-0.08429972042,-0.1712983379
2.55,-0.09153504908,-0.1672997812
2.56,-0.09858249984,-0.1629954494
2.57,-0.1054291321,-0.1583941202
2.58,-0.1120624146,-0.1535051202
2.59,-0.1184702483,-0.1483383053
2.6,-0.1246409893,-0.142904041
2.61,-0.1305634699,-0.1372131811
2.62,-0.1362270193,-0.1312770459
2.63,-0.1416214828,-0.1251073994
2.64,-0.1467372407,-0.1187164258
2.65,-0.151565225,-0.1121167048
2.66,-0.1560969364,-0.1053211871
2.67,-0.1603244586,-0.09834316828
2.68,-0.1642404728,-0.09119626245
2.69,-0.1678382703,-0.08389437557
2.7,-0.1711117638,-0.07645167789
2.71,-0.1740554977,-0.06888257619
2.72,-0.1766646577,-0.06120168552
2.73,-0.1789350777,-0.05342380061
2.74,-0.1808632469,-0.04556386706
2.75,-0.1824463149,-0.03763695226
2.76,-0.1836820953,-0.02965821615
2.77,-0.1845690687,-0.02164288187
2.78,-0.1851063839,-0.01360620642
2.79,-0.1852938578,-0.005563451232
2.8,-0.1851319742,0.002470147122
2.81,-0.1846218814,0.01047940611
2.82,-0.183765388,0.01844922627
2.83,-0.1825649581,0.02636461994
2.84,-0.1810237047,0.03421073979
2.85,-0.1791453825,0.04197290692
2.86,-0.1769343786,0.0496366386
2.87,-0.1743957026,0.05718767557
2.88,-0.1715349756,0.06461200877
2.89,-0.1683584178,0.07189590562
2.9,-0.1648728348,0.07902593557
2.91,-0.1610856032,0.08598899511
2.92,-0.157004655,0.09277233201
2.93,-0.1526384609,0.09936356883
2.94,-0.1479960125,0.1057507257
2.95,-0.143086804,0.111922242
2.96,-0.1379208123,0.1178669978
2.97,-0.1325084769,0.1235743336
2.98,-0.1268606785,0.1290340695
2.99,-0.120988717,0.1342365238
3,-0.1149042887,0.1391725298
3.01,-0.1086194629,0.1438334518
3.02,-0.1021466577,0.1482112007
3.03,-0.09549861525,0.1522982476
3.04,-0.08868837656,0.1560876367
3.05,-0.08172925565,0.1595729968
3.06,-0.07463481334,0.1627485526
3.07,-0.06741883059,0.1656091329
3.08,-0.06009528158,0.1681501801
3.09,-0.05267830637,0.1703677558
3.1,-0.04518218343,0.1722585479
3.11,-0.03762130197,0.173819874
3.12,-0.03001013409,0.1750496854
3.13,-0.02236320689,0.1759465692
3.14,-0.01469507456,0.1765097485
3.15,-0.007020290508,0.1767390829
3.16,0.0006466204644,0.1766350662
3.17,0.008291189785,0.1761988241
3.18,0.01589903259,0.1754321097
3.19,0.02345587495,0.1743372989
3.2,0.03094758076,0.1729173834
3.21,0.03836017833,0.1711759636
3.22,0.04567988655,0.1691172397
3.23,0.05289314062,0.1667460019
3.24,0.05998661726,0.1640676196
3.25,0.06694725943,0.1610880293
3.26,0.07376230037,0.1578137214
3.27,0.08041928709,0.1542517267
3.28,0.08690610319,0.1504096007
3.29,0.09321099086,0.1462954079
3.3,0.09932257221,0.1419177049
3.31,0.1052298698,0.1372855223
3.32,0.1109223264,0.1324083465
3.33,0.1163898235,0.1272960998
3.34,0.1216226997,0.1219591203
3.35,0.1266117671,0.1164081408
3.36,0.1313483279,0.1106542675
3.37,0.1358241889,0.1047089571
3.38,0.140031676,0.09858399441
3.39,0.1439636468,0.09229146855
3.4,0.1476135024,0.08584374915
3.41,0.1509751989,0.07925346187
3.42,0.1540432564,0.07253346355
3.43,0.1568127678,0.06569681705
3.44,0.1592794067,0.05875676573
3.45,0.1614394332,0.05172670769
3.46,0.1632896996,0.04462016981
3.47,0.1648276541,0.0374507816
3.48,0.1660513439,0.03023224898
3.49,0.166959417,0.02297832799
3.5,0.1675511226,0.01570279847
3.51,0.167826311,0.008419437849
3.52,0.1677854314,0.00114199493
3.53,0.1674295294,-0.006115836085
3.54,0.1667602429,-0.01334044143
3.55,0.1657797973,-0.02051831337
3.56,0.1644909989,-0.02763607544
3.57,0.1628972281,-0.03468050747
3.58,0.1610024309,-0.04163857008
3.59,0.1588111094,-0.04849742887
3.6,0.1563283115,-0.05524447806
3.61,0.1535596196,-0.0618673636
3.62,0.1505111382,-0.06835400584
3.63,0.1471894804,-0.07469262143
3.64,0.1436017539,-0.08087174468
3.65,0.1397555458,-0.08688024826
3.66,0.1356589062,-0.09270736309
3.67,0.1313203323,-0.09834269758
3.68,0.1267487496,-0.103776256
3.69,0.1219534946,-0.108998456
3.7,0.1169442951,-0.1140001457
3.71,0.1117312507,-0.1187726189
3.72,0.1063248123,-0.1233076307
3.73,0.1007357611,-0.1275974112
3.74,0.09497518716,-0.1316346785
3.75,0.08905446731,-0.135412651
3.76,0.08298524264,-0.1389250585
3.77,0.07677939555,-0.1421661521
3.78,0.07044902648,-0.1451307136
3.79,0.06400643023,-0.1478140631
3.8,0.05746407208,-0.1502120662
3.81,0.05083456362,-0.1523211402
3.82,0.04413063839,-0.1541382585
3.83,0.03736512742,-0.1556609546
3.84,0.03055093464,-0.1568873247
3.85,0.02370101221,-0.1578160294
3.86,0.01682833594,-0.1584462944
3.87,0.009945880702,-0.1587779097
3.88,0.003066595875,-0.1588112282
3.89,-0.003796618946,-0.1585471629
3.9,-0.01063093815,-0.1579871834
3.91,-0.01742363407,-0.1571333111
3.92,-0.0241621006,-0.1559881131
3.93,-0.03083387661,-0.1545546961
3.94,-0.0374266689,-0.152836698
3.95,-0.04392837478,-0.1508382794
3.96,-0.05032710424,-0.1485641141
3.97,-0.05661120161,-0.1460193779
3.98,-0.06276926666,-0.1432097377
3.99,-0.06879017521,-0.1401413387
4,-0.07466309907,-0.1368207909
4.01,-0.08037752544,-0.1332551557
4.02,-0.08592327549,-0.1294519302
4.03,-0.09129052243,-0.1254190319
4.04,-0.09646980869,-0.1211647823
4.05,-0.1014520624,-0.1166978897
4.06,-0.1062286131,-0.1120274313
4.07,-0.1107912065,-0.107162835
4.08,-0.1151320188,-0.1021138601
4.09,-0.1192436696,-0.09689057821
4.1,-0.123119234,-0.0915033526
4.11,-0.1267522545,-0.08596281803
4.12,-0.1301367511,-0.08027985964
4.13,-0.1332672306,-0.0744655916
4.14,-0.1361386958,-0.06853133532
4.15,-0.1387466525,-0.06248859748
4.16,-0.1410871161,-0.05634904771
4.17,-0.1431566179,-0.05012449601
4.18,-0.1449522088,-0.04382687014
4.19,-0.1464714636,-0.0374681927
4.2,-0.1477124835,-0.03106055824
4.21,-0.1486738975,-0.02461611028
4.22,-0.1493548632,-0.01814701831
4.23,-0.1497550665,-0.01166545487
4.24,-0.1498747202,-0.005183572678
4.25,-0.1497145615,0.001286518105
4.26,-0.1492758488,0.007732772437
4.27,-0.1485603575,0.01414323275
4.28,-0.1475703747,0.02050605108
4.29,-0.1463086928,0.02680951083
4.3,-0.1447786027,0.03304204832
4.31,-0.1429838857,0.03919227385
4.32,-0.1409288043,0.04524899242
4.33,-0.138618093,0.05120122402
4.34,-0.136056947,0.05703822335
4.35,-0.1332510112,0.0627494991
4.36,-0.1302063679,0.0683248327
4.37,-0.1269295236,0.07375429637
4.38,-0.1234273953,0.07902827068
4.39,-0.119707296,0.08413746139
4.4,-0.1157769198,0.08907291563
4.41,-0.1116443255,0.09382603737
4.42,-0.1073179206,0.09838860222
4.43,-0.1028064441,0.1027527713
4.44,-0.09811894907,0.1069111047
4.45,-0.09326478417,0.1108565736
4.46,-0.08825357539,0.1145825721
4.47,-0.08309520686,0.1180829277
4.48,-0.0777998014,0.1213519117
4.49,-0.07237770071,0.1243842477
4.5,-0.06683944522,0.1271751201
4.51,-0.0611957536,0.1297201811
4.52,-0.05545750208,0.1320155574
4.53,-0.04963570355,0.1340578553
4.54,-0.04374148642,0.1358441653
4.55,-0.03778607344,0.1373720659
4.56,-0.03178076034,0.138639626
4.57,-0.02573689451,0.1396454068
4.58,-0.01966585358,0.1403884625
4.59,-0.01357902407,0.1408683405
4.6,-0.007487780114,0.1410850798
4.61,-0.001403462285,0.1410392095
4.62,0.00466264345,0.1407317459
4.63,0.01069932657,0.1401641886
4.64,0.01669547261,0.139338516
4.65,0.02264008354,0.1382571793
4.66,0.02852229784,0.1369230971
4.67,0.03433141017,0.1353396472
4.68,0.04005689079,0.1335106589
4.69,0.04568840449,0.1314404043
4.7,0.05121582907,0.1291335884
4.71,0.05662927344,0.1265953389
4.72,0.06191909511,0.1238311946
4.73,0.06707591722,0.120847094
4.74,0.07209064498,0.1176493624
4.75,0.07695448148,0.1142446987
4.76,0.08165894299,0.1106401615
4.77,0.08619587347,0.1068431545
4.78,0.09055745853,0.1028614115
4.79,0.09473623864,0.09870298079
4.8,0.09872512162,0.09437620861
4.81,0.1025173945,0.08988972286
4.82,0.1061067343,0.08525241575
4.83,0.1094872185,0.08047342631
4.84,0.1126533347,0.0755621224
4.85,0.1155999887,0.07052808242
4.86,0.1183225126,0.0653810767
4.87,0.1208166723,0.06013104855
4.88,0.1230786728,0.05478809515
4.89,0.1251051643,0.04936244818
4.9,0.1268932463,0.04386445426
4.91,0.1284404713,0.03830455532
4.92,0.1297448477,0.0326932688
4.93,0.1308048414,0.02704116784
4.94,0.1316193773,0.02135886144
4.95,0.1321878392,0.0156569746
4.96,0.1325100694,0.00994612855
4.97,0.1325863666,0.004236921064
4.98,0.1324174845,-0.001460093141
4.99,0.1320046277,-0.007134421803
5,0.1313494484,-0.01277565433
5.01,0.1304540411,-0.01837348081
5.02,0.1293209372,-0.0239177107
5.03,0.1279530984,-0.02939829129
5.04,0.12635391,-0.03480532577
5.05,0.1245271724,-0.04012909099
5.06,0.1224770925,-0.04536005475
5.07,0.1202082748,-0.05048889276
5.08,0.1177257105,-0.05550650508
5.09,0.1150347677,-0.06040403209
5.1,0.1121411789,-0.06517286995
5.11,0.1090510298,-0.0698046855
5.12,0.1057707463,-0.07429143069
5.13,0.1023070811,-0.07862535627
5.14,0.09866710021,-0.082799025
5.15,0.09485816849,-0.08680532416
5.16,0.09088793481,-0.09063747746
5.17,0.08676431679,-0.09428905618
5.18,0.08249548512,-0.09775398974
5.19,0.07808984742,-0.1010265755
5.2,0.07355603173,-0.1041014878
5.21,0.06890286972,-0.1069737863
5.22,0.06413937949,-0.1096389237
5.23,0.05927474823,-0.1120927525
5.24,0.05431831451,-0.114331531
5.25,0.04927955045,-0.1163519287
5.26,0.04416804366,-0.1181510309
5.27,0.03899347907,-0.119726342
5.28,0.03376562069,-0.121075789
5.29,0.02849429322,-0.1221977233
5.3,0.02318936366,-0.1230909222
5.31,0.01786072295,-0.1237545893
5.32,0.01251826763,-0.1241883542
5.33,0.007171881484,-0.124392272
5.34,0.001831417432,-0.1243668207
5.35,-0.003493320581,-0.1241128992
5.36,-0.008792595452,-0.1236318239
5.37,-0.01405675462,-0.1229253243
5.38,-0.01927624751,-0.1219955383
5.39,-0.02444164278,-0.1208450068
5.4,-0.02954364515,-0.1194766672
5.41,-0.03457311208,-0.1178938462
5.42,-0.03952106992,-0.1161002527
5.43,-0.04437872984,-0.1140999686
5.44,-0.04913750322,-0.1118974407
5.45,-0.05378901669,-0.1094974701
5.46,-0.05832512667,-0.1069052026
5.47,-0.06273793345,-0.1041261176
5.48,-0.06701979476,-0.1011660167
5.49,-0.07116333876,-0.09803101162
5.5,-0.07516147654,-0.09472751172
5.51,-0.07900741401,-0.0912622111
5.52,-0.08269466322,-0.08764207505
5.53,-0.08621705303,-0.08387432614
5.54,-0.0895687392,-0.0799664299
5.55,-0.09274421378,-0.0759260801
5.56,-0.09573831391,-0.07176118369
5.57,-0.09854622988,-0.06747984535
5.58,-0.1011635125,-0.06309035184
5.59,-0.10358608,-0.05860115601
5.6,-0.1058102236,-0.05402086057
5.61,-0.1078326134,-0.0493582017
5.62,-0.1096503024,-0.04462203245
5.63,-0.1112607307,-0.03982130598
5.64,-0.1126617285,-0.03496505877
5.65,-0.1138515185,-0.03006239361
5.66,-0.1148287174,-0.02512246269
5.67,-0.1155923373,-0.02015445053
5.68,-0.1161417852,-0.01516755708
5.69,-0.116476863,-0.0101709807
5.7,-0.1165977663,-0.005173901322
5.71,-0.1165050818,-0.0001854637048
5.72,-0.1161997854,0.004785239214
5.73,-0.1156832382,0.009729182766
5.74,-0.1149571828,0.01463742681
5.75,-0.1140237383,0.01950113179
5.76,-0.1128853951,0.02431157449
5.77,-0.1115450086,0.02906016356
5.78,-0.1100057925,0.0337384547
5.79,-0.1082713116,0.03833816551
5.8,-0.1063454737,0.04285119001
5.81,-0.1042325208,0.04726961274
5.82,-0.1019370207,0.05158572246
5.83,-0.0994638562,0.05579202543
5.84,-0.0968182159,0.05988125821
5.85,-0.09400558282,0.06384639998
5.86,-0.09103172337,0.06768068444
5.87,-0.08790267559,0.07137761105
5.88,-0.08462473699,0.07493095586
5.89,-0.08120445198,0.07833478176
5.9,-0.07764859887,0.08158344809
5.91,-0.07396417651,0.08467161974
5.92,-0.07015839061,0.08759427567
5.93,-0.0662386397,0.09034671669
5.94,-0.06221250081,0.09292457279
5.95,-0.05808771493,0.09532380971
5.96,-0.05387217218,0.09754073492
5.97,-0.04957389675,0.09957200293
5.98,-0.04520103177,0.1014146199
5.99,-0.04076182392,0.1030659479
6,-0.03626460794,0.1045237077
