"Freq [GHz]","re(S(Tx_p1,Tx_p1)) []","im(S(Tx_p1,Tx_p1)) []"
1,0.01168566796,-0.2442557914
1.01,0.003880528207,-0.2441863768
1.02,-0.003945727996,-0.2438631732
1.03,-0.01178272615,-0.2432836518
1.04,-0.01962001438,-0.242445827
1.05,-0.02744708965,-0.2413482493
1.06,-0.0352534233,-0.2399899993
1.07,-0.04302848576,-0.2383706795
1.08,-0.0507617705,-0.2364904061
1.09,-0.05844281723,-0.2343497995
1.1,-0.06606123422,-0.2319499745
1.11,-0.0736067198,-0.2292925297
1.12,-0.08106908309,-0.2263795361
1.13,-0.08843826382,-0.2232135253
1.14,-0.09570435127,-0.2197974769
1.15,-0.1028576024,-0.2161348057
1.16,-0.109888459,-0.2122293483
1.17,-0.1167875643,-0.2080853486
1.18,-0.1235457778,-0.2037074444
1.19,-0.1301541908,-0.1991006519
1.2,-0.136604139,-0.194270351
1.21,-0.1428872161,-0.1892222703
1.22,-0.1489952855,-0.1839624711
1.23,-0.1549204911,-0.1784973318
1.24,-0.1606552678,-0.1728335324
1.25,-0.1661923506,-0.166978038
1.26,-0.1715247833,-0.1609380829
1.27,-0.176645926,-0.1547211548
1.28,-0.1815494619,-0.1483349782
1.29,-0.1862294034,-0.1417874986
1.3,-0.1906800974,-0.1350868663
1.31,-0.19489623,-0.1282414208
1.32,-0.1988728298,-0.1212596746
1.33,-0.2026052713,-0.1141502978
1.34,-0.2060892773,-0.1069221027
1.35,-0.2093209202,-0.09958402834
1.36,-0.2122966237,-0.09214512566
1.37,-0.2150131626,-0.08461454274
1.38,-0.2174676633,-0.07700151034
1.39,-0.2196576022,-0.0693153277
1.4,-0.2215808057,-0.06156534873
1.41,-0.2232354472,-0.05376096852
1.42,-0.2246200458,-0.04591161013
1.43,-0.2257334634,-0.03802671182
1.44,-0.2265749013,-0.03011571461
1.45,-0.2271438972,-0.0221880502
1.46,-0.2274403212,-0.0142531293
1.47,-0.2274643718,-0.00632033035
1.48,-0.2272165711,0.001601011416
1.49,-0.2266977604,0.009501614472
1.5,-0.2259090953,0.01737226114
1.51,-0.2248520403,0.02520380731
1.52,-0.2235283636,0.03298719186
1.53,-0.2219401311,0.04071344557
1.54,-0.2200897016,0.04837369982
1.55,-0.21797972,0.05595919476
1.56,-0.215613112,0.06346128731
1.57,-0.2129930777,0.07087145864
1.58,-0.2101230859,0.07818132146
1.59,-0.2070068675,0.08538262691
1.6,-0.2036484098,0.09246727117
1.61,-0.2000519498,0.09942730178
1.62,-0.1962219684,0.1062549237
1.63,-0.192163184,0.112942505
1.64,-0.1878805465,0.1194825826
1.65,-0.1833792307,0.1258678674
1.66,-0.1786646306,0.1320912491
1.67,-0.1737423532,0.1381458018
1.68,-0.1686182121,0.1440247881
1.69,-0.163298222,0.1497216637
1.7,-0.1577885923,0.1552300819
1.71,-0.1520957214,0.1605438979
1.72,-0.1462261905,0.1656571727
1.73,-0.1401867581,0.1705641772
1.74,-0.133984354,0.1752593962
1.75,-0.1276260733,0.179737532
1.76,-0.121119171,0.1839935083
1.77,-0.1144710561,0.1880224737
1.78,-0.1076892856,0.1918198056
1.79,-0.100781559,0.1953811135
1.8,-0.09375571262,0.1987022426
1.81,-0.08661971343,0.2017792774
1.82,-0.07938165361,0.2046085453
1.83,-0.07204974451,0.2071866196
1.84,-0.06463231072,0.2095103235
1.85,-0.05713778415,0.2115767331
1.86,-0.04957469788,0.2133831811
1.87,-0.04195168005,0.2149272601
1.88,-0.03427744756,0.2162068259
1.89,-0.02656079967,0.2172200009
1.9,-0.01881061149,0.2179651777
1.91,-0.01103582727,0.2184410219
1.92,-0.003245453623,0.2186464759
1.93,0.004551447531,0.2185807616
1.94,0.01234576611,0.218243384
1.95,0.02012835127,0.2176341341
1.96,0.02789001893,0.2167530918
1.97,0.03562155961,0.2156006291
1.98,0.04331374641,0.2141774125
1.99,0.0509573432,0.2124844061
2,0.05854311313,0.2105228739
2.01,0.06606182726,0.2082943822
2.02,0.07350427352,0.2058008019
2.03,0.08086126588,0.2030443103
2.04,0.08812365374,0.2000273932
2.05,0.09528233158,0.1967528463
2.06,0.1023282489,0.1932237764
2.07,0.1092524201,0.1894436026
2.08,0.1160459354,0.1854160572
2.09,0.1226999707,0.1811451856
2.1,0.129205799,0.176635347
2.11,0.1355548009,0.1718912136
2.12,0.1417384762,0.1669177706
2.13,0.1477484551,0.1617203144
2.14,0.1535765098,0.1563044517
2.15,0.159214566,0.1506760975
2.16,0.1646547154,0.1448414725
2.17,0.1698892266,0.1388071006
2.18,0.1749105584,0.1325798055
2.19,0.1797113709,0.1261667068
2.2,0.1842845383,0.1195752157
2.21,0.1886231609,0.1128130301
2.22,0.1927205774,0.1058881294
2.23,0.1965703773,0.09880876825
2.24,0.2001664125,0.09158347007
2.25,0.2035028102,0.08422102003
2.26,0.2065739842,0.07673045725
2.27,0.2093746469,0.06912106654
2.28,0.2118998214,0.06140236949
2.29,0.2141448524,0.05358411497
2.3,0.2161054179,0.04567626908
2.31,0.2177775397,0.03768900444
2.32,0.2191575947,0.02963268893
2.33,0.2202423246,0.02151787382
2.34,0.2210288465,0.01335528133
2.35,0.221514662,0.005155791676
2.36,0.2216976665,-0.00306957058
2.37,0.221576158,-0.01130965057
2.38,0.2211488454,-0.01955317778
2.39,0.2204148557,-0.0277887812
2.4,0.2193737414,-0.03600500496
2.41,0.2180254872,-0.04419032447
2.42,0.2163705154,-0.05233316294
2.43,0.2144096916,-0.06042190837
2.44,0.212144329,-0.06844493097
2.45,0.2095761921,-0.07639060086
2.46,0.2067075002,-0.08424730621
2.47,0.2035409295,-0.09200347155
2.48,0.2000796145,-0.09964757653
2.49,0.1963271493,-0.1071681747
2.5,0.1922875869,-0.1145539128
2.51,0.1879654389,-0.1217935497
2.52,0.1833656733,-0.1288759763
2.53,0.1784937122,-0.1357902342
2.54,0.1733554281,-0.1425255361
2.55,0.1679571396,-0.1490712847
2.56,0.1623056061,-0.1554170923
2.57,0.1564080217,-0.1615528004
2.58,0.1502720081,-0.1674684985
2.59,0.1439056064,-0.1731545435
2.6,0.1373172686,-0.1786015784
2.61,0.1305158473,-0.1838005511
2.62,0.1235105856,-0.1887427321
2.63,0.1163111049,-0.193419733
2.64,0.1089273931,-0.1978235236
2.65,0.1013697909,-0.2019464491
2.66,0.09364897745,-0.2057812467
2.67,0.08577595607,-0.2093210612
2.68,0.0777620379,-0.212559461
2.69,0.06961882555,-0.2154904524
2.7,0.06135819582,-0.2181084942
2.71,0.05299228162,-0.2204085105
2.72,0.0445334533,-0.2223859041
2.73,0.03599429922,-0.2240365677
2.74,0.02738760578,-0.2253568956
2.75,0.01872633679,-0.2263437933
2.76,0.01002361233,-0.2269946877
2.77,0.001292687062,-0.2273075344
2.78,-0.007453071878,-0.2272808262
2.79,-0.01620020747,-0.226913599
2.8,-0.02493519576,-0.2262054376
2.81,-0.03364446914,-0.2251564801
2.82,-0.04231443989,-0.2237674213
2.83,-0.05093152407,-0.2220395152
2.84,-0.05948216542,-0.2199745763
2.85,-0.06795285958,-0.2175749797
2.86,-0.07633017826,-0.2148436606
2.87,-0.08460079353,-0.211784112
2.88,-0.09275150206,-0.2084003818
2.89,-0.1007692492,-0.2046970686
2.9,-0.1086411533,-0.2006793165
2.91,-0.116354529,-0.1963528084
2.92,-0.1238969116,-0.1917237592
2.93,-0.1312560797,-0.1867989064
2.94,-0.1384200787,-0.1815855011
2.95,-0.1453772432,-0.1760912969
2.96,-0.1521162192,-0.1703245384
2.97,-0.1586259856,-0.1642939481
2.98,-0.1648958755,-0.158008713
2.99,-0.1709155968,-0.1514784694
3,-0.1766752519,-0.1447132875
3.01,-0.1821653569,-0.1377236546
3.02,-0.1873768603,-0.1305204574
3.03,-0.1923011602,-0.1231149641
3.04,-0.1969301218,-0.1155188043
3.05,-0.2012560926,-0.10774395
3.06,-0.2052719183,-0.09980269395
3.07,-0.2089709565,-0.09170762871
3.08,-0.2123470899,-0.08347162438
3.09,-0.2153947388,-0.07510780587
3.1,-0.2181088717,-0.0666295296
3.11,-0.2204850161,-0.05805035972
3.12,-0.222519267,-0.04938404382
3.13,-0.224208295,-0.04064448828
3.14,-0.2255493531,-0.0318457332
3.15,-0.2265402824,-0.02300192709
3.16,-0.2271795165,-0.01412730128
3.17,-0.2274660848,-0.005236144096
3.18,-0.2273996149,0.003657225011
3.19,-0.2269803334,0.0125384815
3.2,-0.2262090656,0.02139332177
3.21,-0.2250872344,0.03020748916
3.22,-0.2236168575,0.03896679984
3.23,-0.2218005438,0.04765716862
3.24,-0.2196414884,0.05626463452
3.25,-0.2171434666,0.06477538607
3.26,-0.2143108267,0.07317578632
3.27,-0.2111484817,0.08145239752
3.28,-0.2076618997,0.08959200534
3.29,-0.2038570937,0.09758164262
3.3,-0.1997406097,0.1054086127
3.31,-0.1953195144,0.1130605119
3.32,-0.1906013813,0.120525252
3.33,-0.1855942763,0.1277910811
3.34,-0.180306742,0.1348466048
3.35,-0.1747477818,0.141680806
3.36,-0.1689268417,0.1482830638
3.37,-0.162853793,0.1546431724
3.38,-0.1565389131,0.1607513581
3.39,-0.1499928658,0.166598296
3.4,-0.1432266811,0.1721751257
3.41,-0.1362517339,0.1774734661
3.42,-0.129079723,0.1824854289
3.43,-0.1217226484,0.1872036313
3.44,-0.1141927888,0.1916212077
3.45,-0.1065026788,0.1957318202
3.46,-0.09866508505,0.1995296685
3.47,-0.09069298243,0.2030094976
3.48,-0.08259953012,0.2061666058
3.49,-0.07439804703,0.2089968506
3.5,-0.06610198728,0.2114966537
3.51,-0.0577249155,0.2136630052
3.52,-0.04928048199,0.2154934664
3.53,-0.04078239792,0.2169861713
3.54,-0.03224441055,0.2181398275
3.55,-0.02368027842,0.2189537153
3.56,-0.01510374685,0.2194276866
3.57,-0.006528523448,0.2195621618
3.58,0.002031746057,0.2193581259
3.59,0.01056350173,0.2188171242
3.6,0.01905329301,0.2179412558
3.61,0.02748780193,0.216733167
3.62,0.03585386591,0.2151960433
3.63,0.04413850006,0.2133336004
3.64,0.05232891901,0.2111500745
3.65,0.0604125582,0.2086502115
3.66,0.0683770945,0.2058392552
3.67,0.07621046631,0.2027229349
3.68,0.08390089292,0.1993074522
3.69,0.09143689321,0.1955994664
3.7,0.09880730358,0.1916060802
3.71,0.1060012952,0.1873348239
3.72,0.1130083903,0.1827936388
3.73,0.119818478,0.177990861
3.74,0.1264218287,0.1729352034
3.75,0.1328091083,0.1676357378
3.76,0.1389713912,0.1621018766
3.77,0.1449001722,0.1563433537
3.78,0.1505873777,0.150370205
3.79,0.1560253764,0.1441927489
3.8,0.1612069882,0.1378215662
3.81,0.1661254928,0.1312674795
3.82,0.1707746373,0.1245415332
3.83,0.1751486423,0.1176549721
3.84,0.179242208,0.1106192211
3.85,0.1830505184,0.1034458638
3.86,0.1865692454,0.09614662175
3.87,0.1897945509,0.08873333341
3.88,0.1927230895,0.08121793302
3.89,0.1953520084,0.07361242983
3.9,0.1976789481,0.06592888726
3.91,0.1997020413,0.05817940235
3.92,0.2014199109,0.05037608529
3.93,0.2028316677,0.04253103928
3.94,0.2039369064,0.03465634065
3.95,0.2047357019,0.02676401928
3.96,0.2052286036,0.01886603935
3.97,0.2054166298,0.01097428053
3.98,0.205301261,0.00310051955
3.99,0.2048844326,-0.004743587809
4,0.2041685267,-0.01254652421
4.01,0.2031563632,-0.0202969278
4.02,0.201851191,-0.02798360864
4.03,0.2002566773,-0.03559556475
4.04,0.1983768975,-0.04312199739
4.05,0.196216324,-0.0505523259
4.06,0.1937798145,-0.05787620189
4.07,0.1910725999,-0.06508352277
4.08,0.1881002718,-0.07216444469
4.09,0.1848687696,-0.07910939484
4.1,0.181384367,-0.08590908304
4.11,0.1776536585,-0.09255451271
4.12,0.1736835452,-0.09903699112
4.13,0.1694812208,-0.105348139
4.14,0.1650541569,-0.1114798996
4.15,0.1604100883,-0.1174245465
4.16,0.1555569982,-0.1231746917
4.17,0.1505031032,-0.128723292
4.18,0.1452568378,-0.1340636556
4.19,0.1398268398,-0.1391894472
4.2,0.1342219342,-0.1440946932
4.21,0.1284511189,-0.1487737854
4.22,0.1225235485,-0.1532214852
4.23,0.1164485196,-0.1574329257
4.24,0.1102354555,-0.1614036144
4.25,0.103893891,-0.165129435
4.26,0.09743345747,-0.1686066478
4.27,0.09086386825,-0.1718318905
4.28,0.08419490364,-0.1748021782
4.29,0.07743639665,-0.1775149022
4.3,0.07059821863,-0.1799678292
4.31,0.06369026531,-0.1821590993
4.32,0.05672244291,-0.1840872236
4.33,0.04970465466,-0.1857510818
4.34,0.04264678754,-0.1871499184
4.35,0.0355586993,-0.1882833396
4.36,0.02845020578,-0.1891513087
4.37,0.02133106859,-0.1897541417
4.38,0.01421098308,-0.1900925026
4.39,0.007099566673,-0.1901673978
4.4,6.347496309E-06,-0.1899801707
4.41,-0.007059246578,-0.1895324956
4.42,-0.01408789857,-0.1888263715
4.43,-0.02107041267,-0.1878641157
4.44,-0.0279977241,-0.1866483567
4.45,-0.03486090872,-0.1851820273
4.46,-0.0416511921,-0.1834683573
4.47,-0.0483599584,-0.1815108662
4.48,-0.05497875876,-0.1793133553
4.49,-0.06149931933,-0.1768798999
4.5,-0.06791354904,-0.1742148414
4.51,-0.07421354686,-0.1713227791
4.52,-0.08039160883,-0.1682085621
4.53,-0.08644023466,-0.1648772808
4.54,-0.09235213399,-0.1613342584
4.55,-0.0981202324,-0.1575850427
4.56,-0.1037376769,-0.1536353972
4.57,-0.1091978413,-0.1494912928
4.58,-0.1144943312,-0.1451588988
4.59,-0.1196209885,-0.1406445745
4.6,-0.1245718957,-0.1359548603
4.61,-0.1293413803,-0.1310964692
4.62,-0.1339240181,-0.126076278
4.63,-0.1383146369,-0.1209013185
4.64,-0.1425083198,-0.115578769
4.65,-0.1465004079,-0.1101159456
4.66,-0.1502865033,-0.1045202934
4.67,-0.1538624711,-0.09879937809
4.68,-0.1572244422,-0.09296087745
4.69,-0.1603688147,-0.08701257258
4.7,-0.163292256,-0.08096233958
4.71,-0.1659917043,-0.07481814108
4.72,-0.1684643699,-0.06858801783
4.73,-0.1707077362,-0.06228008036
4.74,-0.1727195611,-0.05590250065
4.75,-0.1744978773,-0.04946350389
4.76,-0.1760409929,-0.04297136026
4.77,-0.1773474921,-0.03643437672
4.78,-0.1784162353,-0.02986088891
4.79,-0.1792463592,-0.02325925302
4.8,-0.1798372763,-0.01663783775
4.81,-0.1801886755,-0.01000501629
4.82,-0.1803005206,-0.003369158309
4.83,-0.1801730508,0.003261378013
4.84,-0.179806779,0.009878253894
4.85,-0.1792024917,0.01647315788
4.86,-0.1783612473,0.02303781372
4.87,-0.1772843754,0.02956398824
4.88,-0.175973475,0.03604349917
4.89,-0.1744304135,0.04246822302
4.9,-0.1726573245,0.04883010283
4.91,-0.170656606,0.05512115602
4.92,-0.1684309187,0.06133348215
4.93,-0.1659831837,0.06745927071
4.94,-0.1633165799,0.07349080886
4.95,-0.1604345416,0.07942048922
4.96,-0.1573407558,0.08524081755
4.97,-0.154039159,0.09094442053
4.98,-0.1505339347,0.09652405341
4.99,-0.1468295093,0.1019726077
5,-0.142930549,0.107283119
5.01,-0.1388419561,0.1124487742
5.02,-0.1345688647,0.1174629197
5.03,-0.1301166369,0.1223190684
5.04,-0.1254908579,0.1270109077
5.05,-0.1206973319,0.1315323067
5.06,-0.1157420768,0.1358773235
5.07,-0.110631319,0.1400402131
5.08,-0.1053714883,0.1440154343
5.09,-0.09996921214,0.1477976568
5.1,-0.09443130945,0.1513817687
5.11,-0.08876478468,0.1547628833
5.12,-0.08297682128,0.1579363462
5.13,-0.07707477492,0.1608977418
5.14,-0.07106616651,0.1636429003
5.15,-0.06495867492,0.1661679042
5.16,-0.05876012934,0.1684690942
5.17,-0.05247850147,0.1705430762
5.18,-0.0461218974,0.1723867265
5.19,-0.03969854912,0.1739971983
5.2,-0.03321680587,0.1753719268
5.21,-0.02668512516,0.1765086347
5.22,-0.0201120635,0.1774053377
5.23,-0.01350626688,0.1780603487
5.24,-0.00687646101,0.178472283
5.25,-0.0002314412107,0.1786400622
5.26,0.006419937832,0.1785629185
5.27,0.01306877264,0.1782403982
5.28,0.01970612173,0.1776723649
5.29,0.02632301662,0.176859003
5.3,0.03291047306,0.1758008197
5.31,0.03945950247,0.1744986476
5.32,0.04596112357,0.1729536466
5.33,0.05240637419,0.1711673051
5.34,0.05878632323,0.169141441
5.35,0.06509208281,0.1668782028
5.36,0.07131482052,0.1643800688
5.37,0.07744577178,0.1616498476
5.38,0.08347625231,0.158690677
5.39,0.08939767072,0.1555060224
5.4,0.09520154108,0.1520996755
5.41,0.1008794956,0.1484757518
5.42,0.1064232974,0.1446386876
5.43,0.1118248528,0.1405932372
5.44,0.1170762245,0.1363444683
5.45,0.1221696439,0.1318977583
5.46,0.1270975234,0.1272587894
5.47,0.1318524694,0.1224335424
5.48,0.1364272941,0.1174282916
5.49,0.1408150278,0.112249598
5.5,0.1450089309,0.1069043019
5.51,0.1490025058,0.1013995159
5.52,0.1527895085,0.09574261636
5.53,0.1563639597,0.08994123496
5.54,0.1597201558,0.08400324951
5.55,0.1628526803,0.07793677429
5.56,0.1657564133,0.07175014986
5.57,0.1684265424,0.0654519324
5.58,0.1708585718,0.0590508826
5.59,0.1730483322,0.05255595401
5.6,0.1749919891,0.04597628096
5.61,0.1766860517,0.03932116611
5.62,0.1781273807,0.03260006745
5.63,0.1793131957,0.02582258501
5.64,0.1802410825,0.0189984471
5.65,0.180908999,0.01213749625
5.66,0.1813152817,0.005249674734
5.67,0.1814586507,-0.001654990147
5.68,0.1813382142,-0.008566401151
5.69,0.1809534732,-0.01547440642
5.7,0.1803043244,-0.02236881504
5.71,0.1793910635,-0.0292394129
5.72,0.178214387,-0.03607597859
5.73,0.1767753941,-0.04286829967
5.74,0.1750755874,-0.04960618889
5.75,0.173116873,-0.05627950061
5.76,0.1709015599,-0.0628781473
5.77,0.1684323592,-0.06939211605
5.78,0.1657123817,-0.07581148509
5.79,0.1627451352,-0.08212644036
5.8,0.1595345218,-0.08832729189
5.81,0.156084833,-0.09440449027
5.82,0.1524007455,-0.1003486429
5.83,0.1484873154,-0.10615053
5.84,0.144349972,-0.1118011207
5.85,0.1399945111,-0.1172915887
5.86,0.1354270871,-0.1226133276
5.87,0.1306542049,-0.1277579665
5.88,0.1256827109,-0.1327173844
5.89,0.1205197833,-0.1374837248
5.9,0.1151729219,-0.1420494103
5.91,0.1096499372,-0.1464071558
5.92,0.1039589384,-0.1505499822
5.93,0.09810832221,-0.154471229
5.94,0.09210675915,-0.1581645668
5.95,0.08596318086,-0.1616240093
5.96,0.07968676603,-0.1648439239
5.97,0.07328692617,-0.1678190434
5.98,0.06677329072,-0.1705444752
5.99,0.06015569181,-0.1730157115
6,0.0534441485,-0.1752286375
