"Freq [GHz]","re(S(Tx_p1,Tx_p1)) []","im(S(Tx_p1,Tx_p1)) []"
1,0.02333771458,-0.280258288
1.01,0.01437480178,-0.2806877284
1.02,0.00535986338,-0.2808253378
1.03,-0.003695154865,-0.2806666011
1.04,-0.01277812009,-0.2802076297
1.05,-0.02187674286,-0.2794451605
1.06,-0.03097860722,-0.2783765541
1.07,-0.04007120022,-0.2769997919
1.08,-0.04914194096,-0.2753134725
1.09,-0.05817820906,-0.2733168067
1.1,-0.06716737255,-0.2710096118
1.11,-0.07609681516,-0.2683923049
1.12,-0.08495396301,-0.2654658957
1.13,-0.09372631063,-0.2622319772
1.14,-0.1024014463,-0.2586927173
1.15,-0.1109670766,-0.2548508477
1.16,-0.1194110506,-0.2507096538
1.17,-0.1277213828,-0.246272962
1.18,-0.1358862754,-0.2415451281
1.19,-0.1438941404,-0.2365310232
1.2,-0.1517336201,-0.2312360204
1.21,-0.159393607,-0.2256659798
1.22,-0.1668632634,-0.2198272338
1.23,-0.1741320392,-0.2137265709
1.24,-0.1811896897,-0.2073712193
1.25,-0.1880262922,-0.2007688309
1.26,-0.1946322614,-0.1939274632
1.27,-0.2009983646,-0.1868555619
1.28,-0.2071157352,-0.179561943
1.29,-0.2129758862,-0.1720557745
1.3,-0.2185707218,-0.1643465571
1.31,-0.2238925492,-0.156444106
1.32,-0.2289340882,-0.1483585313
1.33,-0.2336884814,-0.1401002184
1.34,-0.2381493021,-0.131679809
1.35,-0.2423105622,-0.1231081811
1.36,-0.246166719,-0.1143964295
1.37,-0.2497126808,-0.1055558457
1.38,-0.2529438124,-0.09659789842
1.39,-0.2558559389,-0.08753421386
1.4,-0.258445349,-0.07837655582
1.41,-0.2607087978,-0.06913680627
1.42,-0.2626435083,-0.05982694584
1.43,-0.2642471723,-0.0504590345
1.44,-0.2655179507,-0.04104519247
1.45,-0.2664544728,-0.03159758127
1.46,-0.2670558349,-0.02212838508
1.47,-0.2673215983,-0.01264979229
1.48,-0.2672517867,-0.003173977418
1.49,-0.2668468825,0.006286916729
1.5,-0.2661078229,0.01572079653
1.51,-0.2650359953,0.02511563466
1.52,-0.2636332317,0.0344594869
1.53,-0.2619018033,0.04374050844
1.54,-0.2598444136,0.05294696992
1.55,-0.257464192,0.06206727291
1.56,-0.2547646858,0.07108996508
1.57,-0.2517498526,0.08000375488
1.58,-0.2484240519,0.08879752572
1.59,-0.2447920364,0.09746034978
1.6,-0.2408589424,0.1059815013
1.61,-0.2366302807,0.1143504692
1.62,-0.2321119265,0.1225569699
1.63,-0.2273101089,0.1305909587
1.64,-0.2222314006,0.1384426412
1.65,-0.2168827072,0.1461024843
1.66,-0.2112712556,0.1535612266
1.67,-0.2054045829,0.1608098882
1.68,-0.1992905251,0.1678397799
1.69,-0.1929372047,0.1746425126
1.7,-0.1863530195,0.1812100052
1.71,-0.1795466298,0.1875344926
1.72,-0.1725269467,0.1936085334
1.73,-0.1653031194,0.1994250168
1.74,-0.157884523,0.2049771688
1.75,-0.1502807456,0.2102585587
1.76,-0.142501576,0.2152631042
1.77,-0.1345569912,0.2199850768
1.78,-0.1264571429,0.2244191066
1.79,-0.1182123457,0.2285601861
1.8,-0.1098330637,0.2324036744
1.81,-0.1013298982,0.2359453007
1.82,-0.09271357445,0.2391811666
1.83,-0.08399492941,0.2421077497
1.84,-0.0751848988,0.2447219047
1.85,-0.06629450448,0.247020866
1.86,-0.05733484189,0.2490022489
1.87,-0.04831706745,0.2506640504
1.88,-0.03925238609,0.2520046501
1.89,-0.03015203883,0.2530228107
1.9,-0.02102729041,0.2537176775
1.91,-0.01188941707,0.2540887785
1.92,-0.002749694289,0.2541360235
1.93,0.00638061524,0.253859703
1.94,0.01549027365,0.2532604872
1.95,0.02456807979,0.2523394238
1.96,0.03360288106,0.2510979368
1.97,0.04258358506,0.2495378233
1.98,0.05149917124,0.2476612519
1.99,0.06033870238,0.2454707591
2,0.06909133594,0.2429692466
2.01,0.07774633537,0.2401599778
2.02,0.08629308122,0.2370465739
2.03,0.0947210822,0.2336330102
2.04,0.1030199861,0.2299236114
2.05,0.1111795906,0.2259230476
2.06,0.1191898538,0.2216363294
2.07,0.127040905,0.2170688023
2.08,0.134723055,0.2122261421
2.09,0.1422268062,0.2071143485
2.1,0.1495428633,0.2017397401
2.11,0.1566621424,0.1961089475
2.12,0.1635757818,0.1902289072
2.13,0.1702751513,0.1841068548
2.14,0.1767518615,0.1777503183
2.15,0.1829977738,0.1711671105
2.16,0.1890050092,0.1643653219
2.17,0.1947659575,0.1573533123
2.18,0.2002732863,0.1501397036
2.19,0.2055199497,0.1427333708
2.2,0.2104991969,0.1351434337
2.21,0.2152045801,0.127379248
2.22,0.2196299635,0.1194503961
2.23,0.2237695303,0.1113666778
2.24,0.2276177913,0.1031381004
2.25,0.2311695915,0.09477486912
2.26,0.2344201181,0.08628737637
2.27,0.2373649071,0.07768619161
2.28,0.2399998501,0.06898205043
2.29,0.2423212008,0.06018584349
2.3,0.2443255811,0.05130860526
2.31,0.2460099871,0.04236150238
2.32,0.2473717947,0.03335582186
2.33,0.2484087646,0.02430295899
2.34,0.2491190475,0.01521440494
2.35,0.2495011887,0.006101734249
2.36,0.2495541319,-0.003023408077
2.37,0.2492772234,-0.01214931958
2.38,0.2486702158,-0.02126425365
2.39,0.2477332704,-0.03035643302
2.4,0.2464669604,-0.03941406347
2.41,0.2448722727,-0.04842534773
2.42,0.2429506101,-0.05737849955
2.43,0.2407037925,-0.06626175797
2.44,0.2381340573,-0.07506340172
2.45,0.2352440605,-0.08377176377
2.46,0.2320368763,-0.09237524605
2.47,0.2285159963,-0.1008623342
2.48,0.2246853285,-0.1092216125
2.49,0.2205491959,-0.1174417789
2.5,0.2161123339,-0.12551166
2.51,0.2113798879,-0.133420226
2.52,0.20635741,-0.1411566062
2.53,0.2010508548,-0.1487101037
2.54,0.1954665756,-0.1560702108
2.55,0.1896113188,-0.1632266237
2.56,0.1834922187,-0.1701692579
2.57,0.1771167914,-0.176888263
2.58,0.1704929277,-0.1833740373
2.59,0.1636288861,-0.1896172425
2.6,0.1565332846,-0.1956088185
2.61,0.1492150925,-0.2013399974
2.62,0.1416836209,-0.2068023178
2.63,0.1339485132,-0.2119876385
2.64,0.1260197349,-0.2168881523
2.65,0.1179075623,-0.2214963991
2.66,0.1096225714,-0.2258052793
2.67,0.1011756258,-0.2298080659
2.68,0.09257786371,-0.2334984173
2.69,0.0838406853,-0.2368703889
2.7,0.0749757386,-0.2399184446
2.71,0.06599490539,-0.242637468
2.72,0.05691028636,-0.2450227726
2.73,0.04773418586,-0.2470701122
2.74,0.0384790961,-0.2487756903
2.75,0.02915768089,-0.2501361688
2.76,0.01978275895,-0.2511486768
2.77,0.01036728677,-0.251810818
2.78,0.0009243410573,-0.252120678
2.79,-0.008532899206,-0.2520768308
2.8,-0.01799117107,-0.2516783446
2.81,-0.02743714624,-0.250924787
2.82,-0.03685745007,-0.2498162293
2.83,-0.04623868076,-0.2483532503
2.84,-0.05556742889,-0.2465369391
2.85,-0.06483029711,-0.2443688975
2.86,-0.07401392011,-0.2418512411
2.87,-0.08310498463,-0.2389866003
2.88,-0.09209024973,-0.2357781197
2.89,-0.1009565671,-0.2322294574
2.9,-0.1096909014,-0.2283447828
2.91,-0.1182803506,-0.2241287743
2.92,-0.1267121667,-0.2195866157
2.93,-0.1349737754,-0.2147239915
2.94,-0.1430527973,-0.209547082
2.95,-0.1509370672,-0.2040625573
2.96,-0.1586146545,-0.1982775702
2.97,-0.166073883,-0.1921997482
2.98,-0.1733033505,-0.1858371855
2.99,-0.1802919478,-0.179198433
3,-0.187028878,-0.1722924882
3.01,-0.1935036751,-0.165128784
3.02,-0.1997062222,-0.1577171771
3.03,-0.2056267694,-0.1500679348
3.04,-0.2112559511,-0.1421917216
3.05,-0.216584803,-0.1340995854
3.06,-0.2216047784,-0.1258029415
3.07,-0.2263077641,-0.1173135579
3.08,-0.2306860954,-0.1086435378
3.09,-0.234732571,-0.09980530322
3.1,-0.2384404665,-0.09081157672
3.11,-0.2418035481,-0.08167536299
3.12,-0.2448160846,-0.07240992979
3.13,-0.2474728594,-0.06302878825
3.14,-0.2497691815,-0.05354567267
3.15,-0.2517008952,-0.04397451971
3.16,-0.2532643901,-0.03432944723
3.17,-0.2544566087,-0.02462473252
3.18,-0.2552750548,-0.01487479029
3.19,-0.2557177993,-0.005094150159
3.2,-0.2557834865,0.00470256618
3.21,-0.2554713388,0.01450066802
3.22,-0.25478116,0.02428541905
3.23,-0.2537133388,0.03404206089
3.24,-0.2522688502,0.04375583687
3.25,-0.2504492567,0.05341201594
3.26,-0.2482567077,0.06299591658
3.27,-0.2456939386,0.07249293089
3.28,-0.2427642688,0.08188854855
3.29,-0.2394715982,0.09116838079
3.3,-0.2358204028,0.1003181843
3.31,-0.2318157302,0.1093238851
3.32,-0.2274631925,0.1181716016
3.33,-0.2227689597,0.1268476688
3.34,-0.217739751,0.1353386604
3.35,-0.212382826,0.1436314124
3.36,-0.2067059739,0.1517130448
3.37,-0.2007175028,0.1595709841
3.38,-0.1944262275,0.1671929847
3.39,-0.1878414563,0.1745671496
3.4,-0.180972977,0.1816819517
3.41,-0.1738310423,0.1885262529
3.42,-0.1664263539,0.1950893241
3.43,-0.1587700458,0.2013608636
3.44,-0.1508736676,0.2073310152
3.45,-0.1427491653,0.2129903853
3.46,-0.1344088636,0.21833006
3.47,-0.1258654454,0.22334162
3.48,-0.1171319319,0.2280171562
3.49,-0.1082216616,0.2323492837
3.5,-0.09914826894,0.2363311547
3.51,-0.08992566189,0.2399564707
3.52,-0.08056799959,0.2432194945
3.53,-0.07108966908,0.2461150598
3.54,-0.06150526182,0.2486385812
3.55,-0.05182954966,0.2507860621
3.56,-0.04207746056,0.2525541025
3.57,-0.03226405392,0.2539399051
3.58,-0.02240449568,0.2549412809
3.59,-0.0125140332,0.255556653
3.6,-0.002607969912,0.2557850601
3.61,0.007298360057,0.2556261583
3.62,0.01718961746,0.2550802228
3.63,0.02705048344,0.2541481467
3.64,0.03686568512,0.252831441
3.65,0.04662002101,0.2511322316
3.66,0.05629838643,0.2490532561
3.67,0.0658857987,0.2465978597
3.68,0.07536742215,0.2437699893
3.69,0.08472859285,0.2405741876
3.7,0.0939548431,0.2370155845
3.71,0.1030319255,0.2330998896
3.72,0.1119458368,0.2288333817
3.73,0.120682841,0.2242228989
3.74,0.1292294922,0.2192758262
3.75,0.1375726571,0.2140000837
3.76,0.1456995365,0.2084041126
3.77,0.1535976866,0.2024968609
3.78,0.1612550393,0.1962877682
3.79,0.1686599224,0.1897867496
3.8,0.1758010781,0.1830041787
3.81,0.1826676821,0.1759508696
3.82,0.1892493604,0.168638059
3.83,0.1955362069,0.1610773864
3.84,0.2015187985,0.1532808744
3.85,0.2071882108,0.1452609084
3.86,0.2125360319,0.1370302153
3.87,0.2175543759,0.1286018416
3.88,0.2222358947,0.1199891315
3.89,0.22657379,0.1112057041
3.9,0.2305618233,0.1022654304
3.91,0.234194325,0.09318240928
3.92,0.2374662032,0.08397094437
3.93,0.2403729507,0.07464551937
3.94,0.2429106515,0.06522077381
3.95,0.2450759857,0.05571147841
3.96,0.246866234,0.04613251025
3.97,0.2482792806,0.03649882794
3.98,0.2493136153,0.02682544657
3.99,0.2499683345,0.01712741273
4,0.2502431411,0.007419779553
4.01,0.2501383435,-0.002282418225
4.02,0.2496548533,-0.01196418905
4.03,0.2487941823,-0.02161060918
4.04,0.2475584378,-0.03120684714
4.05,0.2459503181,-0.0407381879
4.06,0.2439731054,-0.05019005677
4.07,0.2416306592,-0.05954804296
4.08,0.238927408,-0.06879792279
4.09,0.2358683398,-0.07792568243
4.1,0.2324589925,-0.08691754025
4.11,0.2287054423,-0.09575996863
4.12,0.2246142927,-0.1044397153
4.13,0.2201926609,-0.1129438239
4.14,0.2154481648,-0.1212596543
4.15,0.2103889085,-0.1293749022
4.16,0.2050234673,-0.1372776175
4.17,0.1993608716,-0.1449562228
4.18,0.1934105907,-0.1523995308
4.19,0.1871825154,-0.1595967607
4.2,0.1806869401,-0.1665375545
4.21,0.1739345447,-0.1732119915
4.22,0.1669363751,-0.179610603
4.23,0.1597038243,-0.1857243856
4.24,0.1522486117,-0.1915448135
4.25,0.1445827635,-0.1970638506
4.26,0.136718591,-0.2022739608
4.27,0.1286686702,-0.2071681181
4.28,0.1204458196,-0.2117398158
4.29,0.1120630791,-0.2159830737
4.3,0.1035336871,-0.2198924462
4.31,0.09487105902,-0.2234630277
4.32,0.08608876464,-0.2266904581
4.33,0.07720050547,-0.2295709268
4.34,0.06822009228,-0.2321011764
4.35,0.05916142245,-0.2342785048
4.36,0.05003845739,-0.2361007665
4.37,0.04086519988,-0.2375663733
4.38,0.03165567167,-0.2386742938
4.39,0.02242389105,-0.239424052
4.4,0.01318385068,-0.2398157249
4.41,0.003949495555,-0.2398499396
4.42,-0.00526529874,-0.239527869
4.43,-0.01444674755,-0.2388512269
4.44,-0.02358117832,-0.2378222624
4.45,-0.0326550515,-0.2364437529
4.46,-0.04165498096,-0.2347189972
4.47,-0.05056775411,-0.2326518068
4.48,-0.05938035151,-0.230246497
4.49,-0.06807996608,-0.2275078775
4.5,-0.07665402173,-0.2244412413
4.51,-0.08509019157,-0.2210523543
4.52,-0.09337641548,-0.2173474426
4.53,-0.1015009172,-0.2133331807
4.54,-0.1094522206,-0.2090166781
4.55,-0.1172191659,-0.2044054653
4.56,-0.1247909244,-0.1995074803
4.57,-0.1321570132,-0.194331053
4.58,-0.1393073093,-0.1888848903
4.59,-0.1462320625,-0.1831780604
4.6,-0.1529219077,-0.1772199764
4.61,-0.1593678772,-0.1710203797
4.62,-0.1655614112,-0.1645893231
4.63,-0.1714943684,-0.1579371536
4.64,-0.1771590355,-0.1510744945
4.65,-0.1825481358,-0.1440122277
4.66,-0.1876548374,-0.1367614755
4.67,-0.1924727606,-0.129333582
4.68,-0.196995984,-0.1217400952
4.69,-0.2012190505,-0.1139927477
4.7,-0.2051369724,-0.1061034381
4.71,-0.2087452353,-0.09808421227
4.72,-0.2120398018,-0.0899472443
4.73,-0.2150171137,-0.08170481759
4.74,-0.2176740947,-0.07336930596
4.75,-0.2200081509,-0.06495315472
4.76,-0.2220171716,-0.0564688619
4.77,-0.2236995288,-0.04792895953
4.78,-0.2250540762,-0.03934599504
4.79,-0.2260801479,-0.03073251288
4.8,-0.2267775552,-0.02210103625
4.81,-0.2271465842,-0.01346404907
4.82,-0.2271879916,-0.00483397822
4.83,-0.2269030007,0.003776824059
4.84,-0.2262932956,0.01235609737
4.85,-0.2253610164,0.02089169012
4.86,-0.2241087521,0.02937157617
4.87,-0.2225395343,0.03778387108
4.88,-0.2206568293,0.04611684804
4.89,-0.2184645306,0.05435895342
4.9,-0.2159669498,0.06249882184
4.91,-0.2131688078,0.07052529092
4.92,-0.2100752255,0.07842741554
4.93,-0.2066917132,0.08619448166
4.94,-0.2030241609,0.09381601968
4.95,-0.1990788267,0.1012818173
4.96,-0.1948623261,0.108581932
4.97,-0.1903816197,0.1157067029
4.98,-0.1856440018,0.1226467619
4.99,-0.1806570877,0.1293930451
5,-0.175428801,0.1359368026
5.01,-0.1699673608,0.1422696087
5.02,-0.1642812683,0.1483833709
5.03,-0.1583792933,0.1542703389
5.04,-0.1522704604,0.1599231126
5.05,-0.1459640354,0.1653346498
5.06,-0.1394695109,0.1704982734
5.07,-0.1327965918,0.1754076779
5.08,-0.1259551817,0.1800569353
5.09,-0.1189553672,0.1844405005
5.1,-0.1118074043,0.1885532165
5.11,-0.1045217031,0.1923903184
5.12,-0.09710881305,0.1959474375
5.13,-0.08957940848,0.1992206042
5.14,-0.08194427334,0.202206251
5.15,-0.0742142866,0.2049012146
5.16,-0.06640040733,0.2073027376
5.17,-0.05851365994,0.2094084694
5.18,-0.05056511941,0.2112164671
5.19,-0.04256589665,0.2127251954
5.2,-0.03452712387,0.2139335262
5.21,-0.02645994008,0.2148407378
5.22,-0.01837547678,0.2154465134
5.23,-0.01028484362,0.2157509394
5.24,-0.002199114384,0.2157545026
5.25,0.005870687011,0.2154580879
5.26,0.01391360025,0.2148629749
5.27,0.02191874223,0.2139708339
5.28,0.02987532043,0.212783722
5.29,0.03777264609,0.2113040785
5.3,0.04560014717,0.20953472
5.31,0.05334738108,0.2074788346
5.32,0.06100404715,0.2051399765
5.33,0.06855999888,0.2025220599
5.34,0.07600525587,0.1996293521
5.35,0.08333001556,0.1964664666
5.36,0.09052466461,0.1930383564
5.37,0.09757979005,0.1893503055
5.38,0.1044861901,0.1854079218
5.39,0.1112348847,0.1812171285
5.4,0.1178171256,0.1767841552
5.41,0.1242244067,0.1721155298
5.42,0.1304484729,0.1672180687
5.43,0.13648133,0.1620988677
5.44,0.1423152534,0.1567652923
5.45,0.1479427963,0.1512249675
5.46,0.1533567985,0.1454857682
5.47,0.1585503939,0.1395558081
5.48,0.1635170181,0.1334434297
5.49,0.1682504155,0.1271571929
5.5,0.1727446463,0.1207058646
5.51,0.1769940924,0.1140984067
5.52,0.1809934642,0.1073439656
5.53,0.1847378054,0.1004518599
5.54,0.1882224989,0.09343156916
5.55,0.1914432717,0.0862927217
5.56,0.1943961988,0.07904508288
5.57,0.1970777081,0.07169854286
5.58,0.1994845836,0.06426310443
5.59,0.201613969,0.05674887063
5.6,0.2034633704,0.0491660324
5.61,0.2050306591,0.04152485605
5.62,0.2063140737,0.03383567073
5.63,0.2073122216,0.02610885578
5.64,0.2080240807,0.01835482812
5.65,0.2084490002,0.01058402951
5.66,0.2085867007,0.00280691385
5.67,0.2084372752,-0.00496606556
5.68,0.2080011881,-0.01272446874
5.69,0.2072792747,-0.02045788177
5.7,0.2062727401,-0.02815592948
5.71,0.2049831581,-0.03580828813
5.72,0.2034124684,-0.04340469802
5.73,0.2015629751,-0.0509349761
5.74,0.1994373437,-0.05838902843
5.75,0.1970385979,-0.06575686261
5.76,0.1943701159,-0.07302860014
5.77,0.1914356268,-0.08019448862
5.78,0.1882392062,-0.08724491389
5.79,0.1847852712,-0.09417041201
5.8,0.1810785754,-0.1009616811
5.81,0.1771242035,-0.1076095929
5.82,0.1729275651,-0.1141052048
5.83,0.1684943884,-0.1204397704
5.84,0.163830714,-0.1266047514
5.85,0.1589428869,-0.1325918281
5.86,0.1538375498,-0.1383929104
5.87,0.1485216349,-0.1440001483
5.88,0.1430023559,-0.1494059418
5.89,0.137287199,-0.1546029516
5.9,0.1313839145,-0.1595841083
5.91,0.1253005073,-0.1643426222
5.92,0.1190452271,-0.168871992
5.93,0.1126265585,-0.1731660146
5.94,0.1060532112,-0.1772187925
5.95,0.09933410859,-0.1810247432
5.96,0.09247837747,-0.184578606
5.97,0.08549533653,-0.1878754506
5.98,0.07839448494,-0.1909106834
5.99,0.07118549054,-0.1936800547
6,0.0638781778,-0.1961796652
