"Freq [GHz]","re(S(Tx_p1,Tx_p1)) []","im(S(Tx_p1,Tx_p1)) []"
1,-0.0007511260286,-0.2525910818
1.01,-0.009051782677,-0.2520192109
1.02,-0.01735352264,-0.2511646785
1.03,-0.0256443074,-0.2500257433
1.04,-0.03391205143,-0.2486013013
1.05,-0.04214465367,-0.2468908782
1.06,-0.05033002822,-0.2448946217
1.07,-0.05845613424,-0.2426132916
1.08,-0.06651100504,-0.2400482499
1.09,-0.07448277624,-0.2372014488
1.1,-0.08235971312,-0.2340754186
1.11,-0.09013023694,-0.2306732545
1.12,-0.09778295039,-0.2269986016
1.13,-0.105306662,-0.22305564
1.14,-0.1126904095,-0.2188490692
1.15,-0.1199234822,-0.2143840905
1.16,-0.1269954426,-0.2096663898
1.17,-0.133896146,-0.2047021193
1.18,-0.1406157601,-0.1994978786
1.19,-0.1471447831,-0.1940606952
1.2,-0.1534740601,-0.1883980042
1.21,-0.1595947994,-0.1825176282
1.22,-0.1654985867,-0.1764277562
1.23,-0.1711773987,-0.1701369219
1.24,-0.1766236156,-0.1636539828
1.25,-0.1818300318,-0.1569880975
1.26,-0.1867898663,-0.1501487043
1.27,-0.1914967712,-0.1431454983
1.28,-0.1959448399,-0.1359884094
1.29,-0.2001286131,-0.1286875799
1.3,-0.2040430844,-0.1212533418
1.31,-0.2076837049,-0.1136961948
1.32,-0.2110463862,-0.1060267837
1.33,-0.2141275027,-0.09825587651
1.34,-0.2169238925,-0.09039434233
1.35,-0.219432858,-0.08245312997
1.36,-0.2216521643,-0.07444324638
1.37,-0.223580038,-0.06637573568
1.38,-0.225215164,-0.0582616585
1.39,-0.2265566821,-0.05011207174
1.4,-0.2276041819,-0.04193800876
1.41,-0.2283576979,-0.03375046012
1.42,-0.2288177031,-0.02556035475
1.43,-0.2289851016,-0.01737854177
1.44,-0.2288612214,-0.009215772812
1.45,-0.2284478058,-0.00108268498
1.46,-0.227747004,0.007010215536
1.47,-0.226761362,0.01505256923
1.48,-0.2254938116,0.02303417838
1.49,-0.2239476602,0.03094502138
1.5,-0.2221265791,0.03877526652
1.51,-0.2200345923,0.04651528489
1.52,-0.2176760636,0.05415566263
1.53,-0.2150556847,0.06168721248
1.54,-0.2121784624,0.06910098454
1.55,-0.209049705,0.07638827628
1.56,-0.2056750097,0.08354064185
1.57,-0.2020602483,0.09054990065
1.58,-0.1982115545,0.09740814508
1.59,-0.194135309,0.1041077477
1.6,-0.1898381267,0.1106413676
1.61,-0.1853268422,0.1170019559
1.62,-0.180608496,0.1231827608
1.63,-0.1756903209,0.129177332
1.64,-0.1705797279,0.134979524
1.65,-0.1652842928,0.1405834992
1.66,-0.1598117425,0.1459837302
1.67,-0.1541699416,0.1511750013
1.68,-0.1483668794,0.15615241
1.69,-0.1424106565,0.160911367
1.7,-0.1363094726,0.1654475966
1.71,-0.1300716135,0.1697571357
1.72,-0.1237054394,0.1738363334
1.73,-0.1172193726,0.1776818487
1.74,-0.1106218861,0.181290649
1.75,-0.1039214923,0.1846600078
1.76,-0.09712673223,0.1877875013
1.77,-0.0902461648,0.1906710061
1.78,-0.08328835683,0.193308695
1.79,-0.07626187315,0.1956990335
1.8,-0.06917526722,0.1978407758
1.81,-0.06203707208,0.1997329604
1.82,-0.05485579176,0.2013749055
1.83,-0.04763989298,0.2027662042
1.84,-0.04039779732,0.2039067201
1.85,-0.03313787375,0.2047965813
1.86,-0.0258684315,0.2054361763
1.87,-0.01859771337,0.2058261478
1.88,-0.01133388938,0.205967388
1.89,-0.004085050719,0.2058610331
1.9,0.003140795824,0.2055084577
1.91,0.01033573323,0.2049112695
1.92,0.01749193923,0.204071304
1.93,0.02460169097,0.2029906191
1.94,0.03165736939,0.2016714896
1.95,0.03865146336,0.2001164024
1.96,0.04557657348,0.1983280511
1.97,0.05242541572,0.1963093306
1.98,0.05919082473,0.194063333
1.99,0.06586575706,0.1915933419
2,0.07244329405,0.1889028283
2.01,0.07891664468,0.1859954455
2.02,0.08527914819,0.1828750253
2.03,0.09152427655,0.179545573
2.04,0.09764563689,0.1760112639
2.05,0.1036369737,0.1722764388
2.06,0.1094921713,0.1683456003
2.07,0.1152052555,0.1642234094
2.08,0.1207703962,0.1599146811
2.09,0.1261819091,0.1554243819
2.1,0.1314342583,0.1507576258
2.11,0.1365220575,0.1459196713
2.12,0.141440073,0.1409159186
2.13,0.1461832255,0.135751906
2.14,0.150746592,0.1304333074
2.15,0.1551254084,0.1249659297
2.16,0.1593150721,0.1193557093
2.17,0.1633111436,0.1136087102
2.18,0.1671093498,0.1077311208
2.19,0.1707055863,0.1017292514
2.2,0.1740959202,0.09560953166
2.21,0.1772765929,0.0893785078
2.22,0.180244023,0.08304283999
2.23,0.1829948096,0.07660929962
2.24,0.1855257354,0.07008476646
2.25,0.18783377,0.06347622586
2.26,0.1899160735,0.05679076568
2.27,0.1917699999,0.05003557332
2.28,0.1933931011,0.04321793237
2.29,0.1947831303,0.03634521933
2.3,0.1959380464,0.02942490002
2.31,0.1968560174,0.02246452584
2.32,0.1975354251,0.01547172985
2.33,0.197974869,0.008454222614
2.34,0.1981731703,0.001419787792
2.35,0.1981293766,-0.005623722471
2.36,0.1978427659,-0.01266839246
2.37,0.197312851,-0.01970624807
2.38,0.1965393839,-0.02672926223
2.39,0.1955223597,-0.0337293607
2.4,0.1942620215,-0.04069842812
2.41,0.1927588639,-0.04762831434
2.42,0.1910136376,-0.05451084118
2.43,0.1890273532,-0.06133780939
2.44,0.186801285,-0.06810100601
2.45,0.1843369748,-0.07479221208
2.46,0.1816362355,-0.08140321058
2.47,0.1787011543,-0.08792579485
2.48,0.1755340959,-0.09435177718
2.49,0.1721377054,-0.1006729979
2.5,0.1685149111,-0.1068813345
2.51,0.1646689262,-0.1129687115
2.52,0.1606032514,-0.1189271104
2.53,0.1563216765,-0.1247485795
2.54,0.1518282812,-0.1304252448
2.55,0.1471274366,-0.1359493206
2.56,0.1422238051,-0.1413131209
2.57,0.137122341,-0.1465090699
2.58,0.1318282897,-0.1515297141
2.59,0.1263471871,-0.156367734
2.6,0.1206848577,-0.1610159554
2.61,0.1148474134,-0.1654673622
2.62,0.1088412505,-0.1697151078
2.63,0.102673047,-0.1737525277
2.64,0.09634975908,-0.177573152
2.65,0.08987861676,-0.1811707173
2.66,0.08326711936,-0.1845391797
2.67,0.07652303013,-0.1876727265
2.68,0.06965437038,-0.1905657891
2.69,0.06266941286,-0.1932130551
2.7,0.0555766747,-0.1956094805
2.71,0.04838490953,-0.1977503015
2.72,0.04110309917,-0.1996310467
2.73,0.03374044449,-0.2012475489
2.74,0.02630635585,-0.2025959558
2.75,0.01881044272,-0.203672742
2.76,0.01126250286,-0.2044747194
2.77,0.003672510741,-0.2049990478
2.78,-0.003949394504,-0.205243245
2.79,-0.01159292182,-0.2052051965
2.8,-0.01924764148,-0.2048831651
2.81,-0.02690299893,-0.2042757991
2.82,-0.03454832913,-0.2033821411
2.83,-0.04217287147,-0.2022016356
2.84,-0.04976578518,-0.200734136
2.85,-0.05731616513,-0.1989799113
2.86,-0.06481305825,-0.1969396522
2.87,-0.07224548018,-0.1946144759
2.88,-0.07960243247,-0.1920059311
2.89,-0.08687292009,-0.1891160017
2.9,-0.09404596924,-0.1859471097
2.91,-0.1011106455,-0.1825021178
2.92,-0.1080560723,-0.1787843311
2.93,-0.1148714495,-0.1747974972
2.94,-0.1215460722,-0.1705458067
2.95,-0.1280693498,-0.1660338922
2.96,-0.1344308249,-0.1612668261
2.97,-0.140620193,-0.1562501185
2.98,-0.146627321,-0.1509897132
2.99,-0.1524422669,-0.1454919836
3,-0.1580552986,-0.1397637272
3.01,-0.1634569133,-0.1338121592
3.02,-0.168637856,-0.127644906
3.03,-0.1735891386,-0.1212699964
3.04,-0.1783020581,-0.1146958533
3.05,-0.1827682147,-0.1079312834
3.06,-0.18697953,-0.100985467
3.07,-0.1909282645,-0.09386794614
3.08,-0.1946070341,-0.08658861204
3.09,-0.1980088277,-0.07915769216
3.1,-0.2011270223,-0.0715857359
3.11,-0.2039553995,-0.06388359972
3.12,-0.2064881599,-0.05606243144
3.13,-0.2087199378,-0.04813365377
3.14,-0.2106458147,-0.04010894713
3.15,-0.2122613325,-0.03200023166
3.16,-0.2135625057,-0.02381964872
3.17,-0.214545833,-0.01557954156
3.18,-0.2152083074,-0.007292435511
3.19,-0.2155474271,0.001028982487
3.2,-0.2155612035,0.009371884835
3.21,-0.2152481695,0.01772332477
3.22,-0.2146073868,0.02607025828
3.23,-0.213638452,0.03439956651
3.24,-0.2123415016,0.04269807839
3.25,-0.2107172161,0.0509525938
3.26,-0.2087668233,0.05914990679
3.27,-0.2064921004,0.06727682922
3.28,-0.2038953749,0.07532021443
3.29,-0.2009795245,0.08326698119
3.3,-0.1977479759,0.09110413758
3.31,-0.194204703,0.098818805
3.32,-0.190354223,0.1063982421
3.33,-0.1862015923,0.1138298689
3.34,-0.1817524011,0.12110129
3.35,-0.1770127663,0.1282003187
3.36,-0.1719893244,0.1351150001
3.37,-0.1666892223,0.1418336344
3.38,-0.1611201075,0.1483447992
3.39,-0.1552901177,0.154637372
3.4,-0.1492078678,0.1607005526
3.41,-0.1428824382,0.1665238836
3.42,-0.1363233597,0.172097272
3.43,-0.1295405994,0.1774110093
3.44,-0.1225445444,0.182455791
3.45,-0.1153459851,0.1872227355
3.46,-0.1079560972,0.1917034027
3.47,-0.1003864236,0.1958898112
3.48,-0.09264885491,0.1997744551
3.49,-0.08475560889,0.2033503197
3.5,-0.07671920994,0.2066108962
3.51,-0.06855246728,0.2095501963
3.52,-0.06026845269,0.2121627647
3.53,-0.05188047762,0.2144436913
3.54,-0.04340206965,0.2163886223
3.55,-0.03484694851,0.21799377
3.56,-0.02622900162,0.2192559218
3.57,-0.01756225909,0.2201724478
3.58,-0.008860868533,0.2207413079
3.59,-0.0001390693792,0.2209610567
3.6,0.008588832959,0.2208308484
3.61,0.01730849319,0.2203504396
3.62,0.02600555239,0.2195201917
3.63,0.03466566434,0.2183410714
3.64,0.04327452196,0.2168146504
3.65,0.05181788365,0.2149431039
3.66,0.06028159963,0.212729208
3.67,0.06865163817,0.2101763354
3.68,0.07691411157,0.2072884505
3.69,0.08505530198,0.2040701032
3.7,0.09306168686,0.2005264211
3.71,0.1009199642,0.196663101
3.72,0.1086170773,0.1924863995
3.73,0.1161402389,0.1880031216
3.74,0.1234769552,0.1832206089
3.75,0.1306150491,0.1781467268
3.76,0.1375426828,0.1727898501
3.77,0.1442483796,0.1671588481
3.78,0.1507210457,0.1612630683
3.79,0.1569499902,0.1551123199
3.8,0.1629249454,0.1487168551
3.81,0.1686360853,0.142087351
3.82,0.174074044,0.1352348893
3.83,0.1792299327,0.1281709365
3.84,0.1840953559,0.1209073223
3.85,0.1886624271,0.1134562176
3.86,0.1929237822,0.1058301126
3.87,0.1968725936,0.09804179273
3.88,0.2005025817,0.09010431559
3.89,0.2038080265,0.08203098648
3.9,0.2067837769,0.0738353337
3.91,0.2094252603,0.06553108347
3.92,0.2117284896,0.0571321345
3.93,0.2136900701,0.04865253219
3.94,0.2153072049,0.04010644267
3.95,0.2165776988,0.03150812661
3.96,0.2174999614,0.02287191289
3.97,0.218073009,0.0142121722
3.98,0.2182964652,0.005543290647
3.99,0.2181705601,-0.003120356673
4,0.2176961289,-0.01176443194
4.01,0.2168746086,-0.02037466078
4.02,0.2157080342,-0.02893685822
4.03,0.2141990333,-0.03743695442
4.04,0.2123508197,-0.04586102005
4.05,0.2101671859,-0.05419529135
4.06,0.2076524947,-0.06242619479
4.07,0.204811669,-0.07054037126
4.08,0.2016501818,-0.07852469974
4.09,0.1981740436,-0.08636632045
4.1,0.1943897903,-0.09405265738
4.11,0.1903044691,-0.1015714402
4.12,0.1859256239,-0.1089107255
4.13,0.18126128,-0.1160589171
4.14,0.1763199271,-0.1230047862
4.15,0.1711105026,-0.1297374899
4.16,0.1656423734,-0.1362465892
4.17,0.1599253168,-0.1425220668
4.18,0.1539695015,-0.1485543428
4.19,0.1477854672,-0.1543342907
4.2,0.141384104,-0.1598532511
4.21,0.1347766306,-0.165103046
4.22,0.1279745734,-0.1700759905
4.23,0.1209897435,-0.1747649048
4.24,0.1138342139,-0.1791631242
4.25,0.1065202971,-0.183264509
4.26,0.09906052111,-0.1870634522
4.27,0.09146760606,-0.1905548869
4.28,0.08375444021,-0.1937342929
4.29,0.07593405599,-0.196597701
4.3,0.06801960576,-0.1991416976
4.31,0.06002433763,-0.2013634273
4.32,0.05196157124,-0.2032605946
4.33,0.04384467347,-0.2048314651
4.34,0.03568703439,-0.2060748645
4.35,0.02750204326,-0.2069901777
4.36,0.01930306468,-0.2075773461
4.37,0.01110341502,-0.2078368642
4.38,0.002916339144,-0.2077697749
4.39,-0.005245012623,-0.2073776642
4.4,-0.01336760711,-0.2066626546
4.41,-0.02143855051,-0.2056273977
4.42,-0.02944511019,-0.2042750657
4.43,-0.03737473593,-0.2026093419
4.44,-0.04521508074,-0.2006344112
4.45,-0.05295402102,-0.1983549482
4.46,-0.06057967619,-0.1957761058
4.47,-0.06808042764,-0.1929035026
4.48,-0.07544493704,-0.1897432094
4.49,-0.08266216399,-0.1863017347
4.5,-0.08972138286,-0.1825860105
4.51,-0.09661219897,-0.1786033765
4.52,-0.1033245639,-0.174361564
4.53,-0.1098487903,-0.1698686794
4.54,-0.1161755652,-0.165133187
4.55,-0.1222959634,-0.1601638912
4.56,-0.1282014593,-0.1549699185
4.57,-0.1338839382,-0.1495606993
4.58,-0.1393357065,-0.1439459482
4.59,-0.1445495015,-0.1381356458
4.6,-0.1495184996,-0.1321400184
4.61,-0.1542363241,-0.125969519
4.62,-0.1586970518,-0.1196348066
4.63,-0.1628952194,-0.113146727
4.64,-0.1668258276,-0.1065162919
4.65,-0.170484346,-0.09975465912
4.66,-0.1738667157,-0.09287311218
4.67,-0.1769693516,-0.08588304004
4.68,-0.179789144,-0.07879591696
4.69,-0.1823234591,-0.07162328233
4.7,-0.1845701383,-0.06437672077
4.71,-0.1865274975,-0.05706784227
4.72,-0.1881943245,-0.04970826263
4.73,-0.1895698766,-0.04230958407
4.74,-0.1906538766,-0.03488337617
4.75,-0.1914465086,-0.0274411571
4.76,-0.1919484128,-0.01999437516
4.77,-0.1921606793,-0.01255439074
4.78,-0.1920848416,-0.00513245864
4.79,-0.1917228696,0.002260289159
4.8,-0.1910771607,0.009612860276
4.81,-0.1901505324,0.01691441823
4.82,-0.1889462118,0.02415429825
4.83,-0.1874678268,0.03132202253
4.84,-0.1857193949,0.03840731498
4.85,-0.1837053129,0.04540011538
4.86,-0.1814303452,0.05229059295
4.87,-0.178899612,0.05906915938
4.88,-0.1761185771,0.06572648115
4.89,-0.173093035,0.07225349132
4.9,-0.1698290981,0.07864140065
4.91,-0.1663331832,0.08488170806
4.92,-0.1626119977,0.09096621046
4.93,-0.1586725259,0.09688701195
4.94,-0.1545220146,0.1026365323
4.95,-0.1501679585,0.1082075147
4.96,-0.1456180863,0.1135930332
4.97,-0.1408803452,0.118786499
4.98,-0.1359628865,0.1237816664
4.99,-0.1308740505,0.128572638
5,-0.1256223515,0.1331538691
5.01,-0.1202164631,0.1375201717
5.02,-0.1146652025,0.1416667181
5.03,-0.1089775165,0.1455890426
5.04,-0.1031624655,0.1492830447
5.05,-0.09722920947,0.1527449893
5.06,-0.09118699293,0.1559715083
5.07,-0.08504513022,0.1589596004
5.08,-0.0788129912,0.1617066311
5.09,-0.07249998696,0.164210331
5.1,-0.06611555568,0.1664687952
5.11,-0.05966914882,0.1684804806
5.12,-0.05317021747,0.1702442036
5.13,-0.04662819899,0.1717591373
5.14,-0.04005250392,0.1730248076
5.15,-0.03345250314,0.1740410895
5.16,-0.02683751538,0.1748082024
5.17,-0.02021679505,0.1753267056
5.18,-0.01359952032,0.175597493
5.19,-0.006994781646,0.1756217873
5.2,-0.0004115705509,0.1754011341
5.21,0.006141231165,0.1749373957
5.22,0.01265486189,0.1742327445
5.23,0.01912069028,0.1732896557
5.24,0.02553022497,0.1721109006
5.25,0.03187512388,0.1706995385
5.26,0.03814720315,0.1690589097
5.27,0.04433844568,0.1671926271
5.28,0.05044100932,0.1651045679
5.29,0.05644723457,0.1627988658
5.3,0.062349652,0.1602799021
5.31,0.0681409892,0.1575522972
5.32,0.0738141774,0.1546209019
5.33,0.07936235765,0.1514907882
5.34,0.08477888665,0.1481672408
5.35,0.09005734221,0.1446557477
5.36,0.09519152831,0.1409619912
5.37,0.1001754798,0.1370918387
5.38,0.1050034668,0.1330513336
5.39,0.1096699985,0.1288466858
5.4,0.1141698272,0.1244842629
5.41,0.1184979511,0.1199705807
5.42,0.1226496175,0.1153122938
5.43,0.1266203258,0.110516187
5.44,0.1304058291,0.1055891655
5.45,0.1340021367,0.1005382462
5.46,0.1374055158,0.09537054873
5.47,0.1406124929,0.09009328609
5.48,0.1436198547,0.08471375606
5.49,0.1464246492,0.07923933226
5.5,0.1490241863,0.07367745539
5.51,0.1514160383,0.06803562461
5.52,0.1535980395,0.06232138897
5.53,0.1555682867,0.05654233891
5.54,0.1573251383,0.05070609793
5.55,0.1588672143,0.04482031434
5.56,0.160193395,0.03889265306
5.57,0.1613028201,0.03293078763
5.58,0.1621948879,0.02694239223
5.59,0.1628692535,0.02093513389
5.6,0.1633258275,0.01491666477
5.61,0.163564774,0.00889461456
5.62,0.1635865091,0.002876582986
5.63,0.1633916986,-0.003129867551
5.64,0.1629812557,-0.009117219246
5.65,0.1623563389,-0.01507800604
5.66,0.1615183494,-0.02100482069
5.67,0.1604689283,-0.02689032167
5.68,0.1592099538,-0.03272724002
5.69,0.1577435388,-0.03850838612
5.7,0.1560720271,-0.04422665623
5.71,0.1541979907,-0.0498750391
5.72,0.1521242263,-0.05544662235
5.73,0.149853752,-0.06093459884
5.74,0.1473898035,-0.06633227286
5.75,0.1447358308,-0.07163306631
5.76,0.141895494,-0.07683052474
5.77,0.1388726596,-0.08191832327
5.78,0.1356713965,-0.08689027254
5.79,0.1322959715,-0.0917403244
5.8,0.1287508455,-0.09646257763
5.81,0.1250406685,-0.1010512836
5.82,0.1211702755,-0.1055008515
5.83,0.1171446819,-0.1098058543
5.84,0.1129690781,-0.1139610335
5.85,0.1086488251,-0.1179613047
5.86,0.1041894495,-0.1218017626
5.87,0.09959663769,-0.1254776861
5.88,0.09487623116,-0.1289845432
5.89,0.09003422069,-0.1323179958
5.9,0.08507674077,-0.1354739046
5.91,0.0800100639,-0.1384483337
5.92,0.07484059463,-0.1412375547
5.93,0.06957486356,-0.1438380517
5.94,0.06421952105,-0.1462465252
5.95,0.05878133098,-0.1484598964
5.96,0.05326716414,-0.1504753109
5.97,0.04768399166,-0.1522901432
5.98,0.04203887813,-0.1539019998
5.99,0.0363389747,-0.1553087228
6,0.03059151193,-0.156508394
