"Freq [GHz]","re(S(Tx_p1,Tx_p1)) []","im(S(Tx_p1,Tx_p1)) []"
1,-0.03879926787,-0.1713563337
1.01,-0.04521432249,-0.1698447795
1.02,-0.05159627938,-0.1680788248
1.03,-0.0579334701,-0.1660582507
1.04,-0.06421420136,-0.1637834355
1.05,-0.07042678407,-0.1612553529
1.06,-0.0765595621,-0.1584755684
1.07,-0.08260094067,-0.1554462341
1.08,-0.08853941446,-0.1521700833
1.09,-0.09436359528,-0.1486504233
1.1,-0.1000622393,-0.1448911269
1.11,-0.1056242737,-0.1408966238
1.12,-0.111038823,-0.1366718895
1.13,-0.1162952346,-0.1322224344
1.14,-0.1213831037,-0.1275542906
1.15,-0.1262922978,-0.1226739992
1.16,-0.1310129802,-0.1175885949
1.17,-0.1355356327,-0.1123055909
1.18,-0.1398510781,-0.1068329624
1.19,-0.1439505008,-0.1011791288
1.2,-0.147825468,-0.09535293607
1.21,-0.1514679483,-0.08936363685
1.22,-0.1548703309,-0.08322087105
1.23,-0.1580254426,-0.07693464495
1.24,-0.1609265648,-0.07051530981
1.25,-0.163567449,-0.06397353979
1.26,-0.1659423309,-0.05732030922
1.27,-0.168045944,-0.05056686932
1.28,-0.169873532,-0.04372472435
1.29,-0.1714208598,-0.03680560731
1.3,-0.1726842235,-0.02982145523
1.31,-0.1736604592,-0.02278438396
1.32,-0.1743469508,-0.01570666282
1.33,-0.1747416364,-0.0086006888
1.34,-0.1748430136,-0.001478960641
1.35,-0.1746501435,0.005645947289
1.36,-0.1741626536,0.01276141123
1.37,-0.1733807396,0.01985478433
1.38,-0.1723051655,0.02691342294
1.39,-0.1709372633,0.03392471285
1.4,-0.1692789306,0.04087609547
1.41,-0.1673326277,0.04775509381
1.42,-0.1651013731,0.05454933826
1.43,-0.1625887382,0.06124659214
1.44,-0.1597988404,0.06783477687
1.45,-0.1567363354,0.07430199685
1.46,-0.1534064081,0.08063656387
1.47,-0.149814763,0.08682702109
1.48,-0.1459676124,0.09286216649
1.49,-0.141871665,0.09873107575
1.5,-0.1375341121,0.1044231245
1.51,-0.1329626138,0.1099280101
1.52,-0.1281652838,0.1152357723
1.53,-0.1231506731,0.1203368138
1.54,-0.1179277534,0.1252219193
1.55,-0.1125058993,0.1298822744
1.56,-0.1068948692,0.1343094832
1.57,-0.1011047867,0.1384955852
1.58,-0.09514611976,0.1424330714
1.59,-0.08902966043,0.146114899
1.6,-0.08276650311,0.1495345057
1.61,-0.0763680227,0.1526858226
1.62,-0.06984585194,0.1555632862
1.63,-0.06321185837,0.1581618494
1.64,-0.05647812082,0.1604769911
1.65,-0.04965690547,0.1625047257
1.66,-0.04276064159,0.1642416096
1.67,-0.03580189697,0.165684749
1.68,-0.02879335312,0.1668318045
1.69,-0.02174778025,0.1676809956
1.7,-0.01467801211,0.1682311041
1.71,-0.00759692078,0.1684814758
1.72,-0.0005173913549,0.1684320214
1.73,0.006547703293,0.1680832164
1.74,0.01358552772,0.1674360995
1.75,0.02058330901,0.1664922701
1.76,0.02752836165,0.1652538846
1.77,0.03440811224,0.1637236516
1.78,0.04121012393,0.1619048259
1.79,0.04792212049,0.1598012016
1.8,0.05453201008,0.1574171041
1.81,0.06102790851,0.1547573807
1.82,0.06739816218,0.1518273906
1.83,0.07363137034,0.1486329938
1.84,0.07971640694,0.1451805391
1.85,0.08564244183,0.1414768504
1.86,0.09139896128,0.1375292133
1.87,0.09697578792,0.1333453601
1.88,0.1023630999,0.1289334534
1.89,0.1075514492,0.1243020705
1.9,0.1125317795,0.1194601852
1.91,0.1172954428,0.11441715
1.92,0.1218342153,0.1091826771
1.93,0.1261403128,0.1037668192
1.94,0.1302064044,0.09817994886
1.95,0.1340256263,0.09243273816
1.96,0.1375915935,0.0865361372
1.97,0.1408984113,0.08050135241
1.98,0.1439406859,0.07433982429
1.99,0.146713533,0.06806320474
2,0.1492125867,0.06168333412
2.01,0.1514340061,0.0552122179
2.02,0.153374482,0.04866200312
2.03,0.1550312412,0.04204495455
2.04,0.1564020513,0.03537343081
2.05,0.1574852229,0.02865986025
2.06,0.1582796119,0.02191671683
2.07,0.1587846198,0.01515649599
2.08,0.1590001938,0.00839169048
2.09,0.1589268251,0.001634766365
2.1,0.1585655463,-0.005101860923
2.11,0.1579179281,-0.01180585031
2.12,0.1569860745,-0.01846495862
2.13,0.1557726175,-0.02506706381
2.14,0.1542807098,-0.03160018791
2.15,0.152514018,-0.0380525196
2.16,0.1504767129,-0.04441243641
2.17,0.1481734611,-0.05066852642
2.18,0.1456094133,-0.05680960953
2.19,0.1427901937,-0.06282475814
2.2,0.1397218871,-0.06870331734
2.21,0.1364110259,-0.07443492442
2.22,0.1328645763,-0.08000952777
2.23,0.1290899228,-0.0854174051
2.24,0.1250948533,-0.09064918098
2.25,0.1208875422,-0.09569584354
2.26,0.1164765339,-0.1005487605
2.27,0.1118707245,-0.1051996945
2.28,0.1070793439,-0.109640817
2.29,0.1021119369,-0.1138647223
2.3,0.09697834339,-0.11786444
2.31,0.09168867881,-0.1216334466
2.32,0.08625331351,-0.1251656762
2.33,0.08068285201,-0.128455531
2.34,0.07498811175,-0.1314978892
2.35,0.06918010161,-0.1342881139
2.36,0.06327000007,-0.1368220595
2.37,0.05726913318,-0.1390960778
2.38,0.05118895227,-0.1411070233
2.39,0.04504101157,-0.1428522566
2.4,0.03883694572,-0.1443296478
2.41,0.03258844717,-0.1455375785
2.42,0.02630724361,-0.1464749424
2.43,0.02000507543,-0.1471411458
2.44,0.01369367323,-0.147536106
2.45,0.007384735429,-0.1476602499
2.46,0.001089906122,-0.1475145102
2.47,-0.005179246963,-0.1471003224
2.48,-0.01141125419,-0.146419619
2.49,-0.01759476547,-0.1454748242
2.5,-0.02371857142,-0.1442688467
2.51,-0.02977162406,-0.1428050723
2.52,-0.03574305721,-0.1410873552
2.53,-0.04162220639,-0.1391200084
2.54,-0.04739862819,-0.1369077935
2.55,-0.05306211919,-0.1344559096
2.56,-0.0586027343,-0.1317699812
2.57,-0.06401080449,-0.1288560457
2.58,-0.06927695394,-0.1257205398
2.59,-0.07439211648,-0.1223702855
2.6,-0.0793475514,-0.1188124749
2.61,-0.08413485855,-0.1150546553
2.62,-0.08874599265,-0.1111047127
2.63,-0.09317327692,-0.1069708554
2.64,-0.09740941585,-0.1026615965
2.65,-0.1014475072,-0.09818573643
2.66,-0.1052810534,-0.0935523447
2.67,-0.1089039714,-0.08877074138
2.68,-0.1123106026,-0.08385047803
2.69,-0.1154957213,-0.07880131844
2.7,-0.1184545427,-0.07363321894
2.71,-0.1211827291,-0.06835630851
2.72,-0.1236763965,-0.06298086865
2.73,-0.1259321194,-0.05751731305
2.74,-0.1279469347,-0.05197616712
2.75,-0.1297183454,-0.04636804741
2.76,-0.1312443224,-0.040703641
2.77,-0.1325233061,-0.03499368478
2.78,-0.133554207,-0.02924894486
2.79,-0.1343364049,-0.02348019594
2.8,-0.1348697479,-0.01769820084
2.81,-0.13515455,-0.01191369014
2.82,-0.1351915878,-0.006137342019
2.83,-0.1349820969,-0.0003797622418
2.84,-0.1345277667,0.005348535503
2.85,-0.1338307348,0.01103714905
2.86,-0.1328935804,0.01667580684
2.87,-0.1317193173,0.02225438668
2.88,-0.1303113851,0.02776293404
2.89,-0.1286736408,0.03319168002
2.9,-0.126810349,0.03853105875
2.91,-0.1247261713,0.04377172438
2.92,-0.1224261557,0.04890456748
2.93,-0.1199157241,0.05392073096
2.94,-0.1172006606,0.05881162536
2.95,-0.114287098,0.06356894353
2.96,-0.1111815043,0.0681846747
2.97,-0.1078906684,0.07265111793
2.98,-0.1044216856,0.07696089479
2.99,-0.1007819421,0.08110696145
3,-0.09697909963,0.08508261995
3.01,-0.09302107897,0.08888152886
3.02,-0.08891604366,0.09249771306
3.03,-0.08467238303,0.09592557284
3.04,-0.08029869502,0.09915989222
3.05,-0.07580376867,0.1021958464
3.06,-0.07119656633,0.1050290086
3.07,-0.06648620572,0.1076553559
3.08,-0.06168194172,0.1100712742
3.09,-0.05679314813,0.1122735627
3.1,-0.05182929915,0.1142594375
3.11,-0.04679995099,0.1160265338
3.12,-0.04171472325,0.1175729081
3.13,-0.03658328044,0.118897039
3.14,-0.03141531344,0.1199978277
3.15,-0.02622052113,0.1208745969
3.16,-0.02100859199,0.1215270899
3.17,-0.01578918598,0.121955468
3.18,-0.01057191651,0.1221603076
3.19,-0.005366332642,0.1221425967
3.2,-0.0001819015199,0.12190373
3.21,0.004972008888,0.1214455038
3.22,0.01008614678,0.1207701099
3.23,0.01515139317,0.1198801291
3.24,0.02015877814,0.1187785235
3.25,0.02509949673,0.1174686286
3.26,0.02996492441,0.1159541446
3.27,0.03474663205,0.1142391265
3.28,0.03943640049,0.112327975
3.29,0.04402623453,0.1102254251
3.3,0.04850837645,0.1079365352
3.31,0.05287531897,0.1054666757
3.32,0.05711981766,0.1028215163
3.33,0.06123490268,0.1000070139
3.34,0.06521389003,0.09702939869
3.35,0.06905039212,0.09389516135
3.36,0.07273832765,0.09061103858
3.37,0.07627193097,0.08718399895
3.38,0.07964576061,0.08362122816
3.39,0.08285470725,0.07993011411
3.4,0.08589400099,0.07611823158
3.41,0.08875921783,0.07219332675
3.42,0.09144628557,0.06816330148
3.43,0.09395148892,0.06403619738
3.44,0.09627147387,0.05982017981
3.45,0.09840325148,0.05552352166
3.46,0.1003442008,0.05115458714
3.47,0.1020920709,0.04672181543
3.48,0.1036449831,0.0422337044
3.49,0.1050014308,0.03769879427
3.5,0.1061602803,0.03312565131
3.51,0.1071207701,0.02852285171
3.52,0.1078825093,0.0238989654
3.53,0.1084454759,0.01926254015
3.54,0.1088100138,0.01462208573
3.55,0.10897683,0.00998605832
3.56,0.1089469897,0.005362845135
3.57,0.1087219127,0.0007607492568
3.58,0.1083033671,-0.003812025202
3.59,0.1076934642,-0.008347387668
3.6,0.1068946512,-0.01283737533
3.61,0.1059097048,-0.01727416703
3.62,0.1047417231,-0.02165009673
3.63,0.1033941175,-0.02595766667
3.64,0.1018706039,-0.03018956
3.65,0.1001751934,-0.03433865301
3.66,0.09831218288,-0.03839802695
3.67,0.0962861442,-0.0423609793
3.68,0.09410191408,-0.04622103454
3.69,0.09176458282,-0.04997195446
3.7,0.08927948284,-0.0536077479
3.71,0.08665217692,-0.05712267993
3.72,0.083888446,-0.06051128054
3.73,0.08099427676,-0.06376835264
3.74,0.07797584881,-0.06688897962
3.75,0.07483952172,-0.06986853221
3.76,0.07159182173,-0.0727026748
3.77,0.06823942837,-0.07538737112
3.78,0.06478916073,-0.07791888932
3.79,0.06124796378,-0.08029380646
3.8,0.05762289439,-0.08250901234
3.81,0.0539211074,-0.08456171271
3.82,0.0501498415,-0.08644943192
3.83,0.04631640517,-0.08817001484
3.84,0.04242816253,-0.08972162827
3.85,0.03849251929,-0.09110276165
3.86,0.03451690865,-0.09231222719
3.87,0.0305087773,-0.09334915942
3.88,0.02647557161,-0.09421301407
3.89,0.02242472376,-0.09490356642
3.9,0.01836363815,-0.09542090901
3.91,0.01429967798,-0.09576544881
3.92,0.01024015193,-0.09593790382
3.93,0.006192301162,-0.0959392991
3.94,0.002163286483,-0.09577096227
3.95,-0.001839824164,-0.09543451844
3.96,-0.005810067964,-0.09493188473
3.97,-0.009740599176,-0.09426526416
3.98,-0.01362470075,-0.09343713916
3.99,-0.01745579561,-0.09245026455
4,-0.02122745754,-0.0913076601
4.01,-0.02493342175,-0.09001260266
4.02,-0.02856759498,-0.08856861788
4.03,-0.03212406522,-0.08697947151
4.04,-0.035597111,-0.08524916038
4.05,-0.03898121024,-0.08338190298
4.06,-0.04227104867,-0.08138212973
4.07,-0.04546152768,-0.07925447296
4.08,-0.04854777185,-0.0770037566
4.09,-0.05152513587,-0.07463498556
4.1,-0.05438921101,-0.07215333491
4.11,-0.05713583109,-0.06956413888
4.12,-0.0597610779,-0.06687287957
4.13,-0.06226128621,-0.0640851756
4.14,-0.06463304811,-0.06120677049
4.15,-0.06687321694,-0.05824352103
4.16,-0.06897891067,-0.0552013855
4.17,-0.07094751472,-0.05208641178
4.18,-0.07277668426,-0.04890472547
4.19,-0.07446434606,-0.04566251796
4.2,-0.0760086997,-0.04236603442
4.21,-0.07740821832,-0.03902156196
4.22,-0.07866164887,-0.03563541765
4.23,-0.0797680118,-0.03221393675
4.24,-0.08072660026,-0.02876346091
4.25,-0.08153697884,-0.02529032657
4.26,-0.08219898174,-0.02180085339
4.27,-0.08271271051,-0.01830133291
4.28,-0.08307853131,-0.01479801732
4.29,-0.0832970717,-0.01129710843
4.3,-0.08336921693,-0.007804746873
4.31,-0.08329610588,-0.004327001474
4.32,-0.08307912649,-0.0008698589209
4.33,-0.08271991079,0.002560786348
4.34,-0.08222032957,0.005959141968
4.35,-0.08158248661,0.009319527176
4.36,-0.08080871253,0.01263638205
4.37,-0.07990155836,0.0159042764
4.38,-0.07886378866,0.01911791836
4.39,-0.07769837439,0.02227216261
4.4,-0.07640848547,0.02536201826
4.41,-0.074997483,0.02838265631
4.42,-0.07346891122,0.03132941684
4.43,-0.07182648928,0.03419781568
4.44,-0.07007410271,0.03698355077
4.45,-0.06821579463,0.0396825081
4.46,-0.06625575691,0.04229076724
4.47,-0.06419832099,0.04480460638
4.48,-0.06204794863,0.04722050709
4.49,-0.0598092225,0.04953515852
4.5,-0.05748683666,0.05174546122
4.51,-0.0550855869,0.05384853055
4.52,-0.05261036102,0.05584169962
4.53,-0.05006612909,0.05772252183
4.54,-0.04745793358,0.05948877292
4.55,-0.04479087954,0.06113845263
4.56,-0.04207012472,0.06266978593
4.57,-0.03930086978,0.06408122382
4.58,-0.03648834841,0.06537144364
4.59,-0.03363781763,0.06653934907
4.6,-0.03075454807,0.06758406964
4.61,-0.02784381437,0.06850495981
4.62,-0.02491088568,0.06930159772
4.63,-0.02196101626,0.06997378348
4.64,-0.01899943627,0.07052153713
4.65,-0.01603134264,0.0709450961
4.66,-0.01306189014,0.07124491251
4.67,-0.01009618266,0.07142164984
4.68,-0.007139264639,0.07147617952
4.69,-0.004196112717,0.07140957695
4.7,-0.001271627643,0.07122311736
4.71,0.001629373622,0.07091827125
4.72,0.004502165536,0.07049669956
4.73,0.00734212135,0.06996024858
4.74,0.01014472021,0.06931094455
4.75,0.01290555398,0.06855098794
4.76,0.01562033378,0.06768274765
4.77,0.01828489623,0.06670875475
4.78,0.02089520934,0.06563169619
4.79,0.02344737819,0.06445440821
4.8,0.02593765018,0.06317986955
4.81,0.02836242001,0.06181119454
4.82,0.03071823434,0.060351626
4.83,0.03300179606,0.058804528
4.84,0.0352099683,0.05717337844
4.85,0.037339778,0.05546176163
4.86,0.03938841924,0.05367336068
4.87,0.04135325615,0.0518119498
4.88,0.04323182549,0.04988138663
4.89,0.04502183891,0.04788560441
4.9,0.04672118484,0.04582860416
4.91,0.04832793,0.04371444686
4.92,0.04984032066,0.0415472456
4.93,0.05125678349,0.03933115774
4.94,0.05257592604,0.03707037709
4.95,0.05379653699,0.03476912613
4.96,0.05491758599,0.03243164831
4.97,0.0559382232,0.03006220038
4.98,0.05685777849,0.02766504482
4.99,0.05767576037,0.02524444234
5,0.05839185457,0.02280464452
5.01,0.05900592236,0.02034988654
5.02,0.05951799852,0.01788438005
5.03,0.05992828911,0.01541230618
5.04,0.06023716887,0.01293780872
5.05,0.06044517843,0.01046498741
5.06,0.06055302123,0.007997891471
5.07,0.06056156016,0.00554051327
5.08,0.06047181406,0.003096782196
5.09,0.06028495387,0.0006705587317
5.1,0.06000229865,-0.001734371264
5.11,0.05962531137,-0.004114302059
5.12,0.05915559449,-0.006465613331
5.13,0.05859488536,-0.008784775218
5.14,0.05794505146,-0.01106835313
5.15,0.0572080855,-0.01331301235
5.16,0.05638610031,-0.01551552231
5.17,0.05548132363,-0.01767276075
5.18,0.0544960928,-0.01978171747
5.19,0.05343284928,-0.02183949797
5.2,0.05229413312,-0.02384332672
5.21,0.05108257729,-0.02579055024
5.22,0.049800902,-0.02767863988
5.23,0.04845190889,-0.02950519435
5.24,0.0470384752,-0.03126794201
5.25,0.04556354786,-0.03296474284
5.26,0.04403013766,-0.03459359022
5.27,0.04244131322,-0.0361526124
5.28,0.04080019514,-0.03764007369
5.29,0.03910995,-0.03905437549
5.3,0.03737378452,-0.04039405695
5.31,0.03559493957,-0.04165779547
5.32,0.03377668439,-0.04284440687
5.33,0.03192231078,-0.04395284541
5.34,0.03003512727,-0.04498220348
5.35,0.02811845352,-0.04593171114
5.36,0.02617561465,-0.04680073535
5.37,0.02420993573,-0.04758877902
5.38,0.02222473634,-0.04829547988
5.39,0.02022332521,-0.04892060903
5.4,0.01820899505,-0.04946406939
5.41,0.01618501736,-0.04992589393
5.42,0.01415463749,-0.05030624364
5.43,0.01212106976,-0.05060540541
5.44,0.01008749277,-0.05082378965
5.45,0.008057044755,-0.05096192785
5.46,0.006032819212,-0.05102046982
5.47,0.004017860593,-0.05100018094
5.48,0.002015160187,-0.05090193916
5.49,2.765216134E-05,-0.0507267319
5.5,-0.001941790233,-0.05047565283
5.51,-0.003890358282,-0.05014989851
5.52,-0.005815311263,-0.04975076489
5.53,-0.007713979719,-0.04927964383
5.54,-0.009583768553,-0.04873801937
5.55,-0.01142215995,-0.04812746399
5.56,-0.01322671611,-0.04744963481
5.57,-0.01499508182,-0.04670626971
5.58,-0.01672498677,-0.04589918332
5.59,-0.01841424783,-0.04503026311
5.6,-0.02006077097,-0.04410146523
5.61,-0.02166255314,-0.04311481053
5.62,-0.02321768388,-0.04207238039
5.63,-0.02472434678,-0.04097631262
5.64,-0.02618082078,-0.0398287973
5.65,-0.02758548126,-0.03863207266
5.66,-0.02893680098,-0.0373884209
5.67,-0.03023335079,-0.03610016411
5.68,-0.03147380027,-0.03476966013
5.69,-0.03265691812,-0.03339929844
5.7,-0.03378157241,-0.03199149616
5.71,-0.03484673068,-0.03054869397
5.72,-0.03585145987,-0.02907335218
5.73,-0.0367949261,-0.02756794677
5.74,-0.03767639429,-0.02603496555
5.75,-0.03849522768,-0.0244769043
5.76,-0.03925088715,-0.02289626309
5.77,-0.03994293044,-0.02129554253
5.78,-0.04057101124,-0.01967724024
5.79,-0.0411348781,-0.01804384725
5.8,-0.04163437335,-0.01639784463
5.81,-0.04206943172,-0.0147417001
5.82,-0.04244007903,-0.01307786476
5.83,-0.04274643064,-0.01140876995
5.84,-0.04298868986,-0.009736824137
5.85,-0.04316714629,-0.008064409958
5.86,-0.04328217399,-0.006393881344
5.87,-0.04333422965,-0.004727560738
5.88,-0.04332385065,-0.00306773643
5.89,-0.04325165299,-0.001416659987
5.9,-0.04311832928,0.0002234561969
5.91,-0.04292464653,0.001850441259
5.92,-0.04267144398,0.003462168103
5.93,-0.04235963082,0.005056555536
5.94,-0.04199018391,0.006631570289
5.95,-0.04156414542,0.008185228931
5.96,-0.04108262044,0.009715599679
5.97,-0.04054677459,0.01122080409
5.98,-0.03995783152,0.01269901865
5.99,-0.03931707054,0.01414847628
6,-0.03862582404,0.01556746765
