"Freq [GHz]","re(S(Tx_p1,Tx_p1)) []","im(S(Tx_p1,Tx_p1)) []"
1,-0.02283666285,-0.2451254991
1.01,-0.03130977573,-0.2438360777
1.02,-0.0397577023,-0.2422378344
1.03,-0.04816672742,-0.2403300423
1.04,-0.05652311814,-0.238112696
1.05,-0.06481315947,-0.2355865055
1.06,-0.0730231895,-0.2327528876
1.07,-0.08113963373,-0.2296139561
1.08,-0.08914903871,-0.2261725111
1.09,-0.09703810482,-0.2224320267
1.1,-0.1047937182,-0.2183966372
1.11,-0.1124029816,-0.2140711227
1.12,-0.1198532448,-0.2094608929
1.13,-0.1271321333,-0.2045719698
1.14,-0.1342275763,-0.1994109699
1.15,-0.141127834,-0.1939850842
1.16,-0.147821523,-0.1883020585
1.17,-0.1542976411,-0.1823701717
1.18,-0.1605455906,-0.1761982137
1.19,-0.1665552009,-0.1697954621
1.2,-0.1723167488,-0.1631716587
1.21,-0.1778209787,-0.1563369842
1.22,-0.1830591208,-0.1493020334
1.23,-0.1880229078,-0.142077789
1.24,-0.1927045911,-0.1346755951
1.25,-0.1970969546,-0.1271071301
1.26,-0.201193328,-0.1193843792
1.27,-0.204987598,-0.1115196068
1.28,-0.2084742187,-0.1035253279
1.29,-0.2116482198,-0.09541428015
1.3,-0.2145052148,-0.08719939488
1.31,-0.217041406,-0.0788937687
1.32,-0.2192535894,-0.0705106346
1.33,-0.2211391581,-0.0620633333
1.34,-0.2226961034,-0.05356528458
1.35,-0.2239230158,-0.0450299588
1.36,-0.2248190836,-0.0364708486
1.37,-0.2253840908,-0.0279014409
1.38,-0.2256184135,-0.01933518918
1.39,-0.2255230149,-0.01078548621
1.4,-0.2250994395,-0.002265637163
1.41,-0.2243498051,0.006211166752
1.42,-0.2232767951,0.01463187408
1.43,-0.221883648,0.02298359836
1.44,-0.2201741473,0.03125364264
1.45,-0.2181526091,0.03942952337
1.46,-0.2158238694,0.0474989935
1.47,-0.2131932703,0.05545006478
1.48,-0.210266645,0.06327102929
1.49,-0.2070503021,0.07095048003
1.5,-0.2035510091,0.07847733065
1.51,-0.199775975,0.08584083425
1.52,-0.195732832,0.09303060118
1.53,-0.1914296169,0.1000366159
1.54,-0.1868747516,0.1068492527
1.55,-0.1820770231,0.1134592906
1.56,-0.1770455627,0.119857927
1.57,-0.1717898253,0.1260367902
1.58,-0.1663195676,0.1319879511
1.59,-0.1606448266,0.1377039336
1.6,-0.1547758972,0.1431777239
1.61,-0.1487233102,0.1484027788
1.62,-0.142497809,0.1533730328
1.63,-0.1361103279,0.1580829039
1.64,-0.1295719682,0.1625272987
1.65,-0.1228939765,0.1667016161
1.66,-0.116087721,0.1706017502
1.67,-0.1091646691,0.1742240914
1.68,-0.102136365,0.1775655274
1.69,-0.09501440706,0.1806234427
1.7,-0.0878104256,0.1833957165
1.71,-0.08053606113,0.1858807207
1.72,-0.07320294268,0.1880773162
1.73,-0.0658226666,0.1899848479
1.74,-0.05840677576,0.1916031402
1.75,-0.05096673921,0.1929324897
1.76,-0.0435139323,0.1939736582
1.77,-0.03605961736,0.194727865
1.78,-0.02861492496,0.1951967775
1.79,-0.02119083572,0.1953825017
1.8,-0.0137981628,0.1952875719
1.81,-0.006447535007,0.1949149393
1.82,0.0008506193551,0.1942679605
1.83,0.008086087977,0.1933503849
1.84,0.01524888927,0.1921663419
1.85,0.02232928635,0.1907203271
1.86,0.02931780024,0.1890171887
1.87,0.03620522228,0.1870621126
1.88,0.04298262575,0.1848606078
1.89,0.04964137668,0.1824184914
1.9,0.05617314383,0.1797418725
1.91,0.06256990782,0.1768371368
1.92,0.0688239695,0.1737109304
1.93,0.07492795739,0.1703701436
1.94,0.08087483441,0.1668218946
1.95,0.08665790365,0.163073513
1.96,0.0922708134,0.1591325229
1.97,0.09770756137,0.1550066271
1.98,0.1029624981,0.1507036899
1.99,0.1080303294,0.1462317209
2,0.1129061183,0.1415988585
2.01,0.1175852863,0.136813354
2.02,0.1220636131,0.1318835552
2.03,0.1263372368,0.1268178907
2.04,0.1304026524,0.1216248542
2.05,0.1342567098,0.1163129892
2.06,0.1378966119,0.1108908743
2.07,0.1413199108,0.105367108
2.08,0.1445245046,0.09975029448
2.09,0.1475086327,0.09404903009
2.1,0.1502708709,0.08827188933
2.11,0.1528101262,0.08242741194
2.12,0.1551256309,0.07652409026
2.13,0.1572169357,0.07057035703
2.14,0.1590839034,0.06457457372
2.15,0.1607267014,0.05854501932
2.16,0.1621457942,0.05248987967
2.17,0.1633419353,0.04641723735
2.18,0.1643161589,0.04033506203
2.19,0.1650697715,0.03425120141
2.2,0.1656043429,0.02817337272
2.21,0.1659216973,0.02210915472
2.22,0.1660239041,0.01606598029
2.23,0.1659132685,0.01005112957
2.24,0.1655923219,0.004071723624
2.25,0.1650638127,-0.001865281323
2.26,0.1643306962,-0.007753099114
2.27,0.1633961253,-0.01358511837
2.28,0.1622634408,-0.01935490667
2.29,0.1609361615,-0.02505621418
2.3,0.1594179751,-0.03068297686
2.31,0.1577127283,-0.0362293191
2.32,0.1558244174,-0.04168955589
2.33,0.1537571796,-0.04705819462
2.34,0.1515152831,-0.05232993629
2.35,0.1491031188,-0.05749967641
2.36,0.1465251912,-0.06256250547
2.37,0.1437861099,-0.06751370895
2.38,0.1408905815,-0.07234876706
2.39,0.1378434014,-0.07706335406
2.4,0.1346494459,-0.08165333732
2.41,0.1313136646,-0.08611477598
2.42,0.1278410736,-0.09044391946
2.43,0.1242367479,-0.09463720557
2.44,0.1205058152,-0.09869125851
2.45,0.1166534492,-0.1026028866
2.46,0.1126848637,-0.1063690797
2.47,0.1086053069,-0.1099870068
2.48,0.1044200557,-0.1134540132
2.49,0.100134411,-0.1167676175
2.5,0.09575369241,-0.1199255086
2.51,0.09128323404,-0.1229255431
2.52,0.08672838021,-0.1257657415
2.53,0.08209448158,-0.1284442856
2.54,0.07738689154,-0.1309595153
2.55,0.07261096289,-0.1333099251
2.56,0.0677720448,-0.1354941615
2.57,0.06287548006,-0.1375110196
2.58,0.05792660256,-0.1393594403
2.59,0.05293073504,-0.1410385073
2.6,0.047893187,-0.1425474443
2.61,0.04281925299,-0.1438856123
2.62,0.03771421087,-0.1450525074
2.63,0.03258332049,-0.1460477576
2.64,0.02743182238,-0.1468711213
2.65,0.02226493664,-0.1475224847
2.66,0.01708786203,-0.1480018601
2.67,0.01190577506,-0.1483093842
2.68,0.006723829277,-0.148445316
2.69,0.001547154588,-0.1484100361
2.7,-0.003619143331,-0.1482040449
2.71,-0.008769983603,-0.1478279621
2.72,-0.01390031068,-0.1472825254
2.73,-0.01900509487,-0.1465685902
2.74,-0.02407933286,-0.1456871288
2.75,-0.02911804832,-0.1446392307
2.76,-0.03411629247,-0.1434261018
2.77,-0.03906914481,-0.1420490651
2.78,-0.04397171384,-0.1405095609
2.79,-0.04881913795,-0.1388091468
2.8,-0.0536065864,-0.1369494986
2.81,-0.05832926042,-0.1349324112
2.82,-0.06298239447,-0.132759799
2.83,-0.06756125764,-0.1304336972
2.84,-0.07206115526,-0.1279562629
2.85,-0.07647743065,-0.1253297759
2.86,-0.0808054671,-0.1225566404
2.87,-0.08504069,-0.1196393859
2.88,-0.08917856927,-0.1165806689
2.89,-0.09321462193,-0.1133832739
2.9,-0.09714441493,-0.110050115
2.91,-0.1009635682,-0.1065842372
2.92,-0.104667758,-0.1029888178
2.93,-0.1082527204,-0.09926716742
2.94,-0.111714255,-0.09542273143
2.95,-0.1150482291,-0.09145909098
2.96,-0.1182505817,-0.08737996403
2.97,-0.1213173284,-0.0831892062
2.98,-0.1242445655,-0.07889081147
2.99,-0.1270284755,-0.07448891277
3,-0.1296653322,-0.06998778232
3.01,-0.1321515056,-0.06539183181
3.02,-0.1344834681,-0.06070561228
3.03,-0.1366577997,-0.05593381388
3.04,-0.1386711945,-0.05108126522
3.05,-0.1405204664,-0.04615293257
3.06,-0.1422025553,-0.04115391869
3.07,-0.143714534,-0.03608946136
3.08,-0.1450536142,-0.03096493161
3.09,-0.1462171535,-0.02578583158
3.1,-0.1472026618,-0.02055779205
3.11,-0.1480078082,-0.01528656963
3.12,-0.1486304281,-0.009978043468
3.13,-0.1490685294,-0.004638211741
3.14,-0.1493203,0.0007268123965
3.15,-0.1493841142,0.006110805178
3.16,-0.1492585396,0.01150743702
3.17,-0.1489423439,0.01691027774
3.18,-0.1484345013,0.02231280214
3.19,-0.1477341993,0.02770839608
3.2,-0.1468408447,0.03309036287
3.21,-0.14575407,0.03845193016
3.22,-0.1444737395,0.04378625719
3.23,-0.1429999548,0.04908644248
3.24,-0.1413330604,0.05434553184
3.25,-0.1394736492,0.05955652692
3.26,-0.1374225672,0.06471239396
3.27,-0.1351809182,0.06980607306
3.28,-0.1327500683,0.07483048775
3.29,-0.1301316495,0.07977855491
3.3,-0.1273275637,0.08464319502
3.31,-0.1243399853,0.08941734273
3.32,-0.1211713645,0.09409395775
3.33,-0.1178244291,0.09866603598
3.34,-0.1143021865,0.103126621
3.35,-0.1106079247,0.1074688155
3.36,-0.1067452136,0.1116857934
3.37,-0.1027179047,0.1157708119
3.38,-0.09853013117,0.1197172235
3.39,-0.09418630674,0.1235184884
3.4,-0.08969112442,0.1271681873
3.41,-0.0850495544,0.1306600334
3.42,-0.08026684145,0.1339878856
3.43,-0.0753485017,0.1371457609
3.44,-0.07030031882,0.1401278467
3.45,-0.06512833954,0.1429285141
3.46,-0.05983886856,0.1455423299
3.47,-0.05443846293,0.1479640694
3.48,-0.0489339256,0.1501887283
3.49,-0.04333229858,0.1522115354
3.5,-0.03764085529,0.1540279639
3.51,-0.03186709241,0.1556337438
3.52,-0.02601872104,0.157024873
3.53,-0.02010365728,0.1581976286
3.54,-0.01413001229,0.1591485774
3.55,-0.008106081588,0.1598745871
3.56,-0.002040333979,0.1603728358
3.57,0.004058600224,0.1606408218
3.58,0.01018194144,0.1606763733
3.59,0.01632077363,0.1604776563
3.6,0.02246605756,0.1600431837
3.61,0.02860864459,0.1593718225
3.62,0.0347392909,0.1584628009
3.63,0.04084867216,0.1573157153
3.64,0.04692739861,0.1559305358
3.65,0.0529660305,0.1543076116
3.66,0.05895509392,0.1524476757
3.67,0.06488509693,0.1503518488
3.68,0.07074654594,0.1480216424
3.69,0.07652996247,0.1454589615
3.7,0.08222589999,0.1426661062
3.71,0.08782496106,0.1396457728
3.72,0.09331781458,0.1364010541
3.73,0.09869521313,0.1329354385
3.74,0.1039480105,0.1292528091
3.75,0.109067179,0.1253574413
3.76,0.1140438274,0.1212539999
3.77,0.1188692179,0.1169475352
3.78,0.1235347837,0.1124434787
3.79,0.1280321466,0.1077476373
3.8,0.1323531335,0.1028661877
3.81,0.1364897942,0.0978056685
3.82,0.1404344173,0.09257297317
3.83,0.144179547,0.08717534096
3.84,0.1477179996,0.08162034757
3.85,0.1510428785,0.075915895
3.86,0.1541475903,0.0700702005
3.87,0.1570258593,0.0640917849
3.88,0.1596717425,0.0579894601
3.89,0.1620796431,0.05177231594
3.9,0.1642443243,0.04544970627
3.91,0.166160922,0.03903123449
3.92,0.1678249575,0.03252673827
3.93,0.1692323486,0.02594627381
3.94,0.1703794208,0.01930009939
3.95,0.171262918,0.01259865844
3.96,0.1718800114,0.005852562022
3.97,0.1722283087,-0.0009274291759
3.98,0.172305862,-0.007730423283
3.99,0.1721111751,-0.01454541615
4,0.1716432098,-0.02136131063
4.01,0.1709013913,-0.02816693621
4.02,0.1698856132,-0.034951069
4.03,0.1685962408,-0.04170245191
4.04,0.1670341144,-0.04840981518
4.05,0.165200551,-0.05506189696
4.06,0.1630973452,-0.0616474642
4.07,0.1607267696,-0.06815533349
4.08,0.1580915737,-0.07457439211
4.09,0.155194982,-0.08089361893
4.1,0.1520406915,-0.08710210547
4.11,0.1486328676,-0.09318907674
4.12,0.1449761397,-0.09914391204
4.13,0.1410755955,-0.1049561656
4.14,0.1369367741,-0.1106155868
4.15,0.1325656589,-0.1161121408
4.16,0.127968669,-0.1214360277
4.17,0.1231526496,-0.1265777028
4.18,0.1181248619,-0.1315278953
4.19,0.112892972,-0.1362776269
4.2,0.1074650387,-0.1408182306
4.21,0.1018495008,-0.1451413678
4.22,0.09605516333,-0.1492390458
4.23,0.09009118277,-0.1531036346
4.24,0.08396705221,-0.1567278823
4.25,0.07769258505,-0.1601049311
4.26,0.07127789835,-0.1632283312
4.27,0.06473339536,-0.1660920551
4.28,0.05806974748,-0.1686905108
4.29,0.05129787557,-0.1710185537
4.3,0.04442893063,-0.1730714983
4.31,0.03747427407,-0.174845129
4.32,0.0304454573,-0.1763357092
4.33,0.02335420106,-0.1775399911
4.34,0.01621237415,-0.1784552227
4.35,0.00903197188,-0.1790791554
4.36,0.001825094195,-0.1794100494
4.37,-0.005396076548,-0.1794466792
4.38,-0.012619298,-0.1791883376
4.39,-0.01983229044,-0.1786348382
4.4,-0.02702275957,-0.177786518
4.41,-0.0341784194,-0.176644238
4.42,-0.04128701517,-0.1752093832
4.43,-0.04833634629,-0.1734838616
4.44,-0.05531428928,-0.1714701019
4.45,-0.06220882055,-0.1691710504
4.46,-0.0690080391,-0.1665901669
4.47,-0.07570018903,-0.1637314195
4.48,-0.08227368178,-0.1605992782
4.49,-0.08871711812,-0.1571987076
4.5,-0.09501930987,-0.1535351592
4.51,-0.1011693011,-0.1496145616
4.52,-0.1071563892,-0.1454433107
4.53,-0.1129701451,-0.1410282584
4.54,-0.1186004332,-0.136376701
4.55,-0.124037431,-0.1314963658
4.56,-0.1292716476,-0.1263953975
4.57,-0.134293942,-0.121082344
4.58,-0.1390955408,-0.1155661403
4.59,-0.1436680547,-0.109856093
4.6,-0.1480034947,-0.1039618628
4.61,-0.1520942874,-0.0978934472
4.62,-0.1559332898,-0.09166116204
4.63,-0.1595138023,-0.08527562262
4.64,-0.1628295823,-0.07874772403
4.65,-0.1658748557,-0.07208862114
4.66,-0.1686443279,-0.06530970786
4.67,-0.1711331941,-0.05842259611
4.68,-0.1733371485,-0.05143909422
4.69,-0.1752523919,-0.04437118499
4.7,-0.1768756397,-0.03723100345
4.71,-0.1782041275,-0.03003081423
4.72,-0.1792356163,-0.02278298876
4.73,-0.1799683969,-0.01549998224
4.74,-0.1804012929,-0.008194310427
4.75,-0.1805336624,-0.0008785263526
4.76,-0.1803653996,0.006434803048
4.77,-0.1798969343,0.01373312031
4.78,-0.179129231,0.02100390076
4.79,-0.1780637868,0.02823467583
4.8,-0.1767026282,0.03541305612
4.81,-0.175048307,0.04252675437
4.82,-0.1731038949,0.04956360824
4.83,-0.1708729775,0.05651160268
4.84,-0.168359647,0.06335889217
4.85,-0.1655684942,0.07009382243
4.86,-0.1625045991,0.07670495185
4.87,-0.159173521,0.0831810724
4.88,-0.1555812875,0.0895112301
4.89,-0.1517343827,0.09568474492
4.9,-0.1476397343,0.1016912302
4.91,-0.1433047005,0.1075206112
4.92,-0.1387370548,0.1131631435
4.93,-0.1339449717,0.1186094302
4.94,-0.1289370103,0.1238504388
4.95,-0.123722098,0.1288775169
4.96,-0.1183095131,0.1336824079
4.97,-0.1127088668,0.1382572649
4.98,-0.1069300849,0.1425946643
4.99,-0.1009833886,0.146687619
5,-0.09487927532,0.1505295897
5.01,-0.08862849791,0.1541144962
5.02,-0.08224204485,0.1574367271
5.03,-0.07573111906,0.1604911494
5.04,-0.06910711678,0.163273116
5.05,-0.06238160601,0.1657784734
5.06,-0.05556630473,0.1680035676
5.07,-0.04867305894,0.1699452494
5.08,-0.04171382048,0.171600879
5.09,-0.03470062472,0.1729683286
5.1,-0.02764556822,0.174045985
5.11,-0.02056078635,0.174832751
5.12,-0.01345843084,0.1753280455
5.13,-0.006350647545,0.1755318026
5.14,0.0007504458725,0.1754444703
5.15,0.007832781966,0.1750670073
5.16,0.01488436542,0.1744008799
5.17,0.02189329469,0.1734480569
5.18,0.02884778342,0.1722110046
5.19,0.03573618149,0.1706926796
5.2,0.04254699571,0.1688965223
5.21,0.04926891019,0.1668264477
5.22,0.05589080615,0.1644868372
5.23,0.06240178141,0.1618825278
5.24,0.06879116923,0.1590188021
5.25,0.07504855669,0.155901376
5.26,0.08116380249,0.1525363869
5.27,0.08712705411,0.1489303802
5.28,0.09292876434,0.1450902959
5.29,0.09855970716,0.1410234539
5.3,0.1040109929,0.1367375389
5.31,0.1092740828,0.132240585
5.32,0.1143408024,0.127540959
5.33,0.119203355,0.1226473438
5.34,0.1238543333,0.1175687212
5.35,0.1282867309,0.1123143539
5.36,0.1324939532,0.1068937674
5.37,0.1364698264,0.1013167317
5.38,0.140208607,0.09559324178
5.39,0.1437049891,0.08973349897
5.4,0.1469541122,0.08374789113
5.41,0.1499515669,0.07764697306
5.42,0.1526934003,0.07144144655
5.43,0.1551761207,0.06514214035
5.44,0.1573967007,0.05875999006
5.45,0.1593525803,0.0523060179
5.46,0.1610416684,0.04579131247
5.47,0.1624623437,0.03922700857
5.48,0.1636134546,0.03262426703
5.49,0.1644943186,0.02599425466
5.5,0.1651047203,0.01934812433
5.51,0.1654449087,0.01269699522
5.52,0.165515594,0.006051933267
5.53,0.1653179431,-0.000576068086
5.54,0.1648535747,-0.007176106945
5.55,0.1641245532,-0.01373739164
5.56,0.1631333822,-0.02024925906
5.57,0.1618829968,-0.02670119263
5.58,0.1603767559,-0.03308283986
5.59,0.1586184328,-0.03938402943
5.6,0.1566122057,-0.04559478783
5.61,0.154362648,-0.05170535549
5.62,0.1518747166,-0.05770620238
5.63,0.1491537409,-0.06358804303
5.64,0.1462054108,-0.06934185106
5.65,0.1430357637,-0.07495887298
5.66,0.1396511715,-0.08043064149
5.67,0.1360583271,-0.08574898805
5.68,0.1322642299,-0.09090605487
5.69,0.1282761717,-0.09589430619
5.7,0.1241017212,-0.1007065388
5.71,0.1197487094,-0.1053358921
5.72,0.1152252132,-0.109775857
5.73,0.1105395399,-0.1140202846
5.74,0.1057002108,-0.1180633939
5.75,0.1007159449,-0.1218997786
5.76,0.09559564202,-0.1255244137
5.77,0.09034836613,-0.1289326604
5.78,0.08498332843,-0.1321202715
5.79,0.07950987019,-0.1350833949
5.8,0.07393744575,-0.1378185771
5.81,0.0682756053,-0.1403227656
5.82,0.06253397779,-0.1425933108
5.83,0.05672225382,-0.1446279666
5.84,0.0508501686,-0.1464248913
5.85,0.04492748503,-0.1479826466
5.86,0.03896397688,-0.1493001968
5.87,0.03296941215,-0.1503769067
5.88,0.0269535366,-0.1512125395
5.89,0.02092605753,-0.1518072528
5.9,0.01489662779,-0.1521615957
5.91,0.008874830017,-0.1522765033
5.92,0.002870161244,-0.1521532924
5.93,-0.003107982214,-0.1517936551
5.94,-0.009050319518,-0.1511996529
5.95,-0.0149476997,-0.1503737092
5.96,-0.02079111563,-0.1493186025
5.97,-0.02657171766,-0.148037458
5.98,-0.03228082671,-0.1465337389
5.99,-0.03790994702,-0.1448112379
6,-0.04345077837,-0.1428740673
