"Freq [GHz]","re(S(Tx_p1,Tx_p1)) []","im(S(Tx_p1,Tx_p1)) []"
1,0.01765111293,-0.2431843958
1.01,0.009913912446,-0.2434117964
1.02,0.002140312243,-0.2433897716
1.03,-0.005659593024,-0.2431149688
1.04,-0.01347558466,-0.2425845607
1.05,-0.02129734522,-0.2417962425
1.06,-0.02911448318,-0.2407482275
1.07,-0.03691655705,-0.239439242
1.08,-0.04469309884,-0.23786852
1.09,-0.05243363689,-0.2360357968
1.1,-0.0601277181,-0.2339413017
1.11,-0.06776492941,-0.2315857504
1.12,-0.0753349187,-0.2289703365
1.13,-0.08282741497,-0.2260967225
1.14,-0.09023224776,-0.2229670305
1.15,-0.09753936597,-0.2195838313
1.16,-0.1047388559,-0.2159501343
1.17,-0.1118209585,-0.2120693763
1.18,-0.1187760862,-0.2079454094
1.19,-0.1255948384,-0.2035824891
1.2,-0.1322680168,-0.198985262
1.21,-0.1387866399,-0.1941587526
1.22,-0.1451419564,-0.1891083505
1.23,-0.1513254581,-0.1838397963
1.24,-0.1573288923,-0.1783591685
1.25,-0.1631442729,-0.1726728691
1.26,-0.1687638913,-0.1667876095
1.27,-0.1741803262,-0.160710396
1.28,-0.179386453,-0.1544485156
1.29,-0.1843754522,-0.1480095212
1.3,-0.1891408174,-0.1414012168
1.31,-0.1936763621,-0.1346316429
1.32,-0.1979762268,-0.1277090618
1.33,-0.202034884,-0.1206419426
1.34,-0.2058471442,-0.1134389465
1.35,-0.2094081598,-0.1061089124
1.36,-0.2127134293,-0.09866084189
1.37,-0.2157588008,-0.09110388506
1.38,-0.2185404743,-0.08344732583
1.39,-0.2210550044,-0.07570056783
1.4,-0.2232993015,-0.06787312024
1.41,-0.2252706334,-0.05997458384
1.42,-0.2269666254,-0.05201463725
1.43,-0.2283852609,-0.04400302335
1.44,-0.2295248809,-0.03594953592
1.45,-0.2303841831,-0.02786400651
1.46,-0.230962221,-0.01975629151
1.47,-0.2312584021,-0.0116362595
1.48,-0.2312724859,-0.003513778806
1.49,-0.2310045818,0.004601294692
1.5,-0.2304551461,0.01269912945
1.51,-0.2296249793,0.02076992995
1.52,-0.2285152226,0.02880394809
1.53,-0.2271273542,0.03679149431
1.54,-0.2254631855,0.04472294852
1.55,-0.223524857,0.05258877066
1.56,-0.221314834,0.06037951106
1.57,-0.2188359017,0.06808582056
1.58,-0.2160911603,0.07569846035
1.59,-0.2130840205,0.08320831153
1.6,-0.2098181977,0.09060638444
1.61,-0.2062977069,0.09788382781
1.62,-0.2025268567,0.1050319376
1.63,-0.1985102444,0.1120421654
1.64,-0.1942527491,0.1189061275
1.65,-0.1897595264,0.125615612
1.66,-0.1850360019,0.1321625877
1.67,-0.1800878649,0.1385392117
1.68,-0.1749210621,0.1447378362
1.69,-0.1695417911,0.150751017
1.7,-0.1639564934,0.1565715197
1.71,-0.1581718481,0.1621923273
1.72,-0.1521947646,0.1676066464
1.73,-0.1460323757,0.1728079145
1.74,-0.1396920308,0.177789806
1.75,-0.133181288,0.1825462387
1.76,-0.1265079075,0.1870713796
1.77,-0.1196798436,0.1913596513
1.78,-0.1127052374,0.1954057375
1.79,-0.105592409,0.1992045888
1.8,-0.09834984953,0.2027514281
1.81,-0.09098621348,0.2060417562
1.82,-0.08351031042,0.2090713566
1.83,-0.0759310968,0.2118363007
1.84,-0.06825766764,0.2143329529
1.85,-0.06049924795,0.216557975
1.86,-0.05266518411,0.2185083311
1.87,-0.04476493508,0.2201812916
1.88,-0.03680806338,0.2215744376
1.89,-0.028804226,0.2226856653
1.9,-0.02076316506,0.2235131892
1.91,-0.01269469842,0.2240555463
1.92,-0.004608709992,0.2243115992
1.93,0.003484860048,0.2242805397
1.94,0.01157602523,0.2239618917
1.95,0.01965476297,0.2233555138
1.96,0.02771102485,0.2224616022
1.97,0.03573474718,0.2212806929
1.98,0.04371586163,0.2198136637
1.99,0.05164430613,0.218061736
2,0.05951003585,0.2160264763
2.01,0.06730303441,0.2137097975
2.02,0.07501332524,0.2111139596
2.03,0.08263098306,0.2082415704
2.04,0.09014614557,0.2050955855
2.05,0.09754902523,0.2016793083
2.06,0.1048299212,0.1979963897
2.07,0.1119792313,0.1940508265
2.08,0.1189874645,0.1898469609
2.09,0.1258452527,0.1853894781
2.1,0.1325433635,0.1806834047
2.11,0.1390727125,0.1757341058
2.12,0.1454243756,0.1705472819
2.13,0.1515896018,0.1651289656
2.14,0.1575598258,0.1594855175
2.15,0.16332668,0.1536236219
2.16,0.1688820079,0.1475502818
2.17,0.1742178759,0.141272813
2.18,0.1793265861,0.1347988388
2.19,0.1842006886,0.1281362832
2.2,0.1888329936,0.1212933638
2.21,0.1932165841,0.1142785845
2.22,0.1973448271,0.107100727
2.23,0.2012113862,0.09976884268
2.24,0.2048102327,0.09229224323
2.25,0.2081356572,0.0846804909
2.26,0.2111822809,0.07694338832
2.27,0.2139450661,0.06909096782
2.28,0.216419327,0.06113348005
2.29,0.2186007401,0.05308138222
2.3,0.2204853538,0.04494532577
2.31,0.2220695976,0.03673614355
2.32,0.223350292,0.02846483646
2.33,0.2243246563,0.02014255971
2.34,0.2249903171,0.01178060845
2.35,0.225345316,0.00339040313
2.36,0.2253881165,-0.00501652573
2.37,0.2251176107,-0.01342855311
2.38,0.2245331252,-0.02183397547
2.39,0.2236344268,-0.03022102714
2.4,0.2224217266,-0.03857789702
2.41,0.2208956849,-0.04689274565
2.42,0.219057414,-0.05515372256
2.43,0.2169084815,-0.06334898389
2.44,0.2144509117,-0.0714667103
2.45,0.2116871877,-0.07949512508
2.46,0.2086202512,-0.08742251241
2.47,0.205253503,-0.09523723582
2.48,0.2015908015,-0.1029277568
2.49,0.1976364613,-0.1104826533
2.5,0.1933952506,-0.1178906388
2.51,0.1888723875,-0.1251405805
2.52,0.1840735366,-0.1322215187
2.53,0.179004803,-0.1391226847
2.54,0.1736727275,-0.14583352
2.55,0.1680842794,-0.1523436944
2.56,0.1622468491,-0.1586431242
2.57,0.15616824,-0.1647219906
2.58,0.1498566591,-0.1705707571
2.59,0.1433207077,-0.1761801869
2.6,0.1365693699,-0.1815413608
2.61,0.1296120018,-0.1866456931
2.62,0.1224583187,-0.1914849484
2.63,0.1151183824,-0.1960512578
2.64,0.1076025873,-0.2003371337
2.65,0.09992164571,-0.2043354855
2.66,0.09208657281,-0.2080396331
2.67,0.08410867061,-0.2114433216
2.68,0.07599951134,-0.2145407338
2.69,0.06777092026,-0.2173265028
2.7,0.05943495772,-0.219795724
2.71,0.0510039008,-0.2219439659
2.72,0.04249022426,-0.2237672806
2.73,0.03390658102,-0.225262213
2.74,0.02526578219,-0.2264258098
2.75,0.01658077661,-0.2272556274
2.76,0.007864629937,-0.2277497383
2.77,-0.0008694965084,-0.227906738
2.78,-0.00960836738,-0.2277257495
2.79,-0.01833869514,-0.2272064277
2.8,-0.02704716219,-0.2263489632
2.81,-0.03572044317,-0.2251540837
2.82,-0.04434522747,-0.2236230564
2.83,-0.0529082418,-0.2217576876
2.84,-0.06139627289,-0.2195603224
2.85,-0.0697961902,-0.2170338431
2.86,-0.07809496857,-0.2141816665
2.87,-0.08627971086,-0.2110077404
2.88,-0.09433767046,-0.2075165389
2.89,-0.1022562736,-0.2037130568
2.9,-0.1100231416,-0.1996028029
2.91,-0.1176261124,-0.1951917925
2.92,-0.1250532629,-0.1904865389
2.93,-0.1322929292,-0.1854940436
2.94,-0.1393337283,-0.1802217861
2.95,-0.1461645779,-0.1746777122
2.96,-0.1527747169,-0.1688702219
2.97,-0.1591537244,-0.162808156
2.98,-0.1652915384,-0.1565007821
2.99,-0.1711784748,-0.1499577794
3,-0.1768052439,-0.1431892233
3.01,-0.1821629685,-0.1362055686
3.02,-0.1872431989,-0.1290176322
3.03,-0.1920379294,-0.1216365751
3.04,-0.196539612,-0.1140738838
3.05,-0.2007411711,-0.1063413506
3.06,-0.2046360155,-0.09845105381
3.07,-0.2082180515,-0.09041533722
3.08,-0.2114816932,-0.08224678889
3.09,-0.2144218731,-0.07395821957
3.1,-0.2170340516,-0.06556264066
3.11,-0.2193142249,-0.05707324177
3.12,-0.2212589324,-0.04850336788
3.13,-0.222865263,-0.03986649626
3.14,-0.2241308606,-0.03117621303
3.15,-0.2250539281,-0.02244618957
3.16,-0.2256332304,-0.0136901588
3.17,-0.2258680969,-0.004921891173
3.18,-0.2257584224,0.003844829179
3.19,-0.2253046671,0.01259622851
3.2,-0.2245078556,0.02131856739
3.21,-0.2233695746,0.0299981646
3.22,-0.2218919699,0.03862142091
3.23,-0.2200777425,0.04717484265
3.24,-0.2179301426,0.0556450651
3.25,-0.2154529641,0.06401887558
3.26,-0.2126505368,0.07228323623
3.27,-0.2095277184,0.08042530646
3.28,-0.2060898853,0.08843246497
3.29,-0.2023429223,0.0962923313
3.3,-0.1982932112,0.1039927869
3.31,-0.1939476195,0.1115219958
3.32,-0.1893134867,0.1188684244
3.33,-0.1843986112,0.1260208608
3.34,-0.1792112351,0.1329684339
3.35,-0.1737600294,0.1397006308
3.36,-0.1680540778,0.1462073148
3.37,-0.1621028594,0.1524787411
3.38,-0.1559162317,0.1585055735
3.39,-0.1495044124,0.1642788986
3.4,-0.1428779603,0.1697902403
3.41,-0.1360477564,0.175031573
3.42,-0.1290249837,0.1799953337
3.43,-0.1218211072,0.1846744338
3.44,-0.1144478531,0.1890622694
3.45,-0.1069171872,0.193152731
3.46,-0.09924129421,0.196940212
3.47,-0.09143255531,0.2004196164
3.48,-0.08350352641,0.2035863656
3.49,-0.07546691579,0.206436404
3.5,-0.06733556176,0.2089662034
3.51,-0.05912241007,0.2111727674
3.52,-0.05084049134,0.2130536334
3.53,-0.04250289839,0.2146068747
3.54,-0.03412276368,0.2158311011
3.55,-0.02571323672,0.2167254587
3.56,-0.01728746165,0.2172896287
3.57,-0.008858554962,0.2175238249
3.58,-0.0004395833734,0.217428791
3.59,0.007956457985,0.2170057961
3.6,0.01631666717,0.2162566299
3.61,0.02462825665,0.2151835966
3.62,0.03287857425,0.2137895084
3.63,0.0410551236,0.2120776772
3.64,0.04914558423,0.2100519068
3.65,0.05713783113,0.2077164829
3.66,0.0650199539,0.2050761634
3.67,0.07278027525,0.2021361672
3.68,0.080407369,0.1989021628
3.69,0.0878900775,0.1953802557
3.7,0.09521752834,0.1915769755
3.71,0.1023791505,0.1874992622
3.72,0.1093646899,0.1831544518
3.73,0.1161642238,0.1785502617
3.74,0.1227681752,0.173694775
3.75,0.129167326,0.1685964248
3.76,0.1353528294,0.1632639779
3.77,0.1413162218,0.1577065176
3.78,0.1470494337,0.1519334269
3.79,0.1525448,0.1459543707
3.8,0.1577950691,0.1397792783
3.81,0.1627934119,0.1334183248
3.82,0.167533429,0.1268819128
3.83,0.1720091579,0.1201806543
3.84,0.1762150794,0.1133253511
3.85,0.1801461221,0.1063269767
3.86,0.1837976675,0.09919665699
3.87,0.1871655535,0.09194565119
3.88,0.1902460769,0.08458533291
3.89,0.1930359956,0.07712717111
3.9,0.1955325299,0.06958271113
3.91,0.1977333626,0.06196355586
3.92,0.1996366387,0.05428134694
3.93,0.2012409647,0.04654774622
3.94,0.2025454058,0.03877441735
3.95,0.2035494842,0.03097300758
3.96,0.2042531748,0.02315512986
3.97,0.2046569021,0.01533234519
3.98,0.2047615345,0.007516145258
3.99,0.2045683794,-0.0002820645566
4,0.2040791773,-0.008050981825
4.01,0.2032960943,-0.01577942335
4.02,0.2022217158,-0.02345634102
4.03,0.2008590378,-0.03107083726
4.04,0.1992114589,-0.03861218002
4.05,0.1972827714,-0.04606981726
4.06,0.1950771515,-0.05343339109
4.07,0.1925991497,-0.0606927512
4.08,0.1898536802,-0.067837968
4.09,0.1868460101,-0.07485934506
4.1,0.1835817484,-0.08174743112
4.11,0.1800668343,-0.08849303151
4.12,0.1763075253,-0.09508721902
4.13,0.1723103849,-0.1015213442
4.14,0.1680822702,-0.1077870452
4.15,0.163630319,-0.1138762566
4.16,0.158961937,-0.1197812186
4.17,0.1540847845,-0.1254944845
4.18,0.1490067628,-0.1310089282
4.19,0.143736001,-0.1363177514
4.2,0.138280842,-0.1414144895
4.21,0.1326498289,-0.1462930175
4.22,0.1268516912,-0.150947555
4.23,0.1208953305,-0.155372671
4.24,0.1147898072,-0.1595632874
4.25,0.1085443259,-0.1635146832
4.26,0.1021682218,-0.1672224965
4.27,0.09567094655,-0.1706827277
4.28,0.08906205466,-0.1738917408
4.29,0.08235118951,-0.1768462647
4.3,0.07554806964,-0.1795433944
4.31,0.06866247526,-0.181980591
4.32,0.06170423465,-0.1841556813
4.33,0.05468321095,-0.1860668576
4.34,0.04760928888,-0.1877126765
4.35,0.04049236181,-0.1890920569
4.36,0.0333423189,-0.1902042785
4.37,0.0261690325,-0.1910489789
4.38,0.01898234573,-0.1916261514
4.39,0.01179206027,-0.191936141
4.4,0.004607924459,-0.1919796413
4.41,-0.002560378513,-0.1917576905
4.42,-0.009703242015,-0.1912716667
4.43,-0.01681114722,-0.1905232837
4.44,-0.02387467405,-0.1895145857
4.45,-0.03088451189,-0.1882479421
4.46,-0.03783146997,-0.1867260419
4.47,-0.04470648752,-0.1849518879
4.48,-0.05150064363,-0.1829287904
4.49,-0.05820516682,-0.1806603608
4.5,-0.0648114443,-0.1781505052
4.51,-0.07131103099,-0.1754034175
4.52,-0.07769565822,-0.1724235718
4.53,-0.08395724211,-0.1692157159
4.54,-0.09008789174,-0.1657848634
4.55,-0.09607991691,-0.1621362857
4.56,-0.1019258357,-0.1582755051
4.57,-0.1076183818,-0.1542082859
4.58,-0.1131505112,-0.1499406266
4.59,-0.1185154091,-0.1454787519
4.6,-0.1237064963,-0.1408291039
4.61,-0.128717435,-0.1359983335
4.62,-0.133542135,-0.1309932923
4.63,-0.1381747587,-0.1258210232
4.64,-0.1426097269,-0.120488752
4.65,-0.1468417234,-0.1150038783
4.66,-0.1508656996,-0.1093739663
4.67,-0.1546768794,-0.103606736
4.68,-0.1582707627,-0.09771005376
4.69,-0.1616431297,-0.09169192327
4.7,-0.1647900444,-0.08556047602
4.71,-0.1677078579,-0.07932396203
4.72,-0.1703932112,-0.07299074044
4.73,-0.1728430386,-0.06656927
4.74,-0.1750545697,-0.06006809954
4.75,-0.177025332,-0.05349585843
4.76,-0.1787531525,-0.046861247
4.77,-0.1802361601,-0.04017302684
4.78,-0.1814727865,-0.03344001122
4.79,-0.1824617677,-0.02667105533
4.8,-0.1832021451,-0.01987504664
4.81,-0.1836932658,-0.01306089508
4.82,-0.1839347837,-0.006237523374
4.83,-0.1839266591,0.0005861427657
4.84,-0.1836691589,0.007401184397
4.85,-0.1831628562,0.01419869912
4.86,-0.1824086299,0.02096981087
4.87,-0.1814076636,0.02770567965
4.88,-0.1801614446,0.03439751138
4.89,-0.1786717624,0.04103656754
4.9,-0.1769407074,0.04761417504
4.91,-0.1749706682,0.05412173583
4.92,-0.1727643304,0.06055073666
4.93,-0.1703246731,0.06689275874
4.94,-0.1676549668,0.07313948734
4.95,-0.16475877,0.0792827214
4.96,-0.1616399261,0.08531438305
4.97,-0.1583025595,0.09122652709
4.98,-0.1547510718,0.09701135042
4.99,-0.1509901375,0.1026612013
5,-0.1470246995,0.1081685889
5.01,-0.1428599644,0.1135261918
5.02,-0.1385013971,0.118726868
5.03,-0.1339547155,0.1237636632
5.04,-0.1292258848,0.1286298197
5.05,-0.1243211116,0.1333187855
5.06,-0.119246837,0.1378242226
5.07,-0.1140097307,0.1421400153
5.08,-0.1086166833,0.1462602789
5.09,-0.1030747996,0.1501793675
5.1,-0.09739139051,0.153891882
5.11,-0.09157396571,0.1573926777
5.12,-0.08563022502,0.160676872
5.13,-0.07956805009,0.1637398517
5.14,-0.07339549561,0.1665772799
5.15,-0.06712078019,0.1691851027
5.16,-0.06075227703,0.1715595564
5.17,-0.05429850423,0.1736971729
5.18,-0.04776811489,0.1755947863
5.19,-0.0411698869,0.1772495382
5.2,-0.03451271243,0.1786588836
5.21,-0.02780558729,0.1798205952
5.22,-0.02105759988,0.1807327688
5.23,-0.01427792002,0.1813938272
5.24,-0.007475787507,0.1818025244
5.25,-0.0006605004455,0.181957949
5.26,0.006158596594,0.1818595276
5.27,0.01297212464,0.1815070275
5.28,0.01977068255,0.1809005591
5.29,0.0265448594,0.1800405777
5.3,0.03328524705,0.1789278851
5.31,0.03998245282,0.1775636309
5.32,0.04662711228,0.1759493126
5.33,0.05320990218,0.174086776
5.34,0.0597215534,0.1719782149
5.35,0.06615286404,0.16962617
5.36,0.0724947125,0.1670335278
5.37,0.07873807064,0.1642035185
5.38,0.08487401686,0.1611397137
5.39,0.09089374925,0.1578460237
5.4,0.09678859872,0.1543266939
5.41,0.1025500419,0.1505863009
5.42,0.1081697144,0.146629748
5.43,0.1136394232,0.1424622605
5.44,0.1189511597,0.1380893798
5.45,0.1240971123,0.1335169576
5.46,0.1290696788,0.1287511495
5.47,0.1338614784,0.1237984074
5.48,0.1384653642,0.1186654725
5.49,0.1428744342,0.1133593669
5.5,0.1470820438,0.107887385
5.51,0.151081816,0.1022570843
5.52,0.1548676533,0.09647627618
5.53,0.1584337476,0.09055301534
5.54,0.1617745904,0.08449558956
5.55,0.1648849833,0.07831250858
5.56,0.167760047,0.07201249269
5.57,0.1703952301,0.0656044608
5.58,0.1727863183,0.05909751818
5.59,0.1749294422,0.05250094374
5.6,0.176821085,0.04582417695
5.61,0.1784580896,0.03907680439
5.62,0.1798376655,0.03226854598
5.63,0.1809573944,0.02540924086
5.64,0.1818152365,0.01850883295
5.65,0.1824095347,0.01157735627
5.66,0.1827390196,0.004624920024
5.67,0.1828028129,-0.002338306657
5.68,0.1826004309,-0.009302110054
5.69,0.1821317869,-0.01625624746
5.7,0.1813971932,-0.02319046289
5.71,0.1803973623,-0.03009450299
5.72,0.1791334077,-0.03695813295
5.73,0.1776068439,-0.04377115256
5.74,0.1758195853,-0.05052341231
5.75,0.1737739455,-0.05720482947
5.76,0.1714726349,-0.06380540419
5.77,0.1689187581,-0.07031523556
5.78,0.1661158104,-0.07672453755
5.79,0.1630676741,-0.08302365491
5.8,0.1597786133,-0.08920307893
5.81,0.156253269,-0.09525346299
5.82,0.1524966529,-0.101165638
5.83,0.1485141404,-0.1069306274
5.84,0.1443114637,-0.1125396625
5.85,0.1398947037,-0.1179841965
5.86,0.1352702813,-0.1232559196
5.87,0.1304449482,-0.1283467722
5.88,0.1254257769,-0.133248959
5.89,0.1202201508,-0.1379549625
5.9,0.1148357527,-0.142457555
5.91,0.1092805534,-0.1467498119
5.92,0.1035627996,-0.1508251229
5.93,0.09769100173,-0.154677204
5.94,0.09167392006,-0.1583001079
5.95,0.0855205518,-0.1616882349
5.96,0.07924011681,-0.164836342
5.97,0.07284204318,-0.167739553
5.98,0.06633595245,-0.1703933663
5.99,0.05973164433,-0.1727936635
6,0.05303908114,-0.1749367164
