"Freq [GHz]","re(S(Tx_p1,Tx_p1)) []","im(S(Tx_p1,Tx_p1)) []"
1,0.79215014,-0.4203623671
1.01,0.7854783887,-0.4221985556
1.02,0.7789506512,-0.4243852601
1.03,0.7725460001,-0.4269101204
1.04,0.7662445049,-0.4297608703
1.05,0.7600271876,-0.4329253342
1.06,0.7538759829,-0.4363914242
1.07,0.7477736992,-0.4401471374
1.08,0.7417039832,-0.4441805537
1.09,0.7356512863,-0.4484798342
1.1,0.7296008331,-0.4530332199
1.11,0.7235385919,-0.4578290308
1.12,0.7174512468,-0.4628556653
1.13,0.7113261713,-0.4681015999
1.14,0.7051514043,-0.4735553891
1.15,0.6989156259,-0.479205666
1.16,0.6926081359,-0.4850411427
1.17,0.6862188331,-0.4910506109
1.18,0.6797381951,-0.4972229432
1.19,0.6731572598,-0.5035470941
1.2,0.6664676077,-0.5100121015
1.21,0.6596613451,-0.5166070879
1.22,0.6527310875,-0.5233212627
1.23,0.645669945,-0.5301439234
1.24,0.638471507,-0.5370644579
1.25,0.6311298285,-0.5440723464
1.26,0.6236394166,-0.5511571639
1.27,0.615995218,-0.5583085818
1.28,0.6081926059,-0.5655163708
1.29,0.6002273689,-0.5727704031
1.3,0.5920956992,-0.5800606548
1.31,0.5837941817,-0.5873772086
1.32,0.5753197833,-0.5947102559
1.33,0.5666698425,-0.6020500999
1.34,0.5578420599,-0.609387158
1.35,0.5488344881,-0.6167119643
1.36,0.5396455224,-0.6240151725
1.37,0.5302738918,-0.6312875582
1.38,0.5207186505,-0.6385200218
1.39,0.5109791684,-0.6457035912
1.4,0.5010551235,-0.6528294242
1.41,0.4909464934,-0.6598888111
1.42,0.4806535469,-0.6668731775
1.43,0.4701768368,-0.6737740869
1.44,0.4595171917,-0.6805832427
1.45,0.4486757087,-0.6872924914
1.46,0.4376537458,-0.6938938246
1.47,0.4264529146,-0.7003793814
1.48,0.4150750733,-0.7067414512
1.49,0.4035223195,-0.7129724753
1.5,0.3917969834,-0.7190650499
1.51,0.3799016207,-0.7250119278
1.52,0.3678390062,-0.7308060208
1.53,0.3556121266,-0.7364404014
1.54,0.3432241746,-0.7419083055
1.55,0.3306785417,-0.7472031337
1.56,0.3179788123,-0.7523184535
1.57,0.3051287572,-0.757248001
1.58,0.2921323271,-0.7619856826
1.59,0.2789936467,-0.766525577
1.6,0.2657170081,-0.7708619362
1.61,0.2523068654,-0.7749891876
1.62,0.238767828,-0.7789019351
1.63,0.2251046547,-0.7825949603
1.64,0.2113222482,-0.7860632243
1.65,0.197425649,-0.7893018684
1.66,0.1834200291,-0.7923062154
1.67,0.1693106872,-0.7950717706
1.68,0.1551030421,-0.7975942228
1.69,0.1408026275,-0.7998694451
1.7,0.1264150861,-0.8018934955
1.71,0.1119461643,-0.8036626179
1.72,0.09740170652,-0.8051732424
1.73,0.08278764971,-0.8064219862
1.74,0.06811001798,-0.8074056535
1.75,0.05337491715,-0.8081212363
1.76,0.03858852948,-0.8085659142
1.77,0.02375710834,-0.8087370553
1.78,0.008886972994,-0.8086322153
1.79,-0.006015496614,-0.8082491382
1.8,-0.02094386499,-0.8075857561
1.81,-0.03589164617,-0.8066401889
1.82,-0.05085230879,-0.8054107439
1.83,-0.06581928109,-0.8038959158
1.84,-0.0807859558,-0.8020943859
1.85,-0.0957456951,-0.8000050221
1.86,-0.1106918354,-0.7976268777
1.87,-0.1256176922,-0.794959191
1.88,-0.1405165648,-0.7920013847
1.89,-0.1553817409,-0.7887530649
1.9,-0.1702065014,-0.7852140201
1.91,-0.1849841248,-0.7813842203
1.92,-0.1997078917,-0.777263816
1.93,-0.2143710897,-0.7728531367
1.94,-0.2289670171,-0.7681526904
1.95,-0.2434889877,-0.7631631614
1.96,-0.2579303352,-0.7578854095
1.97,-0.272284417,-0.7523204685
1.98,-0.2865446187,-0.7464695446
1.99,-0.3007043582,-0.7403340145
2,-0.3147570895,-0.7339154242
2.01,-0.3286963069,-0.7272154873
2.02,-0.3425155491,-0.7202360827
2.03,-0.3562084026,-0.7129792531
2.04,-0.3697685058,-0.7054472031
2.05,-0.3831895528,-0.697642297
2.06,-0.3964652968,-0.6895670568
2.07,-0.409589554,-0.6812241603
2.08,-0.422556207,-0.6726164386
2.09,-0.435359208,-0.663746874
2.1,-0.447992583,-0.654618598
2.11,-0.4604504341,-0.6452348882
2.12,-0.4727269436,-0.6355991667
2.13,-0.4848163768,-0.6257149972
2.14,-0.4967130852,-0.6155860826
2.15,-0.5084115095,-0.6052162624
2.16,-0.5199061829,-0.59460951
2.17,-0.5311917335,-0.5837699304
2.18,-0.5422628876,-0.5727017571
2.19,-0.5531144723,-0.5614093494
2.2,-0.5637414181,-0.5498971898
2.21,-0.5741387618,-0.5381698812
2.22,-0.5843016487,-0.5262321435
2.23,-0.5942253354,-0.5140888114
2.24,-0.6039051922,-0.5017448308
2.25,-0.613336705,-0.4892052564
2.26,-0.6225154781,-0.4764752482
2.27,-0.6314372362,-0.4635600685
2.28,-0.6400978263,-0.4504650791
2.29,-0.6484932201,-0.4371957379
2.3,-0.6566195156,-0.4237575957
2.31,-0.6644729392,-0.4101562933
2.32,-0.6720498476,-0.396397558
2.33,-0.6793467292,-0.3824872006
2.34,-0.686360206,-0.3684311117
2.35,-0.6930870351,-0.354235259
2.36,-0.6995241103,-0.3399056838
2.37,-0.7056684634,-0.3254484973
2.38,-0.7115172656,-0.3108698776
2.39,-0.7170678287,-0.2961760665
2.4,-0.7223176065,-0.2813733657
2.41,-0.7272641956,-0.2664681337
2.42,-0.7319053367,-0.2514667823
2.43,-0.7362389155,-0.2363757731
2.44,-0.7402629635,-0.2212016143
2.45,-0.743975659,-0.2059508571
2.46,-0.7473753274,-0.1906300923
2.47,-0.7504604425,-0.1752459469
2.48,-0.7532296266,-0.1598050807
2.49,-0.7556816511,-0.1443141825
2.5,-0.757815437,-0.1287799672
2.51,-0.7596300552,-0.1132091719
2.52,-0.7611247268,-0.09760855282
2.53,-0.7622988233,-0.0819848815
2.54,-0.7631518668,-0.06634494161
2.55,-0.7636835296,-0.05069552546
2.56,-0.7638936351,-0.03504343053
2.57,-0.7637821566,-0.01939545613
2.58,-0.7633492181,-0.003758399959
2.59,-0.7625950933,0.01186094528
2.6,-0.7615202057,0.02745579524
2.61,-0.7601251282,0.04301937731
2.62,-0.7584105824,0.05854493394
2.63,-0.7563774382,0.07402572594
2.64,-0.7540267133,0.08945503586
2.65,-0.7513595724,0.1048261712
2.66,-0.7483773264,0.1201324677
2.67,-0.7450814317,0.1353672925
2.68,-0.7414734891,0.1505240476
2.69,-0.7375552433,0.1655961728
2.7,-0.7333285813,0.1805771488
2.71,-0.7287955318,0.1954605007
2.72,-0.7239582637,0.2102398006
2.73,-0.7188190851,0.2249086711
2.74,-0.7133804419,0.2394607882
2.75,-0.7076449164,0.2538898842
2.76,-0.7016152262,0.2681897506
2.77,-0.6952942223,0.2823542414
2.78,-0.6886848877,0.2963772756
2.79,-0.681790336,0.3102528404
2.8,-0.6746138097,0.3239749934
2.81,-0.6671586781,0.3375378662
2.82,-0.6594284361,0.3509356666
2.83,-0.6514267019,0.3641626812
2.84,-0.6431572155,0.3772132786
2.85,-0.6346238362,0.3900819113
2.86,-0.6258305415,0.4027631188
2.87,-0.6167814241,0.4152515297
2.88,-0.6074806904,0.4275418644
2.89,-0.5979326583,0.4396289375
2.9,-0.5881417547,0.4515076599
2.91,-0.5781125135,0.4631730415
2.92,-0.5678495734,0.4746201929
2.93,-0.5573576753,0.4858443282
2.94,-0.54664166,0.4968407667
2.95,-0.535706466,0.507604935
2.96,-0.5245571268,0.5181323693
2.97,-0.5131987683,0.5284187171
2.98,-0.5016366068,0.5384597392
2.99,-0.4898759455,0.5482513116
3,-0.477922173,0.5577894271
3.01,-0.4657807596,0.5670701974
3.02,-0.4534572554,0.5760898543
3.03,-0.4409572871,0.5848447516
3.04,-0.4282865555,0.5933313666
3.05,-0.4154508326,0.6015463015
3.06,-0.4024559587,0.6094862848
3.07,-0.3893078401,0.617148173
3.08,-0.3760124454,0.6245289512
3.09,-0.3625758033,0.631625735
3.1,-0.3490039995,0.6384357714
3.11,-0.3353031736,0.6449564396
3.12,-0.3214795162,0.6511852527
3.13,-0.3075392664,0.6571198579
3.14,-0.2934887081,0.6627580379
3.15,-0.2793341675,0.6680977117
3.16,-0.2650820099,0.673136935
3.17,-0.2507386369,0.6778739013
3.18,-0.2363104829,0.6823069424
3.19,-0.2218040128,0.6864345286
3.2,-0.207225718,0.69025527
3.21,-0.1925821144,0.693767916
3.22,-0.1778797384,0.6969713562
3.23,-0.1631251446,0.6998646208
3.24,-0.1483249023,0.7024468802
3.25,-0.1334855923,0.704717446
3.26,-0.1186138045,0.7066757702
3.27,-0.1037161342,0.7083214459
3.28,-0.08879917927,0.709654207
3.29,-0.07386953734,0.710673928
3.3,-0.05893380238,0.7113806239
3.31,-0.04399856191,0.7117744502
3.32,-0.02907039393,0.711855702
3.33,-0.01415586389,0.7116248143
3.34,0.0007384782365,0.7110823611
3.35,0.01560610099,0.7102290549
3.36,0.03044049434,0.7090657466
3.37,0.04523517266,0.7075934242
3.38,0.05998367764,0.7058132127
3.39,0.07467958116,0.7037263728
3.4,0.0893164882,0.7013343006
3.41,0.1038880397,0.6986385265
3.42,0.1183879154,0.6956407141
3.43,0.1328098367,0.6923426593
3.44,0.1471475691,0.6887462895
3.45,0.1613949255,0.684853662
3.46,0.1755457687,0.6806669634
3.47,0.1895940138,0.6761885078
3.48,0.2035336312,0.6714207359
3.49,0.2173586493,0.6663662136
3.5,0.2310631568,0.6610276302
3.51,0.2446413054,0.6554077978
3.52,0.2580873123,0.6495096488
3.53,0.2713954628,0.6433362351
3.54,0.2845601126,0.6368907263
3.55,0.2975756904,0.6301764076
3.56,0.3104367,0.6231966789
3.57,0.3231377229,0.6159550524
3.58,0.3356734204,0.6084551509
3.59,0.3480385359,0.6007007064
3.6,0.3602278973,0.5926955577
3.61,0.3722364188,0.5844436486
3.62,0.3840591033,0.5759490261
3.63,0.3956910443,0.5672158383
3.64,0.4071274281,0.5582483323
3.65,0.4183635355,0.549050852
3.66,0.429394744,0.5396278363
3.67,0.4402165296,0.5299838166
3.68,0.4508244686,0.5201234148
3.69,0.4612142392,0.5100513408
3.7,0.4713816237,0.4997723908
3.71,0.4813225095,0.4892914441
3.72,0.4910328916,0.4786134618
3.73,0.5005088731,0.4677434835
3.74,0.5097466678,0.4566866255
3.75,0.5187426009,0.4454480782
3.76,0.5274931108,0.4340331037
3.77,0.5359947501,0.4224470331
3.78,0.5442441874,0.4106952642
3.79,0.5522382082,0.3987832593
3.8,0.5599737161,0.3867165418
3.81,0.5674477343,0.3745006945
3.82,0.574657406,0.3621413567
3.83,0.5815999961,0.3496442214
3.84,0.5882728919,0.337015033
3.85,0.594673604,0.3242595844
3.86,0.6007997671,0.3113837146
3.87,0.606649141,0.2983933059
3.88,0.6122196112,0.2852942814
3.89,0.6175091896,0.2720926019
3.9,0.6225160152,0.2587942637
3.91,0.6272383546,0.2454052957
3.92,0.6316746025,0.2319317566
3.93,0.6358232824,0.2183797324
3.94,0.6396830468,0.2047553333
3.95,0.6432526773,0.1910646916
3.96,0.6465310855,0.1773139584
3.97,0.6495173128,0.1635093011
3.98,0.6522105307,0.1496569007
3.99,0.6546100409,0.135762949
4,0.6567152753,0.1218336462
4.01,0.6585257962,0.1078751975
4.02,0.6600412962,0.09389381093
4.03,0.661261598,0.07989569467
4.04,0.6621866543,0.06588705399
4.05,0.6628165476,0.05187408879
4.06,0.6631514899,0.03786299087
4.07,0.6631918224,0.02385994124
4.08,0.6629380154,0.009871107448
4.09,0.6623906673,-0.004097359072
4.1,0.6615505046,-0.01803932564
4.11,0.6604183811,-0.03194868096
4.12,0.6589952776,-0.04581933776
4.13,0.657282301,-0.05964523534
4.14,0.6552806837,-0.07342034223
4.15,0.6529917828,-0.08713865868
4.16,0.6504170796,-0.1007942193
4.17,0.6475581783,-0.1143810955
4.18,0.6444168054,-0.1278933979
4.19,0.6409948088,-0.1413252793
4.2,0.6372941567,-0.1546709366
4.21,0.6333169364,-0.1679246132
4.22,0.6290653535,-0.1810806021
4.23,0.6245417308,-0.1941332476
4.24,0.6197485068,-0.207076948
4.25,0.6146882347,-0.2199061578
4.26,0.6093635811,-0.2326153902
4.27,0.6037773246,-0.2451992192
4.28,0.5979323545,-0.257652282
4.29,0.5918316694,-0.269969281
4.3,0.5854783758,-0.2821449863
4.31,0.5788756865,-0.2941742377
4.32,0.572026919,-0.3060519469
4.33,0.5649354943,-0.3177730995
4.34,0.5576049346,-0.3293327571
4.35,0.5500388625,-0.3407260594
4.36,0.5422409986,-0.3519482263
4.37,0.53421516,-0.3629945595
4.38,0.5259652586,-0.3738604448
4.39,0.5174952993,-0.3845413538
4.4,0.5088093779,-0.3950328458
4.41,0.4999116797,-0.4053305696
4.42,0.4908064769,-0.4154302654
4.43,0.4814981273,-0.4253277662
4.44,0.4719910719,-0.435019
4.45,0.4622898331,-0.4444999909
4.46,0.4523990123,-0.4537668611
4.47,0.4423232885,-0.4628158323
4.48,0.4320674154,-0.4716432273
4.49,0.4216362197,-0.4802454716
4.5,0.4110345989,-0.4886190945
4.51,0.4002675189,-0.4967607306
4.52,0.3893400121,-0.5046671216
4.53,0.3782571747,-0.5123351169
4.54,0.3670241648,-0.5197616753
4.55,0.3556462,-0.5269438662
4.56,0.3441285549,-0.5338788706
4.57,0.332476559,-0.5405639822
4.58,0.3206955939,-0.5469966088
4.59,0.3087910916,-0.5531742727
4.6,0.2967685315,-0.5590946125
4.61,0.284633438,-0.5647553831
4.62,0.2723913783,-0.5701544573
4.63,0.26004796,-0.5752898264
4.64,0.2476088281,-0.5801596007
4.65,0.2350796632,-0.5847620107
4.66,0.2224661782,-0.5890954073
4.67,0.2097741164,-0.5931582627
4.68,0.1970092488,-0.5969491709
4.69,0.1841773713,-0.6004668483
4.7,0.1712843025,-0.6037101339
4.71,0.1583358808,-0.6066779899
4.72,0.145337962,-0.609369502
4.73,0.1322964166,-0.61178388
4.74,0.1192171275,-0.6139204574
4.75,0.1061059868,-0.6157786921
4.76,0.09296889396,-0.6173581666
4.77,0.0798117525,-0.6186585875
4.78,0.0666404678,-0.6196797863
4.79,0.05346094437,-0.6204217189
4.8,0.04027908322,-0.6208844654
4.81,0.02710077928,-0.6210682305
4.82,0.01393191878,-0.6209733429
4.83,0.000778376668,-0.6206002552
4.84,-0.01235398604,-0.6199495434
4.85,-0.02545932479,-0.619021907
4.86,-0.03853181413,-0.6178181683
4.87,-0.05156565027,-0.6163392717
4.88,-0.06455505361,-0.6145862839
4.89,-0.07749427139,-0.6125603924
4.9,-0.09037758015,-0.6102629059
4.91,-0.1031992883,-0.6076952528
4.92,-0.1159537387,-0.6048589809
4.93,-0.128635311,-0.6017557564
4.94,-0.1412384243,-0.5983873633
4.95,-0.1537575396,-0.5947557024
4.96,-0.1661871621,-0.5908627902
4.97,-0.1785218439,-0.5867107584
4.98,-0.1907561862,-0.5823018523
4.99,-0.2028848418,-0.5776384299
5,-0.2149025173,-0.572722961
5.01,-0.2268039757,-0.5675580255
5.02,-0.2385840386,-0.5621463129
5.03,-0.2502375885,-0.5564906202
5.04,-0.2617595711,-0.550593851
5.05,-0.2731449974,-0.5444590143
5.06,-0.284388946,-0.5380892225
5.07,-0.2954865654,-0.5314876903
5.08,-0.3064330762,-0.5246577331
5.09,-0.3172237727,-0.5176027654
5.1,-0.3278540256,-0.5103262991
5.11,-0.3383192837,-0.5028319421
5.12,-0.3486150761,-0.4951233962
5.13,-0.358737014,-0.4872044556
5.14,-0.3686807928,-0.479079005
5.15,-0.3784421938,-0.4707510177
5.16,-0.3880170862,-0.4622245539
5.17,-0.3974014291,-0.4535037588
5.18,-0.4065912728,-0.4445928603
5.19,-0.4155827609,-0.4354961672
5.2,-0.424372132,-0.4262180673
5.21,-0.4329557211,-0.416763025
5.22,-0.4413299615,-0.4071355796
5.23,-0.449491386,-0.3973403427
5.24,-0.4574366288,-0.3873819963
5.25,-0.4651624266,-0.3772652907
5.26,-0.4726656205,-0.3669950417
5.27,-0.4799431565,-0.3565761291
5.28,-0.4869920879,-0.3460134937
5.29,-0.4938095757,-0.3353121353
5.3,-0.5003928902,-0.3244771104
5.31,-0.5067394121,-0.3135135295
5.32,-0.5128466336,-0.302426555
5.33,-0.5187121595,-0.2912213987
5.34,-0.5243337079,-0.2799033191
5.35,-0.5297091117,-0.2684776192
5.36,-0.534836319,-0.2569496438
5.37,-0.5397133941,-0.2453247772
5.38,-0.5443385184,-0.2336084404
5.39,-0.5487099908,-0.2218060886
5.4,-0.5528262287,-0.2099232088
5.41,-0.5566857686,-0.1979653171
5.42,-0.5602872662,-0.185937956
5.43,-0.5636294976,-0.173846692
5.44,-0.566711359,-0.1616971128
5.45,-0.5695318677,-0.1494948248
5.46,-0.572090162,-0.1372454502
5.47,-0.5743855015,-0.1249546247
5.48,-0.5764172677,-0.1126279949
5.49,-0.5781849635,-0.100271215
5.5,-0.5796882138,-0.08788994499
5.51,-0.5809267655,-0.07548984745
5.52,-0.5819004868,-0.06307658507
5.53,-0.5826093682,-0.050655818
5.54,-0.5830535214,-0.03823320117
5.55,-0.5832331794,-0.02581438168
5.56,-0.5831486964,-0.01340499616
5.57,-0.5828005474,-0.001010668107
5.58,-0.5821893276,0.01136299468
5.59,-0.5813157521,0.02371040273
5.6,-0.5801806555,0.03602598753
5.61,-0.578784991,0.04830420404
5.62,-0.5771298301,0.06053953332
5.63,-0.5752163621,0.07272648506
5.64,-0.5730458925,0.0848596001
5.65,-0.5706198434,0.09693345297
5.66,-0.5679397516,0.1089426544
5.67,-0.5650072684,0.1208818537
5.68,-0.5618241582,0.1327457414
5.69,-0.5583922978,0.1445290514
5.7,-0.5547136752,0.1562265637
5.71,-0.5507903885,0.1678331066
5.72,-0.5466246446,0.179343559
5.73,-0.5422187582,0.1907528528
5.74,-0.5375751505,0.2020559752
5.75,-0.5326963476,0.2132479709
5.76,-0.5275849795,0.2243239445
5.77,-0.5222437785,0.2352790624
5.78,-0.5166755778,0.2461085552
5.79,-0.5108833097,0.2568077199
5.8,-0.5048700046,0.2673719217
5.81,-0.4986387888,0.2777965961
5.82,-0.4921928832,0.2880772512
5.83,-0.4855356017,0.2982094694
5.84,-0.478670349,0.3081889095
5.85,-0.4716006194,0.3180113084
5.86,-0.4643299945,0.3276724832
5.87,-0.4568621418,0.3371683328
5.88,-0.4492008122,0.3464948397
5.89,-0.4413498388,0.3556480718
5.9,-0.4333131343,0.364624184
5.91,-0.4250946895,0.37341942
5.92,-0.4166985708,0.3820301135
5.93,-0.4081289186,0.3904526902
5.94,-0.3993899448,0.3986836688
5.95,-0.390485931,0.4067196629
5.96,-0.3814212261,0.4145573822
5.97,-0.3722002442,0.4221936336
5.98,-0.3628274625,0.4296253228
5.99,-0.3533074189,0.4368494554
6,-0.34364471,0.4438631382
