"Freq [GHz]","re(S(Antenna1_1_1,Antenna1_1_1)) []","im(S(Antenna1_1_1,Antenna1_1_1)) []"
3,-0.192553739647393,-0.161434649515726
3.0175,-0.197573203673113,-0.154038724191694
3.035,-0.213411102926577,-0.141418111918135
3.0525,-0.219926435363528,-0.119144798516154
3.07,-0.222453182203973,-0.103787453577774
3.0875,-0.225986123939216,-0.0865139976913111
3.105,-0.227302206099493,-0.0706473181466729
3.1225,-0.228030667368642,-0.0530821718249398
3.14,-0.226057619285517,-0.0372101951828418
3.1575,-0.223402765827542,-0.02024729670833
3.175,-0.216606328339947,-0.0067071554603757
3.1925,-0.214130226886567,0.003723110883697
3.21,-0.212883920238643,0.0189831594768935
3.2275,-0.206526387231898,0.035812661756907
3.245,-0.198246091179488,0.0495649962455647
3.2625,-0.189416611777122,0.0630363583644738
3.28,-0.180108697343695,0.0750040448324707
3.2975,-0.169081881170446,0.0898413260090073
3.315,-0.151117983110238,0.0992218432608836
3.3325,-0.139539670411174,0.102971606390347
3.35,-0.12747893830053,0.111517830444248
3.3675,-0.113622029299088,0.116501506393012
3.385,-0.0988724609135257,0.122924995974613
3.4025,-0.0818985428536052,0.121740429209757
3.42,-0.0740098345671445,0.121898555668361
3.4375,-0.0606353511920872,0.126738508377351
3.455,-0.0470985791520284,0.128677305140013
3.4725,-0.028912297789579,0.130929358353226
3.49,-0.0124144879577215,0.126453084704546
3.5075,0.0056484809575487,0.123547785716848
3.525,0.0225989670539739,0.110146726961772
3.5425,0.0294437970951429,0.100287174062134
3.56,0.0408275516952276,0.0941236827866442
3.5775,0.0525380252939105,0.0828189683872556
3.595,0.0587204329759724,0.0707022329145434
3.6125,0.064831854078613,0.0635494516485833
3.63,0.0748869521792797,0.054300257790455
3.6475,0.0834736799354567,0.0418885736521825
3.665,0.0896208615105196,0.0277476329272499
3.6825,0.0949738783508762,0.0158973695202759
3.7,0.102959732280931,-0.00110013257504572
3.7175,0.102872950361053,-0.0197967848353002
3.735,0.103194138907726,-0.0371192450141986
3.7525,0.0950736062069018,-0.0551405250907919
3.77,0.0895919267816299,-0.0627722925869587
3.7875,0.0882266072801248,-0.0760734326355199
3.805,0.0836294999540687,-0.0890025202292459
3.8225,0.0764848361670634,-0.103847660070711
3.84,0.0675165885803762,-0.111285260797784
3.8575,0.0663646201281956,-0.123095799443082
3.875,0.0569035876553063,-0.13988097259263
3.8925,0.0439257472370333,-0.1522823252103
3.91,0.0285710661062703,-0.162929066197277
3.9275,0.0125219920357426,-0.168993819443269
3.945,-0.0007054598576892,-0.171939768105373
3.9625,-0.0107193400000443,-0.177606375941447
3.98,-0.025813904338502,-0.18600887422805
3.9975,-0.0451141099825682,-0.188067636962147
4.015,-0.0582290710961807,-0.184275125447408
4.0325,-0.067228862775359,-0.188424538542456
4.05,-0.0872173712355466,-0.191953120407086
4.0675,-0.102822859768073,-0.185474712785049
4.085,-0.114459249064618,-0.184054334810608
4.1025,-0.129959854334341,-0.181876418625202
4.12,-0.146253419847759,-0.177479475489821
4.1375,-0.161694857513726,-0.168090336656431
4.155,-0.171872946385065,-0.159249358695412
4.1725,-0.183121722221562,-0.152065842587485
4.19,-0.193272499929005,-0.14435215926546
4.2075,-0.205826585175315,-0.138851982760789
4.225,-0.222776681613167,-0.127282761433547
4.2425,-0.23262054765638,-0.109089573991886
4.26,-0.23725353812887,-0.0950127548995502
4.2775,-0.241151968854481,-0.082698250783592
4.295,-0.247237172767024,-0.0741816059820934
4.3125,-0.256174202026881,-0.0587114425040176
4.33,-0.255385543100705,-0.0450946267643655
4.3475,-0.261250793092056,-0.036426702248522
4.365,-0.266342757253581,-0.0210362937140522
4.3825,-0.27023763018843,-0.00702287053499181
4.4,-0.272656919480727,0.0117178812976782
4.4175,-0.269769887163044,0.0291442905476563
4.435,-0.263998279577116,0.0450240618653901
4.4525,-0.257600960410435,0.0547642949799779
4.47,-0.256926051993239,0.0657422823536535
4.4875,-0.252749210235216,0.0807978317858658
4.505,-0.244790371686207,0.0926513449421633
4.5225,-0.239522984999515,0.100684382664054
4.54,-0.236471156061058,0.112833323050831
4.5575,-0.229181506187841,0.124625634615871
4.575,-0.223291212966266,0.13647668347968
4.5925,-0.213074015161067,0.148000231256228
4.61,-0.205862386358411,0.157865154877137
4.6275,-0.193372158714317,0.171339444864902
4.645,-0.178658831639872,0.178577907056599
4.6625,-0.162729186251147,0.183586911343165
4.68,-0.151766004787064,0.180907465765552
4.6975,-0.146889411412744,0.184836245702509
4.715,-0.139212744073839,0.190171862817153
4.7325,-0.129832324904118,0.199741380899432
4.75,-0.113441661741468,0.203640941821609
4.7675,-0.103632746118455,0.205114916224873
4.785,-0.091231415804277,0.208270348718492
4.8025,-0.0805153975471192,0.210206632724043
4.82,-0.0654439548922895,0.213340744815483
4.8375,-0.0501783670005009,0.20987529680125
4.855,-0.0383233800970797,0.204615885297508
4.8725,-0.0306315272721133,0.199589611361945
4.89,-0.0222329891241593,0.198444370825687
4.9075,-0.0125046734787405,0.19584767808014
4.925,-0.0020426662289066,0.193125564400167
4.9425,0.00642428435143012,0.188107289197452
4.96,0.0157680783136632,0.187508290177209
4.9775,0.0293620634310577,0.181826520038144
4.995,0.0390824927828626,0.174114299891487
5.0125,0.0477564167761308,0.165073434820735
5.03,0.0534080705882055,0.158943883030859
5.0475,0.0644729477349529,0.151824455663656
5.065,0.0708328058405996,0.139331771552011
5.0825,0.0742262496077459,0.130287732782224
5.1,0.0776483878966856,0.122442111393745
5.1175,0.0824044107661929,0.115916619636713
5.135,0.0883977723331779,0.108099097922038
5.1525,0.0952193216623382,0.0981832797378158
5.17,0.0989276124813881,0.0847331325169518
5.1875,0.0982119485924432,0.0736404107138456
5.205,0.0986772942895545,0.066727125212602
5.2225,0.103942504992425,0.0577372835015642
5.24,0.105477894065479,0.0431044209369276
5.2575,0.102389233371232,0.031391760372298
5.275,0.0993856414465632,0.0220882309799234
5.2925,0.0982915228305072,0.0139671607202887
5.31,0.0968530070758538,0.00254156554686511
5.3275,0.0920330017525827,-0.00675813624537303
5.345,0.0894256043224455,-0.0150511075624889
5.3625,0.0861645974184344,-0.0249743521310674
5.38,0.0812642132630566,-0.0355457428493153
5.3975,0.073924070020197,-0.04463898936698
5.415,0.0666440007767697,-0.0517351894537799
5.4325,0.0606996446905566,-0.0569516247971256
5.45,0.0574513418769112,-0.0654351456684465
5.4675,0.0490583198448184,-0.0763063014571214
5.485,0.0377109811139024,-0.0845219188276569
5.5025,0.0245647909361373,-0.0871962082010727
5.52,0.0195706596962837,-0.0882317901842703
5.5375,0.0115670873876005,-0.0968308743073017
5.555,-0.000197926858543879,-0.101054168331856
5.5725,-0.0128901773104911,-0.104399994427936
5.59,-0.0235121201563677,-0.101548752143778
5.6075,-0.0292727921626019,-0.103371264040661
5.625,-0.038065982780742,-0.105572839989896
5.6425,-0.0479937119956086,-0.111003488117251
5.66,-0.0636104751328226,-0.111014027162048
5.6775,-0.0733572715147964,-0.110065880141708
5.695,-0.0880142685186867,-0.109627604912482
5.7125,-0.0998817782748132,-0.105441710309782
5.73,-0.11398017094,-0.100332750555091
5.7475,-0.121818578603565,-0.0911802373438344
5.765,-0.129757774764691,-0.0877933987233316
5.7825,-0.138195968722145,-0.0820479710123394
5.8,-0.148088404482322,-0.0787055636083716
5.8175,-0.158366650486006,-0.0705390744448683
5.835,-0.166885767837793,-0.0642381852206766
5.8525,-0.175554689246472,-0.0552240362642676
5.87,-0.183569599099807,-0.0497496331649935
5.8875,-0.196228693551814,-0.0390666095188878
5.905,-0.203599866626053,-0.0255767776557854
5.9225,-0.208903223798443,-0.0108076606943432
5.94,-0.209394493738436,-0.000678978844126432
5.9575,-0.21718519941302,0.00935849097532704
5.975,-0.219209326697146,0.0250687960424481
5.9925,-0.220257307365006,0.0364625395999522
6.01,-0.219216744457265,0.04852549832153
6.0275,-0.221296554004247,0.0556393551857622
6.045,-0.225593557139859,0.0693888835430283
6.0625,-0.225895889425567,0.0826547948801774
6.08,-0.225729755768794,0.0978805954827963
6.0975,-0.223227598166116,0.111054576268055
6.115,-0.221937891404495,0.126772921710457
6.1325,-0.215445770177825,0.142593837066443
6.15,-0.207645699763508,0.156637945560846
6.1675,-0.19734377184448,0.167333110429036
6.185,-0.190512189835381,0.175681364095477
6.2025,-0.184083500538651,0.185850691076513
6.22,-0.1768820845834,0.197621567856335
6.2375,-0.165368470922203,0.207812449457541
6.255,-0.157053629406575,0.214263334503006
6.2725,-0.149760865014957,0.224447514884342
6.29,-0.140330575495736,0.236174950989913
6.3075,-0.125630532462128,0.248610758165655
6.325,-0.108381253888799,0.255053605993327
6.3425,-0.0925835840438673,0.259100358311787
6.36,-0.0784949768763586,0.260485869197556
6.3775,-0.066262097035211,0.263791683066889
6.395,-0.0517853582363478,0.266703409681489
6.4125,-0.0365198042289966,0.268075246012555
6.43,-0.0221214391940665,0.265679907842866
6.4475,-0.0119981933097178,0.264806535736856
6.465,1.57144193581732E-05,0.267126112515836
6.4825,0.0162018988026386,0.269652653500461
6.5,0.0353735423117054,0.266121793695988
6.5175,0.0501212147110139,0.259381902640494
6.535,0.0648427522931922,0.252493158294715
6.5525,0.0774890688228551,0.244803136415096
6.57,0.0910585954365904,0.236357448175472
6.5875,0.101762098516648,0.226860877857847
6.605,0.114278132181225,0.217678843347186
6.6225,0.123737461673068,0.20541400403692
6.64,0.133212124320412,0.19495421185465
6.6575,0.139920552972874,0.181801639241874
6.675,0.146365066765175,0.173457362298489
6.6925,0.155249516496379,0.162191881123162
6.71,0.164346986233827,0.151351050517003
6.7275,0.173947327436092,0.133418102814239
6.745,0.175121036449845,0.1160023744797
6.7625,0.175612785159058,0.101493169133197
6.78,0.175455362246852,0.0909747209183089
6.7975,0.181506710591342,0.0782839903715611
6.815,0.183374734557619,0.0599659501398632
6.8325,0.180897416685557,0.0405542173195727
6.85,0.170279518782192,0.0262295289109874
6.8675,0.166362957090962,0.0199546832292466
6.885,0.165186585349463,0.00866211364576952
6.9025,0.164782199030284,-0.00426705616136018
6.92,0.157839672104751,-0.0221731849058151
6.9375,0.148540389355896,-0.0309624409718646
6.955,0.143863959022566,-0.0425095286874855
6.9725,0.1360160577944,-0.0535324838465988
6.99,0.127464078862978,-0.067320279296422
7.0075,0.113009816507724,-0.0765503785882591
7.025,0.10216878199086,-0.0834920172634677
7.0425,0.0895207279252222,-0.089387861380099
7.06,0.0791578582940219,-0.0951996646271834
7.0775,0.0646067707272321,-0.0993601823632555
7.095,0.0549670295660477,-0.0991967053211194
7.1125,0.0469915679441339,-0.101941894595934
7.13,0.0408261113832505,-0.107699978744607
7.1475,0.0263556525361374,-0.117616652841721
7.165,0.0085551877058928,-0.117828012303977
7.1825,-0.00492121799307885,-0.115407036048091
7.2,-0.0142379511023512,-0.112556391562834
7.2175,-0.0251177197363441,-0.115733697435105
7.235,-0.0415800094344095,-0.113713016409165
7.2525,-0.0555538995188132,-0.10805434491659
7.27,-0.0663332267566158,-0.09797669679751
7.2875,-0.070215842142152,-0.0922581609214793
7.305,-0.0777982595691235,-0.090058067917451
7.3225,-0.0865008386482059,-0.0880190289486166
7.34,-0.0985145500797853,-0.083091999392509
7.3575,-0.106394116077224,-0.0765186649082372
7.375,-0.116968507412135,-0.0715975744441326
7.3925,-0.127111796171509,-0.0631218207796223
7.41,-0.13594034742929,-0.0531999156177168
7.4275,-0.140810711575028,-0.0428338702178337
7.445,-0.146603381377904,-0.0350348497453081
7.4625,-0.152179802241268,-0.0252700428267478
7.48,-0.157695625139991,-0.014440902823114
7.4975,-0.157359601976468,-0.00176932592880649
7.515,-0.156229075495697,0.00282145953261879
7.5325,-0.160382821548218,0.00749025787082449
7.55,-0.16779461224984,0.0138632787676137
7.5675,-0.173960467676679,0.0280006032658073
7.585,-0.173037707836726,0.0399328736604763
7.6025,-0.173228005949736,0.0499907261870089
7.62,-0.172898152840827,0.058389805591796
7.6375,-0.175555660898596,0.0695047775019338
7.655,-0.172692731729672,0.0826601627026468
7.6725,-0.168429107725761,0.0931518167518262
7.69,-0.162117603293832,0.10073853978016
7.7075,-0.160208271097688,0.106112592891582
7.725,-0.157410036216449,0.114175828623303
7.7425,-0.155679727405015,0.12107068910044
7.76,-0.152401759489011,0.129911082032573
7.7775,-0.150737217473475,0.137327966431005
7.795,-0.146498746808067,0.149356475424515
7.8125,-0.139690663131272,0.157611760288179
7.83,-0.131629646594423,0.167245947920131
7.8475,-0.123399984113467,0.171153086452705
7.865,-0.118282667704722,0.179210019038318
7.8825,-0.108246580704619,0.184908398750682
7.9,-0.100502135479017,0.190088280769729
7.9175,-0.0902433753165164,0.191883563085263
7.935,-0.0868742896647891,0.19398277813096
7.9525,-0.0793727754934035,0.200079468158395
7.97,-0.0727888945056506,0.203769377771411
7.9875,-0.0636115802396356,0.209558983262742
8.005,-0.0545396329430984,0.211993294754593
8.0225,-0.0446865753419963,0.215879840272101
8.04,-0.0341909530038569,0.217079169255856
8.0575,-0.022953219894325,0.218353429901127
8.075,-0.0123894301930794,0.216350644856281
8.0925,-0.00241253768113494,0.214795794606187
8.11,0.00549775286961111,0.210474841960058
8.1275,0.0124571778174547,0.210283154705494
8.145,0.0219755158719109,0.206840513968409
8.1625,0.0281817563838925,0.204664847939173
8.18,0.037089049523997,0.202111494869539
8.1975,0.0442813678881831,0.199628359152219
8.215,0.0548023144597723,0.196028982414569
8.2325,0.0619531035745329,0.189948554326672
8.25,0.0707469006505975,0.185710305080957
8.2675,0.079176101386122,0.177305367405193
8.285,0.085523134671597,0.168541439816677
8.3025,0.0893407023871252,0.15968239123133
8.32,0.0940136025582101,0.1529823818327
8.3375,0.0983097841217186,0.142949990823882
8.355,0.0986742388219348,0.134900338801257
8.3725,0.10106915777592,0.129733082332812
8.39,0.106147044841987,0.122356880470229
8.4075,0.108581841467831,0.111827993081694
8.425,0.10899109391063,0.10309573508856
8.4425,0.109163829866399,0.0943782892867089
8.46,0.10991568216431,0.086878887180438
8.4775,0.110760368570534,0.0758860386192222
8.495,0.107888926109076,0.0660365111990666
8.5125,0.105125862563389,0.0554453837305646
8.53,0.0977468562719218,0.0474899459327402
8.5475,0.094580539407163,0.0424895748816436
8.565,0.0903437751903961,0.0345390921880779
8.5825,0.0858370865184908,0.0275668217611863
8.6,0.0781457134101182,0.0194485012930525
8.6175,0.0699491390318371,0.0171067606080484
8.635,0.0665603819432602,0.0142743935179463
8.6525,0.0630597264878316,0.00773524468642771
8.67,0.0556372733744071,1.70518693030294E-05
8.6875,0.0464798160896478,-0.00525322575132415
8.705,0.0357976427480111,-0.00864339570577421
8.7225,0.0268092367769694,-0.00975384138260671
8.74,0.0159700640179035,-0.0127700863774644
8.7575,0.00402027288665332,-0.00977543391528701
8.775,-0.00343791155454118,-0.00724692983524666
8.7925,-0.0114827501434701,-0.00448063317528319
8.81,-0.018250560633514,-0.00353244005059727
8.8275,-0.0289605015347873,2.44032164385764E-05
8.845,-0.0339054039464032,0.00599482673583449
8.8625,-0.0398237545001449,0.00786311785719053
8.88,-0.0457047041632567,0.0105098789041194
8.8975,-0.055443336399229,0.010536623704442
8.915,-0.0686144303741093,0.017491782194068
8.9325,-0.0777707732606565,0.0289143877022138
8.95,-0.0811963430942445,0.0414402386876354
8.9675,-0.0824302270712438,0.0482431956058563
8.985,-0.0882844207409091,0.0555089529254962
9.0025,-0.0923722067540628,0.0668877679410538
9.02,-0.0918326119645603,0.0779010992336579
9.0375,-0.09098652159713,0.0842397292406258
9.055,-0.0931847633678753,0.0913120320606286
9.0725,-0.0952458514844466,0.0990208309684817
9.09,-0.0976458434021052,0.109409208332121
9.1075,-0.0972820641572837,0.118640642386692
9.125,-0.100361238905482,0.130241241440632
9.1425,-0.0962220796473455,0.145001611696345
9.16,-0.0914098573498088,0.155717011950844
9.1775,-0.0832647362359476,0.167688744169752
9.195,-0.0746730189767929,0.173010036561963
9.2125,-0.069599220119849,0.179632096515453
9.23,-0.0639711922533098,0.185924126806595
9.2475,-0.0584709381967608,0.194946967054431
9.265,-0.0480643051169223,0.201490830061119
9.2825,-0.0416520011827482,0.203989595066372
9.3,-0.0379406546549911,0.210547406063817
9.3175,-0.0307703405786704,0.220591673676499
9.335,-0.018659862418404,0.229278814415522
9.3525,-0.00438770452859628,0.233593640013461
9.37,0.00739374913090107,0.233861107670573
9.3875,0.0171198562375427,0.236050228369342
9.405,0.0292054532127782,0.236777922688011
9.4225,0.0388900590877726,0.236208795605597
9.44,0.0493893968045613,0.236060377921697
9.4575,0.058642923580874,0.235212392350129
9.475,0.0698784952501599,0.234978104065014
9.4925,0.0798197792714206,0.231437312909171
9.51,0.0886783196105132,0.230682738892766
9.5275,0.100537873152099,0.228399453397059
9.545,0.111409617555481,0.224564420833008
9.5625,0.123316293274016,0.219503248566611
9.58,0.133360679048188,0.211831071477994
9.5975,0.141748435975003,0.20397242161014
9.615,0.148714828564562,0.195607174470498
9.6325,0.154292614636873,0.189032495296844
9.65,0.162951505844937,0.182702351843966
9.6675,0.170196139691214,0.171846077471389
9.685,0.174288557323082,0.162984562143686
9.7025,0.179533881056111,0.153628060574316
9.72,0.18292126925727,0.144807350087475
9.7375,0.188100779181401,0.135233039412267
9.755,0.190135272369508,0.124636310796863
9.7725,0.193821686309076,0.11567163754335
9.79,0.196178830891484,0.103335709638201
9.8075,0.196760727562181,0.0924106233691244
9.825,0.196467184299853,0.0802617538809727
9.8425,0.194713861331953,0.0700005106272821
9.86,0.193958843373278,0.0581762704309164
9.8775,0.189434663308753,0.0455935094199625
9.895,0.182993637031397,0.0356139873790346
9.9125,0.177021546155748,0.0279990439206217
9.93,0.172350787787159,0.0202453850638966
9.9475,0.167237713068583,0.0119379519273116
9.965,0.161143912927842,0.00309066928929543
9.9825,0.154055258471553,-0.0046933661582786
10,0.146822321693836,-0.0139456681778527
