"Freq [GHz]","re(S(Antenna1_1_1,Antenna1_1_1)) []","im(S(Antenna1_1_1,Antenna1_1_1)) []"
3,-0.196572848035393,-0.171829121926326
3.0175,-0.205533898388113,-0.151887771100694
3.035,-0.212124228227577,-0.135691704219135
3.0525,-0.215451525074528,-0.120823611290154
3.07,-0.224798278476573,-0.108241889139774
3.0875,-0.231121622934216,-0.0842929424773111
3.105,-0.226413869632493,-0.0653281345127729
3.1225,-0.223826488477642,-0.0516255229639398
3.14,-0.222141531385517,-0.0397040512058418
3.1575,-0.225084107953642,-0.02520179393533
3.175,-0.220262207374947,-0.0044181183023757
3.1925,-0.210677176865567,0.004651662253697
3.21,-0.214012289725643,0.0150103652668935
3.2275,-0.209851068769898,0.036878712725907
3.245,-0.198942482073488,0.0515388239705647
3.2625,-0.188834711894122,0.0656226396624738
3.28,-0.176514207664695,0.0754787043374707
3.2975,-0.168214214440446,0.0859747283020073
3.315,-0.155182248059238,0.0988120686327836
3.3325,-0.138941244163174,0.107409388079647
3.35,-0.12274366762353,0.110333005228248
3.3675,-0.114259223134088,0.111761573384012
3.385,-0.103031481455526,0.122277193128613
3.4025,-0.0835550344506052,0.124546028675757
3.42,-0.0729673659471445,0.123391144598361
3.4375,-0.0604889663920872,0.127108160048551
3.455,-0.0466021267720284,0.130035199922013
3.4725,-0.026709671717579,0.131832329072226
3.49,-0.00944054979372149,0.124074592646546
3.5075,0.00361445046254871,0.119163072607848
3.525,0.0178731449070739,0.111270950647772
3.5425,0.0294110607131429,0.105322217569134
3.56,0.0470945373752276,0.0943142292186442
3.5775,0.0510564025289105,0.0751913164152556
3.595,0.0511102721489724,0.0746976907115434
3.6125,0.070340704142613,0.0694485262805833
3.63,0.0786391872038797,0.049069731966455
3.6475,0.0791689555614567,0.0391493668021825
3.665,0.0865858491345196,0.0320756873972499
3.6825,0.0999987768498762,0.0198287779102759
3.7,0.108387242671931,-0.00610955943304572
3.7175,0.0987112117540535,-0.0273231971722002
3.735,0.0940264001587256,-0.0338116086861986
3.7525,0.0977756954759017,-0.0457978560244919
3.77,0.09819076289263,-0.0647162714779587
3.7875,0.0870300134561248,-0.0846301601535199
3.805,0.0740346698632687,-0.0875918617142459
3.8225,0.0790846670010634,-0.093630971142711
3.84,0.0768912904603762,-0.114685474043784
3.8575,0.0632696365181956,-0.130907560167082
3.875,0.0502489822853063,-0.13720836952263
3.8925,0.0472375447270333,-0.1465719541586
3.91,0.0329122522562703,-0.167691174253277
3.9275,0.00759173940774257,-0.171481032801269
3.945,-0.0020354514416892,-0.169368689006373
3.9625,-0.0118475954270443,-0.175955875103447
3.98,-0.023121600796502,-0.18216277207505
3.9975,-0.0406125439895682,-0.191218348382147
4.015,-0.0612391913242807,-0.188031583727408
4.0325,-0.069721188135359,-0.185137451242456
4.05,-0.0830189777335466,-0.190664388187087
4.0675,-0.101897173054923,-0.190488326797049
4.085,-0.119636260104618,-0.185939113010608
4.1025,-0.133519575995241,-0.177206361266202
4.12,-0.142661765108959,-0.173052628583821
4.1375,-0.158299532633726,-0.169807169180431
4.155,-0.171092649216065,-0.160391640359412
4.1725,-0.182313511241562,-0.154631979700485
4.19,-0.195692386675005,-0.14613786363446
4.2075,-0.207792490344315,-0.138225695200789
4.225,-0.224284203023167,-0.125690540385547
4.2425,-0.23191229824638,-0.106125048509586
4.26,-0.23350345153287,-0.0943980300135502
4.2775,-0.239333234481481,-0.087108260855592
4.295,-0.252031103719024,-0.0763363031620934
4.3125,-0.257942108536881,-0.0545799845480176
4.33,-0.252971900867705,-0.0435914310523655
4.3475,-0.259408463176056,-0.037608917590722
4.365,-0.267703023963581,-0.0232482402945522
4.3825,-0.27259258285843,-0.00451540149199181
4.4,-0.268953659930727,0.0147656986306782
4.4175,-0.264874204742044,0.0244297935676563
4.435,-0.269556442378116,0.0380420020283901
4.4525,-0.265333661425435,0.0604188534099779
4.47,-0.252401013057239,0.0725873896636535
4.4875,-0.247190899479216,0.0776778737558658
4.505,-0.248110449352207,0.0877801000951633
4.5225,-0.243922452230515,0.106153524523054
4.54,-0.229070595700458,0.116394594287831
4.5575,-0.226312541427841,0.117756135000871
4.575,-0.227695700788566,0.13339557222368
4.5925,-0.216612706943267,0.150668403436228
4.61,-0.202855872384411,0.160784211667137
4.6275,-0.191574042903317,0.167045853524902
4.645,-0.183813311799872,0.176304518926599
4.6625,-0.167576306781147,0.188773683343165
4.68,-0.147523945177064,0.188287722053152
4.6975,-0.139598455332744,0.182809622623509
4.715,-0.138253897286839,0.185654003049153
4.7325,-0.131271015329118,0.197419826916932
4.75,-0.113261515311468,0.203382264701609
4.7675,-0.104209435452455,0.200241847639773
4.785,-0.098749198354277,0.208148363770392
4.8025,-0.0820272433421192,0.216359772695443
4.82,-0.0627608494222895,0.216126756404483
4.8375,-0.0475915479805009,0.20948230767525
4.855,-0.0388085767370797,0.204128267418508
4.8725,-0.0287565518151133,0.201350979834945
4.89,-0.0194662504291593,0.196154650115687
4.9075,-0.0128461317777405,0.19272704202014
4.925,-0.0051365300166066,0.191006934470167
4.9425,0.00342515956463012,0.190751222822452
4.96,0.0175131599698632,0.189730705665209
4.9775,0.0305852708480577,0.180656322578144
4.995,0.0373783134075626,0.173224255316487
5.0125,0.0468456946915308,0.167974418908735
5.03,0.0567639299392055,0.159757804746859
5.0475,0.0653322187073529,0.149349652410657
5.065,0.0694984350215996,0.138082262312011
5.0825,0.0728058786447459,0.131253369104224
5.1,0.0785483003496856,0.123569626243745
5.1175,0.0835071585311929,0.115728722471713
5.135,0.0895866305331779,0.106084412466038
5.1525,0.0918584078163382,0.0957974682188158
5.17,0.0959695781673881,0.0886134731915518
5.1875,0.101496682443443,0.0769340355391456
5.205,0.102174263152554,0.064107452440402
5.2225,0.101286769762425,0.0546015396391642
5.24,0.103200810732479,0.0462056160571276
5.2575,0.105745073371232,0.033049185401598
5.275,0.101122109481563,0.0188989265629234
5.2925,0.0955939565805072,0.0118452791012887
5.31,0.0947542063168538,0.00462563755486511
5.3275,0.0937466654455827,-0.00526347154137303
5.345,0.0902220478444454,-0.0170789988344889
5.3625,0.0831223141914344,-0.0255840364370674
5.38,0.0801064537150566,-0.0315331910353153
5.3975,0.077770422761317,-0.04238702524298
5.415,0.0701759660433697,-0.0538885817617799
5.4325,0.0608049919905566,-0.0613568528031256
5.45,0.0535005478584112,-0.0669030776134465
5.4675,0.0474707423728184,-0.0745603615011214
5.485,0.0367527332986024,-0.0831364390556569
5.5025,0.0259985617675373,-0.0852393173350727
5.52,0.0202742101862837,-0.0895040647042703
5.5375,0.0107734161646005,-0.0959813200433017
5.555,0.000540996121456121,-0.100223253413856
5.5725,-0.0113090305414911,-0.103554652394936
5.59,-0.0210990751633677,-0.103260053323778
5.6075,-0.0291665346726019,-0.106542348125661
5.625,-0.041444207107742,-0.108709930137896
5.6425,-0.0527266228356086,-0.108174925556251
5.66,-0.0624092946128226,-0.106913925001048
5.6775,-0.0706285424047964,-0.109190332383808
5.695,-0.0864639823856867,-0.111684243406483
5.7125,-0.101776255848813,-0.105391618498782
5.73,-0.111553605702,-0.0988929840242912
5.7475,-0.120781493395565,-0.0942985900648344
5.765,-0.131336598962691,-0.0897111272612316
5.7825,-0.142073095750145,-0.0823990950323394
5.8,-0.149324682092322,-0.0739080430153716
5.8175,-0.155045717725006,-0.0688180675198683
5.835,-0.164066833958793,-0.0649816551236766
5.8525,-0.175003158869472,-0.0590592267472676
5.87,-0.186829742256807,-0.0497570968649935
5.8875,-0.195300424793814,-0.0375693966588878
5.905,-0.202720405398953,-0.0269763404857854
5.9225,-0.210956331901443,-0.0132963389573432
5.94,-0.214031638663436,0.00234842240587357
5.9575,-0.21427791295402,0.014552117637327
5.975,-0.215073550619146,0.0242994199174481
5.9925,-0.218395706618806,0.0336099985879522
6.01,-0.221193027824065,0.04599157701953
6.0275,-0.222182568790147,0.0568890654557622
6.045,-0.224661167932859,0.0683860150930283
6.0625,-0.227056634242567,0.0807620809301774
6.08,-0.229601658068794,0.0975842254377963
6.0975,-0.224887923096116,0.116013930032055
6.115,-0.218290177394495,0.128947118239457
6.1325,-0.213316225577825,0.141756237057443
6.15,-0.206599951696508,0.154948235962846
6.1675,-0.19798709604848,0.166598945683336
6.185,-0.189885554947381,0.175019696730477
6.2025,-0.185051249222651,0.184704981472513
6.22,-0.1773506303634,0.197303129091935
6.2375,-0.167205104320203,0.207300477628241
6.255,-0.158330400676575,0.216044931475206
6.2725,-0.149640084134957,0.226275696849342
6.29,-0.138514862515736,0.237716713816913
6.3075,-0.123568311612128,0.248041490435655
6.325,-0.106746098366799,0.253154123783327
6.3425,-0.0943643390498673,0.255834429448787
6.36,-0.0818536370973586,0.261947733677556
6.3775,-0.0656081382702109,0.266478456276889
6.395,-0.0493172816953478,0.266714160121489
6.4125,-0.0367413192951966,0.265315327140555
6.43,-0.0248729963098665,0.266647214349866
6.4475,-0.0109395470327178,0.267139248222856
6.465,0.00237227362635817,0.266897403755836
6.4825,0.0167996303064387,0.266594287200461
6.5,0.0319897995337054,0.265180048575988
6.5175,0.0487225707250139,0.261748791120494
6.535,0.0655814345051921,0.254972011264715
6.5525,0.0806537706878551,0.245133479245096
6.57,0.0916843726865904,0.234193387233472
6.5875,0.101787978866648,0.226220233618847
6.605,0.114053794051225,0.216212687118186
6.6225,0.122605416293068,0.20415854757592
6.64,0.129925607494412,0.19484398220865
6.6575,0.138828451703874,0.185723760988874
6.675,0.148373205403175,0.175344096712489
6.6925,0.158171262716379,0.163131570920162
6.71,0.166679309683827,0.147852877656003
6.7275,0.171217722516092,0.131817852795239
6.745,0.174637934759845,0.1174281268877
6.7625,0.177073234109058,0.102040431902197
6.78,0.177044110391852,0.0878959755063089
6.7975,0.177482036777342,0.0755578194165611
6.815,0.179537415765619,0.0621899871958632
6.8325,0.179412037826557,0.0454028798895727
6.85,0.174881760910892,0.0305691711109874
6.8675,0.171125851515962,0.0179853949592466
6.885,0.167122143564863,0.00514826863576952
6.9025,0.162903477208084,-0.00822655436136017
6.92,0.155503244941951,-0.0220542224058151
6.9375,0.147088175632896,-0.0319514289818646
6.955,0.141309818664566,-0.0411122624574855
6.9725,0.1353016407764,-0.0519860184665988
6.99,0.127108916492978,-0.064495632466422
7.0075,0.115333996447724,-0.0746073777682591
7.025,0.10546493876486,-0.0829187362534677
7.0425,0.0924741257252222,-0.093501642080099
7.06,0.0757752045840219,-0.0980408860581834
7.0775,0.0633402907772321,-0.0980022032672555
7.095,0.0552435448360477,-0.0988584330921194
7.1125,0.0476023930041339,-0.103823615009934
7.13,0.0359013511762505,-0.108979531359607
7.1475,0.0242789310471373,-0.111282745124721
7.165,0.0133170086278928,-0.114310736105977
7.1825,0.00033725494492115,-0.117299125124091
7.2,-0.0142170918023512,-0.118273891923834
7.2175,-0.0293077525343441,-0.116378695095105
7.235,-0.0424623450144095,-0.111471569187165
7.2525,-0.0537201413588132,-0.10709040959359
7.27,-0.0657542005366158,-0.10070467092751
7.2875,-0.073225618359152,-0.0924915481214793
7.305,-0.0786108014801235,-0.088145098787451
7.3225,-0.0858014951012059,-0.0862489598686166
7.34,-0.0971504899207853,-0.083687795712509
7.3575,-0.107637245842624,-0.0757905291682372
7.375,-0.114650609962135,-0.0698324173141326
7.3925,-0.125001314109409,-0.0643500265496223
7.41,-0.13431855276589,-0.0558652215477168
7.4275,-0.143523040124828,-0.0464342955378337
7.445,-0.150104738803904,-0.0336242690853081
7.4625,-0.152656533416268,-0.0227824217867478
7.48,-0.155578689819991,-0.013474944333114
7.4975,-0.157950369596468,-0.00434330703880649
7.515,-0.159452021135697,0.00508412127061879
7.5325,-0.158684915558218,0.0112941131828245
7.55,-0.16367494359984,0.0148668357456137
7.5675,-0.170466981696679,0.0247222684756073
7.585,-0.173679052286726,0.0360117704454763
7.6025,-0.175694362171736,0.0474478975830889
7.62,-0.176647528351827,0.058684754262796
7.6375,-0.177309848848596,0.0714891899569338
7.655,-0.173508188208672,0.0855848935066468
7.6725,-0.166201890335761,0.0951246063027262
7.69,-0.161106462333832,0.10093460037616
7.7075,-0.158168219427688,0.106668775538582
7.725,-0.155837285796449,0.113290621993303
7.7425,-0.152958644771015,0.11910600814044
7.76,-0.153983090492011,0.124364767062573
7.7775,-0.156025859561475,0.137341332231005
7.795,-0.148528685330067,0.152238151471515
7.8125,-0.138865045637472,0.160139992690179
7.83,-0.131227535331034,0.166976369660131
7.8475,-0.124226257289767,0.173565811432705
7.865,-0.115078406791122,0.181261311572318
7.8825,-0.104507405132619,0.183485722440682
7.9,-0.0994324281050172,0.185177638039729
7.9175,-0.0943943778605164,0.189480150795263
7.935,-0.0892978540697891,0.19547903927096
7.9525,-0.0802305997634035,0.201944447811395
7.97,-0.0719564377256506,0.204557153815411
7.9875,-0.0647694368896356,0.210291854854742
8.005,-0.0528289572730984,0.214603502824593
8.0225,-0.0421717596719963,0.215213350408101
8.04,-0.0323908075638569,0.215168286649456
8.0575,-0.024581051654325,0.215246231864127
8.075,-0.0143415913130794,0.217321766009281
8.0925,-0.00287098056813494,0.214706642602187
8.11,0.00459977755961111,0.211814061457258
8.1275,0.0129854277674547,0.210695174857494
8.145,0.0217653504319109,0.207781144639409
8.1625,0.0294516429838925,0.205305715971173
8.18,0.038317749313997,0.201750095759539
8.1975,0.0446767655281831,0.197907854255219
8.215,0.0533726449147723,0.195843362654569
8.2325,0.0624159683635329,0.190397315616672
8.25,0.0705424093225975,0.184875773020957
8.2675,0.078170248275122,0.177206776135193
8.285,0.084774260228287,0.170004584966677
8.3025,0.0913933520008252,0.16028593269133
8.32,0.0934344802325101,0.1508153873947
8.3375,0.0965836735797186,0.144747144193882
8.355,0.100671299104335,0.136368504996257
8.3725,0.10304630931792,0.128494730332812
8.39,0.105761783148987,0.119587423901229
8.4075,0.105782421135831,0.111651747596694
8.425,0.10809548341963,0.10502382768056
8.4425,0.110307726881399,0.0962678831977089
8.46,0.11238197733431,0.085870852947438
8.4775,0.109799927370534,0.0735574177312222
8.495,0.105715053689076,0.0665518119480666
8.5125,0.105231195143389,0.0579965557420646
8.53,0.100592736512922,0.0472789751207402
8.5475,0.094300965659163,0.0403380521182136
8.565,0.0894735223693961,0.0340174061280779
8.5825,0.0841556086194908,0.0278393756151863
8.6,0.0786934069001182,0.0213134729630525
8.6175,0.0709039500218371,0.0163701546750484
8.635,0.0661086760172602,0.0140692464579463
8.6525,0.0626229205878316,0.00810971773342771
8.67,0.0565459322844071,0.00102159927530303
8.6875,0.0473191828696478,-0.00647267555132415
8.705,0.0354443351130111,-0.00861679650577421
8.7225,0.0275893910229694,-0.0106576499726067
8.74,0.0148576780479035,-0.0138490018874644
8.7575,0.00297125494365332,-0.00975586541528701
8.775,-0.00456087698854118,-0.00662120201624666
8.7925,-0.0119051690124701,-0.00342149421228319
8.81,-0.018354321276514,-0.00187409944159727
8.8275,-0.0272018385807873,0.00143086805143858
8.845,-0.0316025204638032,0.00599588678983449
8.8625,-0.0373826929088449,0.00527888957819053
8.88,-0.0474624160499567,0.00689210989611938
8.8975,-0.058508187346229,0.010269643694442
8.915,-0.0707364529441093,0.019567978274068
8.9325,-0.0759172858906565,0.0308613054052138
8.95,-0.0813974115242445,0.0391018270806354
8.9675,-0.0854448508312438,0.0502383127571563
8.985,-0.0868297083209091,0.0592302909554962
9.0025,-0.0881514616780628,0.0677456373810538
9.02,-0.0891322221245603,0.0741154262036579
9.0375,-0.09299454554413,0.0815339259347258
9.055,-0.0946319590068753,0.0912024926466286
9.0725,-0.0959822157754466,0.0992059949831817
9.09,-0.0980907642921052,0.108733257906121
9.1075,-0.0997809493172837,0.118863501696692
9.125,-0.101445539075482,0.132953947053632
9.1425,-0.0951105164773455,0.147975243176345
9.16,-0.0874361224958088,0.156319121460844
9.1775,-0.0819308674329476,0.164649838159752
9.195,-0.0757796193016929,0.171644245651963
9.2125,-0.070848524121597,0.179915319705453
9.23,-0.0626351210284098,0.186872023286595
9.2475,-0.0580341365512708,0.192145234379431
9.265,-0.0509538308557223,0.201133147961119
9.2825,-0.0429248341147482,0.205629251320372
9.3,-0.0374210297038911,0.213061049589817
9.3175,-0.0280185047776704,0.220293031568499
9.335,-0.019038993613404,0.227495711165522
9.3525,-0.00521162229459628,0.233710853633461
9.37,0.00714178767390107,0.234719266083573
9.3875,0.0185436744195427,0.236299006502342
9.405,0.0291892153427782,0.235342997810011
9.4225,0.0381686493777726,0.236369277372597
9.44,0.0496815437945613,0.236155576579697
9.4575,0.058718972017874,0.234416131748029
9.475,0.0683844732601599,0.234682747237614
9.4925,0.0795480871094206,0.233109487691571
9.51,0.0897780638275132,0.230808851321566
9.5275,0.100644626563099,0.227911277331259
9.545,0.110863714616481,0.224642867186008
9.5625,0.124082498984016,0.220533669505611
9.58,0.134570368338188,0.210373248768994
9.5975,0.140321234645003,0.20285302524314
9.615,0.147482019575562,0.196441694371498
9.6325,0.154815572141873,0.190587194794844
9.65,0.164512107096937,0.181883788870966
9.6675,0.169031316178214,0.170752892821389
9.685,0.173617274456082,0.164094571622686
9.7025,0.180476205343211,0.154285987424316
9.72,0.18367043601967,0.143832333707475
9.7375,0.187177995803401,0.134620736945267
9.755,0.189724313467508,0.125140364304863
9.7725,0.193916798965076,0.11598848618935
9.79,0.196219856542484,0.103116545055201
9.8075,0.196045825997181,0.0930816817461244
9.825,0.197848161645853,0.0812164240899727
9.8425,0.195499609859953,0.0686711474212821
9.86,0.193499311455278,0.0574690810139164
9.8775,0.188431817989753,0.0452037059929625
9.895,0.182491077461397,0.0368398859250346
9.9125,0.177942100905748,0.0281363260546217
9.93,0.172416407647159,0.0198106740390166
9.9475,0.166768859098583,0.0113765881693116
9.965,0.159929383507842,0.00406594818029543
9.9825,0.155124350966553,-0.0030524041182786
10,0.148744527468836,-0.0141378242788527
