"Freq [GHz]","re(S(Antenna1_1_1,Antenna1_1_1)) []","im(S(Antenna1_1_1,Antenna1_1_1)) []"
3,-0.197999015491393,-0.167280142269326
3.0175,-0.206976367015113,-0.149234368275694
3.035,-0.210538505914577,-0.131595660970035
3.0525,-0.213582655258528,-0.119631106162154
3.07,-0.221438264227973,-0.105176732734774
3.0875,-0.224233191731216,-0.0868912757213111
3.105,-0.225308629421493,-0.0725850674496729
3.1225,-0.228512886199042,-0.0566626756289398
3.14,-0.228232746230417,-0.0381005172358418
3.1575,-0.224569230605942,-0.02155247801133
3.175,-0.220434378858547,-0.0069217365213757
3.1925,-0.216923427355567,0.007527888278697
3.21,-0.210589341997643,0.0235505708478935
3.2275,-0.202802475826498,0.034776409883907
3.245,-0.198849173815488,0.0483485047395647
3.2625,-0.189665861471122,0.0638957449314737
3.28,-0.178532737632695,0.0775782284244707
3.2975,-0.162741231457446,0.0877946108850073
3.315,-0.152498636306238,0.0911624798257836
3.3325,-0.145587354483174,0.102545030199347
3.35,-0.12949707384253,0.113631097581948
3.3675,-0.113965843856088,0.118051897441012
3.385,-0.0999750845485257,0.122596783481613
3.4025,-0.0848059207826052,0.125434652958757
3.42,-0.0703884652691445,0.126391011568361
3.4375,-0.0574792900800872,0.126370650447451
3.455,-0.0438039784520284,0.128892051852013
3.4725,-0.025284054199579,0.127357401712226
3.49,-0.0121664438877215,0.120426407001546
3.5075,-0.0010721175364513,0.118805680506848
3.525,0.0163183010300739,0.115487362338772
3.5425,0.0324265685561429,0.104947677038134
3.56,0.0431457214332276,0.0921340997206442
3.5775,0.0493266965499105,0.0816649534432556
3.595,0.0574049312289724,0.0751452757915434
3.6125,0.067807604033613,0.0653411030205833
3.63,0.0760735805142797,0.055305587660455
3.6475,0.0875190472694567,0.0432569374421825
3.665,0.0949539995545196,0.0249934216972499
3.6825,0.0971113034178762,0.00759038226027588
3.7,0.0958070274519312,-0.00801928399604572
3.7175,0.0941814987758535,-0.0187027670093002
3.735,0.0969610162127256,-0.0302136389191986
3.7525,0.0977796521399018,-0.0456928798774919
3.77,0.09596261849563,-0.0607199525129587
3.7875,0.0931807021181248,-0.0761465969345199
3.805,0.0882039322760687,-0.0928156815342459
3.8225,0.0773492927350634,-0.109249883112711
3.84,0.0641972758933762,-0.116571374809784
3.8575,0.0605938729281956,-0.122972753631082
3.875,0.0542301091853063,-0.13763987030343
3.8925,0.0418281765870333,-0.1486390587283
3.91,0.0311308886662703,-0.158615557639277
3.9275,0.0168882604307426,-0.169337612860269
3.945,0.0007224574433108,-0.175390446587373
3.9625,-0.0130722680690443,-0.179544097823447
3.98,-0.027326590082502,-0.18471405796505
3.9975,-0.0444858830645682,-0.187377674616147
4.015,-0.0589798450091807,-0.185184726329408
4.0325,-0.069324515474359,-0.185246959744456
4.05,-0.0815168216285466,-0.188393207957087
4.0675,-0.0978556069131226,-0.192051624547049
4.085,-0.119489221817618,-0.190370004270608
4.1025,-0.137335438787241,-0.179915653975202
4.12,-0.147263004764759,-0.169848159120821
4.1375,-0.154962806717426,-0.165067651131431
4.155,-0.167424328257065,-0.164123737505412
4.1725,-0.185537637097562,-0.158023128430485
4.19,-0.200791589584005,-0.14513631606846
4.2075,-0.210841517583315,-0.130456604347789
4.225,-0.215123643727167,-0.117921443364247
4.2425,-0.22101525875038,-0.113547925462886
4.26,-0.23630196922887,-0.10540687728355
4.2775,-0.247851612665481,-0.088744924220592
4.295,-0.254541831389024,-0.0715219865340934
4.3125,-0.256336196496881,-0.0549616140510176
4.33,-0.256752857123705,-0.0439821789133655
4.3475,-0.260821070625056,-0.033208294995722
4.365,-0.265433671003581,-0.0199440166220522
4.3825,-0.26856318387843,-0.00445206027699181
4.4,-0.268369335650727,0.0117877651046782
4.4175,-0.266964543098044,0.0251074199926563
4.435,-0.267061279489116,0.0416593071953901
4.4525,-0.258360580087435,0.0569825029799779
4.47,-0.254850515469239,0.0634785731956535
4.4875,-0.255241279386215,0.0777353667168658
4.505,-0.249207499005207,0.0926007108321633
4.5225,-0.241985176172845,0.104796902533054
4.54,-0.235398485622458,0.115117195457831
4.5575,-0.229424921342641,0.127482989112871
4.575,-0.219210066714566,0.13931466941168
4.5925,-0.209648790434067,0.147008600656228
4.61,-0.202249426710411,0.156449314619137
4.6275,-0.190848796199317,0.166529589394902
4.645,-0.179286473599872,0.171978820596599
4.6625,-0.170557378982147,0.177665581440165
4.68,-0.161910580035064,0.184731488211152
4.6975,-0.150998522501744,0.194803251170509
4.715,-0.132604611135839,0.200959768000153
4.7325,-0.118209287456118,0.197366947632632
4.75,-0.112557981501468,0.196408418223609
4.7675,-0.105979430696455,0.203207387615773
4.785,-0.092036471544277,0.209351003248392
4.8025,-0.0782438599111192,0.209811118666443
4.82,-0.0651304082422895,0.210776973846483
4.8375,-0.0506416669405009,0.20709852138425
4.855,-0.0426957242850797,0.201973375369508
4.8725,-0.0353285127211133,0.202388619747945
4.89,-0.0231921043781593,0.203239307785687
4.9075,-0.0094124268207405,0.19929540480314
4.925,0.000545090453093402,0.192818594330167
4.9425,0.00856511835363012,0.188213253407452
4.96,0.0174134248903632,0.184957899991209
4.9775,0.0286495144900577,0.180835388185144
4.995,0.0395581580828626,0.172817909199487
5.0125,0.0466641317579008,0.163977887259735
5.03,0.0529064071762055,0.157626945078859
5.0475,0.0609932556883529,0.151012774928657
5.065,0.0685062859885996,0.142626805555011
5.0825,0.0753245493817459,0.133660162377224
5.1,0.0807824000516856,0.123731590973745
5.1175,0.0850390009471929,0.114348636508713
5.135,0.0886053698171779,0.105185505056038
5.1525,0.0926390177913382,0.0971540209238158
5.17,0.0979078017133881,0.0867333576159518
5.1875,0.0997494169084432,0.0748933321058456
5.205,0.100792261226554,0.065326816955402
5.2225,0.102755924594425,0.0550028844475442
5.24,0.103249888157479,0.0433356852763276
5.2575,0.101098618830232,0.032282100034298
5.275,0.0991145024335632,0.0241993480749234
5.2925,0.0995600797735072,0.0147311476022887
5.31,0.0975842093378538,0.00309191685286511
5.3275,0.0938310117685827,-0.00699964087537303
5.345,0.0900712369054454,-0.0169174531884889
5.3625,0.0848361365144344,-0.0263910183310674
5.38,0.0796817266270566,-0.0348256507693153
5.3975,0.073845591521197,-0.04312945327198
5.415,0.0687031757657697,-0.0504696655077799
5.4325,0.0632213500368566,-0.0601978161821256
5.45,0.0536811045763112,-0.0688454712024465
5.4675,0.0450090469624184,-0.0736855702661215
5.485,0.0384833635739024,-0.0798783759176569
5.5025,0.0293373817801373,-0.0874623574580727
5.52,0.0179085509282837,-0.0922027231722703
5.5375,0.0086295463596005,-0.0936785393733017
5.555,0.00247296843645612,-0.0978571678018556
5.5725,-0.00803239854049108,-0.104601302731936
5.59,-0.0208794784023677,-0.107237027799778
5.6075,-0.0327677156456019,-0.107873691024661
5.625,-0.043212418008742,-0.106387759179896
5.6425,-0.0514508051956086,-0.106709305317251
5.66,-0.0616074151328226,-0.108487436599048
5.6775,-0.0730639498047964,-0.109497890627008
5.695,-0.0868402832656867,-0.109497230069483
5.7125,-0.101463125522813,-0.104748994402782
5.73,-0.111540222295,-0.0969783407820912
5.7475,-0.118120083141565,-0.0923334294360344
5.765,-0.127206121044691,-0.0907487514602316
5.7825,-0.139987482674145,-0.0870181841473394
5.8,-0.151964835525322,-0.0783906536913716
5.8175,-0.159260239920006,-0.0694341829368683
5.835,-0.166846362911793,-0.0637406436346766
5.8525,-0.177300154527472,-0.0567938864972676
5.87,-0.187207216694807,-0.0461822327509935
5.8875,-0.193859897240814,-0.0347942666748878
5.905,-0.200164234625953,-0.0244120705797854
5.9225,-0.205623049251443,-0.0128091332153432
5.94,-0.209911701488436,-0.00216302394512643
5.9575,-0.21482471894222,0.00888840065532704
5.975,-0.219223109352146,0.0209296517254481
5.9925,-0.222406323779806,0.0344483060979522
6.01,-0.222986867027265,0.04714366162953
6.0275,-0.224502132405147,0.0585899277357622
6.045,-0.225758780217859,0.0717445619330283
6.0625,-0.225672838023567,0.0849924214001774
6.08,-0.224684489213794,0.0992061218617963
6.0975,-0.221775761672116,0.113123246402055
6.115,-0.218616181774495,0.126830232038457
6.1325,-0.213139082247825,0.141534118292443
6.15,-0.204830349861508,0.153422597285846
6.1675,-0.19855400995348,0.162251556776836
6.185,-0.194754806772381,0.173046145074477
6.2025,-0.189009484142651,0.187152210216913
6.22,-0.1784620650634,0.200874496169835
6.2375,-0.166456779334203,0.210360655645541
6.255,-0.156107850128575,0.218583297668906
6.2725,-0.145779845380957,0.226569635705342
6.29,-0.136193293695736,0.235157174778913
6.3075,-0.123934341572128,0.245478602034655
6.325,-0.108277873643799,0.252923708033327
6.3425,-0.0928765864438673,0.256714193651787
6.36,-0.0798838105023586,0.258240475411556
6.3775,-0.069615456393211,0.261953135146889
6.395,-0.0558788008523478,0.268397430131489
6.4125,-0.0383573854889966,0.271472816092555
6.43,-0.0215492610988665,0.269959132603866
6.4475,-0.00872034501471783,0.266972179852856
6.465,0.00326573230545817,0.267344077065836
6.4825,0.0189589383766387,0.267168047760461
6.5,0.0345552399117054,0.263929293865988
6.5175,0.0501689817300139,0.259305618320494
6.535,0.0658112081631922,0.251527546374715
6.5525,0.0776773393298551,0.241695833991096
6.57,0.0873020651085904,0.234413922410472
6.5875,0.0989904116266483,0.228281688613847
6.605,0.112190866491225,0.219922181344186
6.6225,0.124294009033068,0.20870070516892
6.64,0.134233686430412,0.19663976319265
6.6575,0.142895414512874,0.184020511931674
6.675,0.149760207613175,0.171788711659889
6.6925,0.157018120226379,0.159977729408462
6.71,0.163821595043827,0.146990920088003
6.7275,0.170161200106092,0.132956342183239
6.745,0.174172108649845,0.1173346206197
6.7625,0.175880051749058,0.102708860177197
6.78,0.176670204161852,0.0893956797593089
6.7975,0.178705483750342,0.0767612553275611
6.815,0.180243705165619,0.0613507887298632
6.8325,0.178865074211557,0.0460508296995727
6.85,0.176323083200892,0.0309157959409874
6.8675,0.171440716741962,0.0168077299892466
6.885,0.166184174904763,0.00465759567576952
6.9025,0.162010169860324,-0.00647181530136018
6.92,0.158565455442951,-0.0202764692558151
6.9375,0.150292458021896,-0.0351962785018646
6.955,0.139896705456566,-0.0452796370574855
6.9725,0.1316379039134,-0.0531716412765988
6.99,0.124556898812978,-0.062923027446422
7.0075,0.114720386194724,-0.0730659755182591
7.025,0.10429520197886,-0.0819552485034677
7.0425,0.0914861109052222,-0.090107897230099
7.06,0.0788155454340219,-0.0943521902451834
7.0775,0.0681277917972321,-0.0980640006572555
7.095,0.0584242243560477,-0.101837912032119
7.1125,0.0484362320041339,-0.107638712683934
7.13,0.0349127552262505,-0.112968272275607
7.1475,0.0202373285571373,-0.114562180404321
7.165,0.0075999859958928,-0.113442709545977
7.1825,-0.00264393854307885,-0.112836362183091
7.2,-0.0136937163323512,-0.113927590635834
7.2175,-0.0270144158543441,-0.113411302190105
7.235,-0.0393376214044095,-0.110381449658165
7.2525,-0.0510396964388132,-0.10685443187959
7.27,-0.0615942504196158,-0.10172278309751
7.2875,-0.070575825297152,-0.0974354557314793
7.305,-0.0801644098571235,-0.093692663377451
7.3225,-0.0912905431342059,-0.0894645311086166
7.34,-0.102475017941785,-0.081195398692509
7.3575,-0.108701895288424,-0.0724815790482372
7.375,-0.115159063168135,-0.0675668796041326
7.3925,-0.124635201370409,-0.0620357451196223
7.41,-0.13380651924689,-0.0537540468677168
7.4275,-0.141405065879028,-0.0435489944878337
7.445,-0.145733582018904,-0.0328310014453081
7.4625,-0.148740801750268,-0.0248975996567478
7.48,-0.153296706804991,-0.017375270993114
7.4975,-0.157836608256468,-0.00939770924980649
7.515,-0.163047875765697,-0.000405556491381211
7.5325,-0.166776667868218,0.0101026434618245
7.55,-0.16931436960984,0.0206429245866137
7.5675,-0.170059768136679,0.0310890081676073
7.585,-0.170697755436726,0.0396008254694763
7.6025,-0.172638068049736,0.0490882020271889
7.62,-0.173023217340827,0.059855791833796
7.6375,-0.172187088335596,0.0702049053399339
7.655,-0.170204259942672,0.0804272109276468
7.6725,-0.167183856335761,0.0891813653278262
7.69,-0.165058141103832,0.0968845355701602
7.7075,-0.163724677717688,0.105169425428582
7.725,-0.162158495391449,0.115072687423303
7.7425,-0.157780360464015,0.12586168549944
7.76,-0.151556971278011,0.133955771752573
7.7775,-0.146658458173475,0.140613141841005
7.795,-0.142509220894067,0.147367414624515
7.8125,-0.138872390598272,0.155943299788179
7.83,-0.131230562379564,0.165625562220131
7.8475,-0.122926005385267,0.171085320432705
7.865,-0.116424944486722,0.176404839148318
7.8825,-0.110084849794619,0.181386583080682
7.9,-0.104310234653017,0.187504319479729
7.9175,-0.0969354370225164,0.194299934435263
7.935,-0.0872817484237891,0.20089118858696
7.9525,-0.0757164179164035,0.203482482653395
7.97,-0.0682850161516506,0.203407621561411
7.9875,-0.0630221150696356,0.206717142180742
8.005,-0.0548671820730984,0.212226042184593
8.0225,-0.0436481523419963,0.215799262666101
8.04,-0.0322654777638569,0.216183557748456
8.0575,-0.022675907784325,0.215038259457127
8.075,-0.0139938990030794,0.214141913791681
8.0925,-0.00615682371813494,0.212732542579587
8.11,0.00106652935961111,0.213527288010258
8.1275,0.0122292966274547,0.214113913633494
8.145,0.0233055310909109,0.210514528822409
8.1625,0.0324774059098925,0.205774452412173
8.18,0.039435178433997,0.200200668594539
8.1975,0.0449657830881831,0.197409754435219
8.215,0.0536290351617723,0.195074450984569
8.2325,0.0626426664255329,0.190141088276672
8.25,0.0711473368015975,0.183859377020957
8.2675,0.078067059970122,0.175525972125193
8.285,0.082868242187197,0.167887660356677
8.3025,0.0875368744718252,0.16109760863133
8.32,0.0925500585030001,0.1545427702727
8.3375,0.0984936316347186,0.146647014783882
8.355,0.102375458440335,0.136417926906257
8.3725,0.10356377634292,0.127510126622812
8.39,0.105006931176987,0.120295625030229
8.4075,0.107797305657831,0.113071972642694
8.425,0.11073180688263,0.10340577685556
8.4425,0.110743804297399,0.0927660798217089
8.46,0.10925332572431,0.083539995589438
8.4775,0.107481290762534,0.0751044142682222
8.495,0.105607765359076,0.0668627001720666
8.5125,0.103089290303389,0.0585602893850646
8.53,0.100303620622922,0.0506020812297402
8.5475,0.097033045807163,0.0415146956248136
8.565,0.0903829578303961,0.0326698526390779
8.5825,0.0832150626504908,0.0280330466401863
8.6,0.0794345669391182,0.0237834251930525
8.6175,0.0756590338468371,0.0166936005490484
8.635,0.0687774835132602,0.00878065002294631
8.6525,0.0600250574268316,0.00354016941542771
8.67,0.0523254905194071,-0.00101196695069697
8.6875,0.0421467811516478,-0.00514482013132415
8.705,0.0331351687150111,-0.00468389399477421
8.7225,0.0269296380089694,-0.00655344953360672
8.74,0.0178168952469035,-0.00900679616746444
8.7575,0.00824777273865332,-0.00972937145528701
8.775,-0.00222367309374118,-0.00866764131524666
8.7925,-0.0103245400264701,-0.00532145791428319
8.81,-0.017310446430414,-0.00410193075359727
8.8275,-0.0264371076137873,-0.00246607543456142
8.845,-0.0354838738884032,0.00107879729683449
8.8625,-0.0440780923571449,0.00574058582319053
8.88,-0.0515813801119567,0.0113373792281194
8.8975,-0.058713859397229,0.016829094179442
8.915,-0.0656358537661093,0.023335647804068
8.9325,-0.0720373947556565,0.0297773193992138
8.95,-0.0793915708442445,0.0380137130606354
8.9675,-0.0835552491512438,0.0486103308788563
8.985,-0.0853865947739091,0.0568358769470962
9.0025,-0.0880686824040628,0.0638039626290538
9.02,-0.0923241955835603,0.0707442319646579
9.0375,-0.09736120163613,0.0809950902380258
9.055,-0.0988978930108753,0.0929846882766286
9.0725,-0.0986052242784466,0.103976949962882
9.09,-0.0967841842311052,0.114174920892121
9.1075,-0.0953258019282837,0.122647557538692
9.125,-0.0945050279294824,0.132376306100632
9.1425,-0.0922111030523455,0.142105515882345
9.16,-0.0895090078018088,0.152953534828844
9.1775,-0.0832064886389476,0.163590343509752
9.195,-0.0767704226676929,0.170739615821963
9.2125,-0.072072632210597,0.178226998667453
9.23,-0.0664509875894098,0.186625856916595
9.2475,-0.0598991573851708,0.194963541174431
9.265,-0.0516796496204223,0.203049411881119
9.2825,-0.0429364049717482,0.209360104223372
9.3,-0.0338380336006911,0.215730459221817
9.3175,-0.0238723961246704,0.219798925884499
9.335,-0.016253039161404,0.224089448958522
9.3525,-0.00629095738959628,0.230218878602461
9.37,0.00589283167590107,0.233647905391573
9.3875,0.0169919350125427,0.234547311676342
9.405,0.0263364439447782,0.235627055864011
9.4225,0.0368523236847726,0.237705438708597
9.44,0.0484770027895613,0.237615970455697
9.4575,0.058408765699874,0.237019995149729
9.475,0.0702684526101599,0.237220899830014
9.4925,0.0829052873254206,0.233377863190461
9.51,0.0919077596475132,0.228427048671766
9.5275,0.0998700269360993,0.225653532695259
9.545,0.110104558474481,0.224394855697008
9.5625,0.123626152274016,0.219823316472611
9.58,0.133908280468188,0.210632082249994
9.5975,0.140402401843003,0.20249043963014
9.615,0.146853635037562,0.196280567032498
9.6325,0.154381158260873,0.189857935982844
9.65,0.161710859553937,0.182397210074966
9.6675,0.169134368759214,0.174732315865389
9.685,0.177183995758082,0.164612042761686
9.7025,0.181230072604211,0.152090556184316
9.72,0.18258495898427,0.143263442227475
9.7375,0.186625109798401,0.135669281546267
9.755,0.191434815398508,0.126168796098863
9.7725,0.195506213413076,0.11423334597535
9.79,0.195867664816484,0.101584537820201
9.8075,0.195481336500181,0.0913828568331244
9.825,0.195367550125853,0.0803358126419727
9.8425,0.193567528114953,0.069561996524282
9.86,0.191532648362278,0.0592416688079164
9.8775,0.188675305695753,0.0488785093519625
9.895,0.185285445721397,0.0384649689140346
9.9125,0.180011878895748,0.0279245157526217
9.93,0.174006130787159,0.0196183328110966
9.9475,0.169552047598583,0.0107610268843116
9.965,0.162834416307842,-0.000121874067504575
9.9825,0.152830473258553,-0.0095701105814786
10,0.141443236390836,-0.0159681189708527
