"Freq [GHz]","re(S(Antenna1_1_1,Antenna1_1_1)) []","im(S(Antenna1_1_1,Antenna1_1_1)) []"
3,-0.193237903079393,-0.168521008481326
3.0175,-0.205265958581113,-0.153181292632694
3.035,-0.212947079401577,-0.134606119160135
3.0525,-0.214858798468528,-0.117910468417154
3.07,-0.219544512774973,-0.107235721508774
3.0875,-0.228034196632616,-0.0890159730173111
3.105,-0.227361084949493,-0.0699153740256729
3.1225,-0.227577871802642,-0.0551131481849398
3.14,-0.227746256306517,-0.0394858843498418
3.1575,-0.228441447876542,-0.02123754084033
3.175,-0.220952961963547,-0.0010654581080757
3.1925,-0.211791139326567,0.010183170904697
3.21,-0.206950382480643,0.0219247225918935
3.2275,-0.200371332109898,0.033287505804907
3.245,-0.196237623824488,0.0444020779015647
3.2625,-0.190972209557122,0.0586453086104738
3.28,-0.182524861962695,0.0737569655174707
3.2975,-0.169762468066446,0.0872986712350073
3.315,-0.157531420368238,0.0958810877787836
3.3325,-0.147801974053174,0.108878348036447
3.35,-0.12623398515653,0.122206532542248
3.3675,-0.104631290875088,0.120465321942412
3.385,-0.0931713236250257,0.118269378507613
3.4025,-0.0829612097166052,0.118951992266757
3.42,-0.0720803002231445,0.122406969778361
3.4375,-0.0579482434020872,0.122860801549451
3.455,-0.0485116587120284,0.123577222231013
3.4725,-0.033764874779579,0.128433470916226
3.49,-0.0165227834997215,0.127200152594546
3.5075,0.0010453831945487,0.125970330146848
3.525,0.0219087924909739,0.116775780268772
3.5425,0.0329029392961429,0.102773365109134
3.56,0.0418596207402276,0.0959309113276442
3.5775,0.0567926569989105,0.0864627186492556
3.595,0.0675244964859724,0.0687953893125434
3.6125,0.067706209066613,0.0528594573935833
3.63,0.0670428013712797,0.048662180665455
3.6475,0.0795507896914567,0.0445430838021825
3.665,0.0894465516746196,0.0272536335172499
3.6825,0.0912119324744762,0.0139020415002759
3.7,0.0965986441349312,0.00251404238495428
3.7175,0.102977511428053,-0.0124873544123002
3.735,0.105604510417726,-0.0326537088381986
3.7525,0.101557014663902,-0.0501532150024919
3.77,0.09870326500263,-0.0662892526929587
3.7875,0.0909700072981248,-0.0833589495057199
3.805,0.0820470807120687,-0.0955766531241459
3.8225,0.0730529914400634,-0.107630897135011
3.84,0.0623202309383762,-0.116142813222784
3.8575,0.0549824202811956,-0.121800506185082
3.875,0.0509816203353063,-0.12919531491363
3.8925,0.0475939701870333,-0.1413090254173
3.91,0.0381414636362703,-0.159662385197277
3.9275,0.0183713833007426,-0.171363500804269
3.945,0.0041704774223108,-0.175680142199373
3.9625,-0.0100873738300443,-0.184269131211447
3.98,-0.028525512052502,-0.18979722510805
3.9975,-0.0480576970576682,-0.190698759972147
4.015,-0.0633602102861807,-0.186250927711408
4.0325,-0.074705278246859,-0.184511681162456
4.05,-0.0865516164465466,-0.182809060653086
4.0675,-0.0968836416931226,-0.183231827654049
4.085,-0.111666381991618,-0.184925939950608
4.1025,-0.127532451441241,-0.182367632825202
4.12,-0.143287816381759,-0.180230127669821
4.1375,-0.163017384106726,-0.173077778700431
4.155,-0.176335798042065,-0.159359400746412
4.1725,-0.183653008262562,-0.149421817304485
4.19,-0.191919738917005,-0.14473802024546
4.2075,-0.208195740713315,-0.139660346570789
4.225,-0.222823819363167,-0.122831833604547
4.2425,-0.22690100184638,-0.110035918927886
4.26,-0.23820643039887,-0.10126801975655
4.2775,-0.247628475735481,-0.083161778637592
4.295,-0.249000315619024,-0.0684715812830934
4.3125,-0.253444266016881,-0.0578723772680176
4.33,-0.258118711398705,-0.0434752023443655
4.3475,-0.257428834818056,-0.029421331457722
4.365,-0.256828102320581,-0.0224187948636522
4.3825,-0.26617300065843,-0.0154337754119918
4.4,-0.275954561100727,0.0041343585822782
4.4175,-0.275300604273044,0.0253508921426563
4.435,-0.272491266718116,0.0438123965753901
4.4525,-0.265942141330435,0.0618595660499779
4.47,-0.256633834910239,0.0771495572436535
4.4875,-0.244135548340216,0.0875929734258658
4.505,-0.236127576569207,0.0907378110251633
4.5225,-0.235271616953515,0.0967032949090541
4.54,-0.233284567971458,0.107028868083831
4.5575,-0.230853832776141,0.117823462106871
4.575,-0.227502584598566,0.13125030983168
4.5925,-0.222524198218067,0.146234938171228
4.61,-0.211990167838411,0.165098782857137
4.6275,-0.192800038675317,0.177517886444902
4.645,-0.175986311449872,0.182629948716599
4.6625,-0.160431813401147,0.185107273843165
4.68,-0.148868234027064,0.184387407219152
4.6975,-0.139784613622744,0.185530839393509
4.715,-0.131727187735839,0.185020617487153
4.7325,-0.129431422928118,0.187998010978432
4.75,-0.122114186625468,0.198545417742609
4.7675,-0.109206716850455,0.205053195523873
4.785,-0.097520278047277,0.210140702169492
4.8025,-0.0838467257901192,0.215550663421443
4.82,-0.0657049077022895,0.219648137965483
4.8375,-0.0454611856505009,0.21410210130625
4.855,-0.0353784393670797,0.204639848441508
4.8725,-0.0273220952251133,0.201503960684945
4.89,-0.0160890399381593,0.196911899365687
4.9075,-0.00851635252874051,0.18893980184014
4.925,-0.0061712085512066,0.185125796130167
4.9425,-0.000234249583369881,0.187913625037452
4.96,0.0127575932042632,0.188774556019209
4.9775,0.0258020836170577,0.183753602047144
4.995,0.0364930765635626,0.178562159351487
5.0125,0.0494235129631308,0.172016946223735
5.03,0.0607240914872055,0.160940819182859
5.0475,0.0682561004063529,0.148528792062657
5.065,0.0724900731990996,0.136772636242011
5.0825,0.0750067805667459,0.126661565652224
5.1,0.0759473384676856,0.118684071286745
5.1175,0.0784455651891929,0.114093289042713
5.135,0.0846038776331779,0.109106910455038
5.1525,0.0922649156363382,0.100795209143816
5.17,0.0978596255833881,0.0896369676275518
5.1875,0.101720076589443,0.0787805982048456
5.205,0.105903456605554,0.066617334180202
5.2225,0.106769739593425,0.0516498484235642
5.24,0.102771485677479,0.0393132521201276
5.2575,0.0995516023332319,0.031088774775098
5.275,0.0984577372635632,0.0229974229139234
5.2925,0.0974761748985072,0.0134310654922887
5.31,0.0945860198068538,0.00380992179686511
5.3275,0.0921755635345827,-0.00375839428837303
5.345,0.0921684651654454,-0.0133320336944889
5.3625,0.0892580830317344,-0.0268760757890674
5.38,0.0806098881830566,-0.0391222187653153
5.3975,0.070251557691197,-0.04528025398598
5.415,0.0654476211257697,-0.0480381329467799
5.4325,0.0639242461405566,-0.0563300952271256
5.45,0.0570750536989112,-0.0676203602624465
5.4675,0.0472014892548184,-0.0754082192341214
5.485,0.0387512631339024,-0.0809653444936569
5.5025,0.0310124837451373,-0.0884352464560727
5.52,0.0187226625292837,-0.0960632814012703
5.5375,0.0055054506650005,-0.0980304573843017
5.555,-0.00424129331454388,-0.0987246845418556
5.5725,-0.0138195953044911,-0.0995502916079362
5.59,-0.0212715621413677,-0.0991329601237783
5.6075,-0.0271026606326019,-0.102085912510661
5.625,-0.036334293070742,-0.106077465223896
5.6425,-0.0461795202856086,-0.109300952355251
5.66,-0.0581825779628226,-0.113664543477048
5.6775,-0.0736186679847964,-0.116441151735808
5.695,-0.0928531251546867,-0.113779362120483
5.7125,-0.106631486491813,-0.102525952219182
5.73,-0.112215147399,-0.0951823612820912
5.7475,-0.120364102076565,-0.0924439328009344
5.765,-0.131083972788691,-0.0878253293459316
5.7825,-0.140592701098146,-0.0800920146945194
5.8,-0.146032828172322,-0.0730354384614716
5.8175,-0.151982974955006,-0.0705899729758683
5.835,-0.163273343018793,-0.0685326940356766
5.8525,-0.177296218630472,-0.0612057136172676
5.87,-0.188385050833807,-0.0492559782349935
5.8875,-0.195622933989814,-0.0374165392188878
5.905,-0.203332615060653,-0.0272266626157854
5.9225,-0.212143212136443,-0.0130724115833432
5.94,-0.214779990302436,0.00364536443787357
5.9575,-0.21361551616002,0.015724076774327
5.975,-0.214675979899146,0.0238883880324481
5.9925,-0.219746274151366,0.0343275117979522
6.01,-0.220785152787365,0.04912877562953
6.0275,-0.217844873869147,0.0587079931957622
6.045,-0.220418827279559,0.0650472188930283
6.0625,-0.227096493781567,0.0762350227001774
6.08,-0.231564154528794,0.0942803744977963
6.0975,-0.228954131656116,0.114386352736055
6.115,-0.221917441154495,0.130539842575457
6.1325,-0.215284992777825,0.144332179171843
6.15,-0.207242887973508,0.158324050718846
6.1675,-0.19699877289548,0.169940390271836
6.185,-0.186731208014381,0.178783843849477
6.2025,-0.177826898563651,0.184737807647513
6.22,-0.1733290777284,0.190791376922835
6.2375,-0.169445386960203,0.201519543489541
6.255,-0.161966292166575,0.214040192930906
6.2725,-0.152469215654957,0.225214652979342
6.29,-0.143084888035736,0.237413028287913
6.3075,-0.128564616572128,0.251785361165655
6.325,-0.107846210170799,0.261079697643327
6.3425,-0.0873320174788673,0.262191201441787
6.36,-0.0734837063923586,0.259049016973556
6.3775,-0.0642050566542109,0.260196519724889
6.395,-0.0514874872663478,0.264083583145489
6.4125,-0.0369110539752966,0.264537935418555
6.43,-0.0253915082068665,0.263207640032866
6.4475,-0.0157574420947178,0.264621353858856
6.465,-0.00345915029564183,0.269624045105836
6.4825,0.0156215477306387,0.273392350710461
6.5,0.0368568702457054,0.269326994635988
6.5175,0.0530847774960139,0.259846384020494
6.535,0.0652938017341922,0.252396868214715
6.5525,0.0801207717478551,0.245859776695096
6.57,0.0941444405165904,0.233817451358472
6.5875,0.101837235076648,0.221996821700847
6.605,0.108911233679225,0.215130916224186
6.6225,0.120631740604068,0.20921847827092
6.64,0.134324177600412,0.19740984689165
6.6575,0.141884203742874,0.182157646763574
6.675,0.145943407114175,0.171797342753489
6.6925,0.154301421212379,0.163833564623162
6.71,0.165390032783827,0.151594960438003
6.7275,0.174411807186092,0.134346168739239
6.745,0.176880180739845,0.1147640668947
6.7625,0.174410525949058,0.101090592577197
6.78,0.176981463135852,0.0912819299323089
6.7975,0.181858156221342,0.0759271532425611
6.815,0.180896688932619,0.0574638392398632
6.8325,0.175493301930557,0.0434414655995727
6.85,0.173253182435892,0.0330467179409874
6.8675,0.172788315803962,0.0185695197992466
6.885,0.166551456214163,0.00290858773576952
6.9025,0.159198468140284,-0.00715466733136018
6.92,0.155904847946951,-0.0171574113558151
6.9375,0.152113588336396,-0.0308339414218646
6.955,0.143745426644566,-0.0451414396974855
6.9725,0.1323686183084,-0.0550310305965988
6.99,0.123865594710978,-0.062222434096422
7.0075,0.117034668896724,-0.0711410637942591
7.025,0.10893485299686,-0.0833010238134677
7.0425,0.0942595542772222,-0.0960891381800991
7.06,0.0751837064640219,-0.101489020578183
7.0775,0.0604435297372321,-0.0998694199752555
7.095,0.0518201295260477,-0.0988555013281194
7.1125,0.0443028325441339,-0.101024721976934
7.13,0.0358665710062505,-0.104493412226607
7.1475,0.0267577425131374,-0.107959936818721
7.165,0.0177416194738928,-0.112891055438977
7.1825,0.00473579386792115,-0.119270981891491
7.2,-0.0118016927363512,-0.122289526449834
7.2175,-0.0292659388743441,-0.121458446826105
7.235,-0.0459553009744095,-0.116610907821165
7.2525,-0.0607762585388132,-0.10856086963359
7.27,-0.0718236999166158,-0.09730359261751
7.2875,-0.077043441714152,-0.0860750696914793
7.305,-0.0772651151781235,-0.078911441337451
7.3225,-0.0774373163702059,-0.0797414832286166
7.34,-0.0851200877017853,-0.085142982402509
7.3575,-0.101006414768224,-0.0867456003622372
7.375,-0.118119940039635,-0.0799784068011326
7.3925,-0.131287543710409,-0.0693034803466223
7.41,-0.14206828501389,-0.0573505367047168
7.4275,-0.150907122382028,-0.0430204300378337
7.445,-0.154049299345904,-0.0264677151753081
7.4625,-0.151508101213268,-0.0146123749967478
7.48,-0.149640111844991,-0.00750313442311403
7.4975,-0.149073842696468,-0.00330130450880649
7.515,-0.151828474495697,-0.000622487891381211
7.5325,-0.157844833178218,0.00221115271982449
7.55,-0.16826982401984,0.00894872907161367
7.5675,-0.176560021092679,0.0224796943076073
7.585,-0.179961209242726,0.0375790818104763
7.6025,-0.179844603913736,0.0522559100940889
7.62,-0.177236456543827,0.065523647579796
7.6375,-0.172574584995596,0.0770760194589338
7.655,-0.166926871332672,0.0857596218446468
7.6725,-0.162281894545761,0.0918827663778262
7.69,-0.159494112573832,0.0971611681991602
7.7075,-0.158361783317688,0.102207386528582
7.725,-0.159511702290449,0.109389940343303
7.7425,-0.158658922429015,0.11945727757044
7.76,-0.156690923875011,0.128983332452573
7.7775,-0.153824143493475,0.140429635671005
7.795,-0.147804498799067,0.151762442544515
7.8125,-0.139440477882572,0.162139600161179
7.83,-0.128653365124024,0.169188351386131
7.8475,-0.120229655808767,0.172646564002705
7.865,-0.114115827562022,0.176929769118318
7.8825,-0.107362640640619,0.182007679350682
7.9,-0.100218909530017,0.186151616539729
7.9175,-0.0938680319045164,0.189379349245263
7.935,-0.0898631040597891,0.19361472334096
7.9525,-0.0839529896034035,0.202415291616395
7.97,-0.0720352644556506,0.209304164302411
7.9875,-0.0602789736796356,0.211017974796742
8.005,-0.0517666933330984,0.211291168267593
8.0225,-0.0442097811919963,0.214290369395101
8.04,-0.0327892297038569,0.216661634671656
8.0575,-0.022653118134325,0.214947167726127
8.075,-0.0151992431430794,0.214522058102581
8.0925,-0.00621426638813494,0.215591137947187
8.11,0.00491974811961111,0.215011882917258
8.1275,0.0152373842904547,0.211022603503494
8.145,0.0222043180819109,0.207201487652409
8.1625,0.0304739144038925,0.205575967087173
8.18,0.039945626944997,0.200554809489539
8.1975,0.0453379800181831,0.195153933722219
8.215,0.0511711893117723,0.192374900459569
8.2325,0.0572936194315329,0.189648331666672
8.25,0.0657796871585975,0.188905459190957
8.2675,0.078451445260122,0.184145570265193
8.285,0.090292737074197,0.173741199636677
8.3025,0.0966695533318252,0.15903798227233
8.32,0.0965612935542101,0.1475091722717
8.3375,0.0970790971027186,0.140182666976882
8.355,0.0987456286162348,0.133286989389257
8.3725,0.10061046242312,0.125754905430812
8.39,0.100329876794087,0.118583659331229
8.4075,0.101060516617431,0.115313652012694
8.425,0.10704277241263,0.11074021362056
8.4425,0.112943881807399,0.100800896867709
8.46,0.11604257676431,0.088558491251438
8.4775,0.116020838600534,0.0747707576762222
8.495,0.112456312689076,0.0615517387290666
8.5125,0.105474792523389,0.0489268812670646
8.53,0.0941261004189218,0.0416936441327402
8.5475,0.087119497215163,0.0409044121792136
8.565,0.0850122665493961,0.0382670349980779
8.5825,0.0833908278814908,0.0327805423451863
8.6,0.0795703458591182,0.0254894544803525
8.6175,0.0745199589268371,0.0204566120525384
8.635,0.0720254565832602,0.0141974709059463
8.6525,0.0663011220678316,0.00463456357542771
8.67,0.0573197593744071,-0.00283206230069697
8.6875,0.0470680584696478,-0.00950635095132415
8.705,0.0340071444720111,-0.0129465074657742
8.7225,0.0212699558932694,-0.0131460429326067
8.74,0.00937849219690345,-0.00945512834746444
8.7575,0.00320923237265332,-0.00444821584528701
8.775,-0.00230077751184118,-0.00378226941824666
8.7925,-0.00933336654437011,-0.00199005736228319
8.81,-0.015032105667514,-0.00131838974859727
8.8275,-0.0231955310892873,-0.00109259041856142
8.845,-0.0318174654325032,0.000664581016834495
8.8625,-0.0413607625321449,0.00365063748819053
8.88,-0.0494109156539567,0.00839677709611938
8.8975,-0.058401779959229,0.011401514854442
8.915,-0.0705102243041093,0.018848531774068
8.9325,-0.0782495065706565,0.0308402568432138
8.95,-0.0820883024542445,0.0422617205690354
8.9675,-0.0830544345912438,0.0518705403178563
8.985,-0.0851387600669091,0.0586151159844962
9.0025,-0.0872033140460628,0.0675055803920538
9.02,-0.0871462647845603,0.0728646279439579
9.0375,-0.09299781951113,0.0780471827076258
9.055,-0.0979995289208753,0.0891922150295286
9.0725,-0.0993636243984466,0.101227300821882
9.09,-0.0975258622161052,0.111925159805121
9.1075,-0.0979456924272837,0.119055026996692
9.125,-0.101286387255482,0.132285855423632
9.1425,-0.0957818453673455,0.148252013566345
9.16,-0.0868020822278088,0.157860846700844
9.1775,-0.0798079847289476,0.164171938269752
9.195,-0.0754415036676929,0.170041881829963
9.2125,-0.071048493046597,0.178594733163453
9.23,-0.0641382768724098,0.185755568343595
9.2475,-0.0595241156351708,0.192461300457431
9.265,-0.0526182184342223,0.201960735291119
9.2825,-0.0432278036577482,0.208619441125372
9.3,-0.0348396578526911,0.214377236228817
9.3175,-0.0260802020036704,0.219562795809499
9.335,-0.017790216568404,0.225501643536522
9.3525,-0.00654236129659628,0.231461771403461
9.37,0.00503258940290107,0.234832369563573
9.3875,0.0175067198695427,0.237734744519342
9.405,0.0301549545827782,0.236751885311011
9.4225,0.0390805456177726,0.235350992188597
9.44,0.0481897214275613,0.235829454653697
9.4575,0.058217312602874,0.236571652399729
9.475,0.0710481276801599,0.236120909008014
9.4925,0.0820088713354206,0.230549389223171
9.51,0.0880726212005132,0.227793225595766
9.5275,0.0977401709770993,0.228548457216459
9.545,0.111046071536481,0.226699192164108
9.5625,0.124802616554016,0.219827330427611
9.58,0.132726647578188,0.210598657517994
9.5975,0.140190937163003,0.20598754302714
9.615,0.151475335252562,0.198126930887498
9.6325,0.158158275535873,0.186760844362844
9.65,0.161945178337937,0.177913098336966
9.6675,0.165841209554014,0.171755403531389
9.685,0.173811963197082,0.165578891069686
9.7025,0.180412250600211,0.153763515004316
9.72,0.18221656904027,0.144155727467475
9.7375,0.186240873906401,0.136740113589267
9.755,0.191572410957508,0.127680235163863
9.7725,0.196783291638976,0.11549805369835
9.79,0.197475383142484,0.101626421090201
9.8075,0.196453396871181,0.0910112808871244
9.825,0.196703847967853,0.0799438939189727
9.8425,0.194841488099953,0.067917268068282
9.86,0.191798089394278,0.0568581039079164
9.8775,0.187036936979753,0.0457684730349625
9.895,0.180844793891397,0.0378143468480346
9.9125,0.177217620465748,0.0309210406255817
9.93,0.174183729957159,0.0227431471336966
9.9475,0.170975346137583,0.0118903864893116
9.965,0.162216137227842,0.000532541472295425
9.9825,0.153495020178553,-0.0055747076412786
10,0.147282273688836,-0.0135369479108527
