"Freq [GHz]","re(S(Antenna1_1_1,Antenna1_1_1)) []","im(S(Antenna1_1_1,Antenna1_1_1)) []"
3,-0.194843340720393,-0.156266271326326
3.0175,-0.196874262373113,-0.146065940914294
3.035,-0.205219729251577,-0.136127789144135
3.0525,-0.213126377520528,-0.121512414075154
3.07,-0.218060973588973,-0.106211324413774
3.0875,-0.221676476197216,-0.0919438790243111
3.105,-0.226803690825493,-0.0791305395526729
3.1225,-0.235229486138642,-0.0603435718949398
3.14,-0.233581773160517,-0.0359436909798418
3.1575,-0.228134172698542,-0.01973667825833
3.175,-0.224202393060947,-0.0015105367083757
3.1925,-0.215151542084567,0.013869024358697
3.21,-0.207262606905643,0.0272936819668935
3.2275,-0.197299466304898,0.037689179218907
3.245,-0.191871371895488,0.0473591667005647
3.2625,-0.182679924457022,0.0585458874004738
3.28,-0.177831834973695,0.0650693923484707
3.2975,-0.174448822508446,0.0815442109210073
3.315,-0.159221416551238,0.0973179628757836
3.3325,-0.144423373192174,0.104307393913347
3.35,-0.13381881298653,0.112732304205248
3.3675,-0.118671625862088,0.124331149611012
3.385,-0.0972868981115257,0.130502265088613
3.4025,-0.0787222267400052,0.127967971359757
3.42,-0.0664813984491445,0.127287626602561
3.4375,-0.0492385908200872,0.126450401084451
3.455,-0.0385693226700284,0.118938024757013
3.4725,-0.030409425699579,0.120751472512226
3.49,-0.0147569640397215,0.119234736976946
3.5075,-0.0032261132764513,0.114846926821848
3.525,0.00820435428207387,0.111361109645772
3.5425,0.0202273834991429,0.111346225414134
3.56,0.0426232046222276,0.106474300609644
3.5775,0.0572249051309105,0.0891887988022556
3.595,0.0658447934179724,0.0774806670865434
3.6125,0.076320947257613,0.0639376915375833
3.63,0.0846634932532797,0.048965668389455
3.6475,0.0895280195494567,0.0297962260361825
3.665,0.0854909147085196,0.0151570482903499
3.6825,0.0856857874758762,0.00844693863327588
3.7,0.0904789060749312,-0.00133450299504572
3.7175,0.0946850251860535,-0.0130103834823002
3.735,0.0995054963057256,-0.0287570533291986
3.7525,0.0957204969689017,-0.0462868238424919
3.77,0.09382446344263,-0.0543676513909587
3.7875,0.0985753051281248,-0.0708136700295199
3.805,0.0942122851460687,-0.0912491255412459
3.8225,0.0859399603410634,-0.110760750343711
3.84,0.0705011337203762,-0.125120773320784
3.8575,0.0600994200581956,-0.134662184147082
3.875,0.0449164660203063,-0.14618946960363
3.8925,0.0323926983540333,-0.1490170353623
3.91,0.0217324128242703,-0.157577183604277
3.9275,0.00677627253474257,-0.159459278972269
3.945,0.0017393404253108,-0.159885507439373
3.9625,-0.00183148961004431,-0.169988223469447
3.98,-0.014788940666502,-0.18539660460805
3.9975,-0.0365601030745682,-0.192838476232147
4.015,-0.0534193326421807,-0.192610198049408
4.0325,-0.067117117866359,-0.197034808522456
4.05,-0.0905431408535466,-0.201470892657086
4.0675,-0.113726890815123,-0.191862239717049
4.085,-0.127082843256618,-0.182047706863608
4.1025,-0.139813711434241,-0.171453687887202
4.12,-0.145143969909759,-0.163062266200821
4.1375,-0.153347348186726,-0.159639455778431
4.155,-0.161309853151065,-0.157217718462412
4.1725,-0.175739373013562,-0.155440984600485
4.19,-0.186900269708005,-0.14808480962446
4.2075,-0.200856819858315,-0.147783640490789
4.225,-0.224007153933167,-0.138189184803547
4.2425,-0.24129876100638,-0.118451334974886
4.26,-0.24935335548887,-0.0955618286319502
4.2775,-0.250460212875481,-0.078934217320592
4.295,-0.255302276669024,-0.0648910839850935
4.3125,-0.257149290766881,-0.0464657279740176
4.33,-0.251221573749705,-0.0323487895713655
4.3475,-0.246443396068056,-0.027763989096722
4.365,-0.250420111957581,-0.0257925274970522
4.3825,-0.26182785671643,-0.0195640694279918
4.4,-0.274250818540727,-0.000890887995321804
4.4175,-0.274306653703044,0.0207247234356563
4.435,-0.273502344318116,0.0374250458593901
4.4525,-0.270417722260435,0.0552639505999779
4.47,-0.267851060667239,0.0732748168036535
4.4875,-0.255472849152216,0.0948671975658658
4.505,-0.239532063521207,0.102248373052163
4.5225,-0.231037650007515,0.108489470083054
4.54,-0.223265535833458,0.112031717259831
4.5575,-0.221713489657841,0.118057365616871
4.575,-0.218322571779566,0.12692155615948
4.5925,-0.216062003638907,0.137522015706028
4.61,-0.211664928325411,0.150812910811137
4.6275,-0.204376298918317,0.167242383624902
4.645,-0.189793015030272,0.182925107656599
4.6625,-0.169424074621147,0.194056147423165
4.68,-0.148931441147064,0.192001324182152
4.6975,-0.142222093352744,0.191104370854509
4.715,-0.129432811905839,0.196034450150153
4.7325,-0.119268480646118,0.195144402402432
4.75,-0.108973929971468,0.197441738801609
4.7675,-0.101630944066455,0.197331100039773
4.785,-0.093069402647277,0.202342778225492
4.8025,-0.0836182389931192,0.203398687766443
4.82,-0.0743474354052895,0.210361846840483
4.8375,-0.0568792332855009,0.21218672905225
4.855,-0.0442874774790797,0.209251024306508
4.8725,-0.0327017970291133,0.207223215063945
4.89,-0.0205456113681593,0.206635721573687
4.9075,-0.0040812222577405,0.20130365376814
4.925,0.0050477257140934,0.190727854710167
4.9425,0.0106755592756301,0.185694070977452
4.96,0.0197015201362632,0.182554013973209
4.9775,0.0302806936930577,0.175105329155144
4.995,0.0350699843838626,0.166966963053487
5.0125,0.0405481701521308,0.163199450959735
5.03,0.0474379913442055,0.159856940462859
5.0475,0.0586206815813528,0.156142970787656
5.065,0.0685272811645996,0.146591566825011
5.0825,0.0769158418647459,0.138414010282224
5.1,0.0849443712180856,0.126115133103745
5.1175,0.0892013257591929,0.115909712415713
5.135,0.0956367162214779,0.103750872018038
5.1525,0.0969763669313382,0.0900749478268158
5.17,0.0963092739333881,0.0783542982059518
5.1875,0.0932417845204432,0.0701957293428456
5.205,0.0941557449095545,0.064832894845402
5.2225,0.0960169995754245,0.0576461818475642
5.24,0.0989286592094786,0.0498787617791276
5.2575,0.101173571592232,0.041019085592098
5.275,0.105532682461563,0.0310166434659234
5.2925,0.107764860279507,0.0163263534752887
5.31,0.106505280637854,-4.61010841348926E-05
5.3275,0.0978876422875827,-0.016100327849373
5.345,0.0881438781534454,-0.0244874332144889
5.3625,0.0802497624514344,-0.0321877800734674
5.38,0.0730874543840566,-0.0373747500353152
5.3975,0.066080522378197,-0.04349158652898
5.415,0.0602166671917697,-0.0446682251567799
5.4325,0.0603896205905566,-0.0499680861171256
5.45,0.0575795835539112,-0.0577671273084465
5.4675,0.0561483519108184,-0.0684040585201214
5.485,0.0482006711369024,-0.0821176698336569
5.5025,0.0370709558881373,-0.0928718077140727
5.52,0.0227243525432837,-0.10151477654427
5.5375,0.0081090925266005,-0.106549259454302
5.555,-0.00898868644254388,-0.109079542748856
5.5725,-0.0240654471704911,-0.103961965924936
5.59,-0.0320626097003677,-0.0968281201437783
5.6075,-0.0330348229776019,-0.0937493248206613
5.625,-0.036898110170742,-0.099418311775896
5.6425,-0.0468644568356087,-0.102979409360251
5.66,-0.0558751555828226,-0.105179444351048
5.6775,-0.0644439037647964,-0.108230880574808
5.695,-0.0776310396656867,-0.114996847746483
5.7125,-0.0969799320458132,-0.114313275159782
5.73,-0.112911601912,-0.109965081170091
5.7475,-0.130230178735765,-0.101061784773834
5.765,-0.140065260011591,-0.0885653445882316
5.7825,-0.147933059652145,-0.0786505856083394
5.8,-0.152540815995322,-0.0693042346273716
5.8175,-0.158561069350006,-0.0628643134158683
5.835,-0.162274828878793,-0.0549643484938766
5.8525,-0.166660035444472,-0.0530401320162676
5.87,-0.176550707037807,-0.0500719161549935
5.8875,-0.188929269385814,-0.0438989162388878
5.905,-0.200053988317953,-0.0326310599657854
5.9225,-0.209237079527443,-0.0213070114903432
5.94,-0.217913190656436,-0.00691170238512643
5.9575,-0.22456882904902,0.00809047607532704
5.975,-0.228572203505146,0.0276656422604481
5.9925,-0.224645045725806,0.0442811795573522
6.01,-0.220553460235246,0.05657432180273
6.0275,-0.216290735595147,0.0642197498837622
6.045,-0.218572040668859,0.0717980023330283
6.0625,-0.218936769612067,0.0837098173301774
6.08,-0.218509834561794,0.0946905507377963
6.0975,-0.217604387775116,0.105100689748055
6.115,-0.220661948414495,0.116480721713457
6.1325,-0.220621556667825,0.134349983384443
6.15,-0.216554207823508,0.151227801861846
6.1675,-0.20882477424848,0.169265260086836
6.185,-0.198080977232381,0.183277600513477
6.2025,-0.186275204812651,0.197110240066513
6.22,-0.1718804945844,0.206577652793835
6.2375,-0.158303754252203,0.213901037019541
6.255,-0.145538645863575,0.215943185936906
6.2725,-0.139794217135957,0.218787273584342
6.29,-0.134212785234736,0.225608825046913
6.3075,-0.127608458322128,0.236136348507255
6.325,-0.115626318256799,0.245584685552327
6.3425,-0.106340460417867,0.254238168688787
6.36,-0.0917767609173586,0.266576117787556
6.3775,-0.073525092024211,0.274973752676889
6.395,-0.0511429446603478,0.280403070451489
6.4125,-0.0299539089969966,0.277684619622555
6.43,-0.0112581549388665,0.273228023973866
6.4475,0.00303600256928217,0.263678937712856
6.465,0.0120969234743582,0.258427674200836
6.4825,0.0219851283416387,0.253097923399761
6.5,0.0289851953027054,0.250223388283788
6.5175,0.0369580952360139,0.249161310292494
6.535,0.0467688877941922,0.253526786264715
6.5525,0.0665612406558551,0.255285420825096
6.57,0.0864585064015904,0.249949495154472
6.5875,0.106467001816648,0.239780232177847
6.605,0.122129405371225,0.226189446173186
6.6225,0.137874034893068,0.20996652586792
6.64,0.145973051140412,0.18889045495765
6.6575,0.148956045862874,0.171710266848874
6.675,0.147554510868175,0.156571610026489
6.6925,0.145765187243479,0.149437934808162
6.71,0.148479458530827,0.144703402749003
6.7275,0.156883906337362,0.140614372597239
6.745,0.167618850036845,0.1294591564777
6.7625,0.175884969719058,0.117767698032197
6.78,0.186644870692852,0.102112072248309
6.7975,0.194167829891342,0.0812815293965611
6.815,0.195773688267619,0.0553864781898632
6.8325,0.186827350228557,0.0326737884695727
6.85,0.175760076575892,0.0163070588509874
6.8675,0.163304083815962,0.00599475975924663
6.885,0.155864705020863,-0.00120010574423048
6.9025,0.147571044948284,-0.00810189500136018
6.92,0.143959948988951,-0.0115044260148151
6.9375,0.143241689792896,-0.0178382623081646
6.955,0.146961895466566,-0.0271119735374855
6.9725,0.1464394509174,-0.0461912846795988
6.99,0.138146251479978,-0.063766331026422
7.0075,0.125567989890724,-0.0811125816382591
7.025,0.10833242335386,-0.0927601713434676
7.0425,0.0906173641952222,-0.101527458060099
7.06,0.0715743524340219,-0.103273720188183
7.0775,0.0582781228872322,-0.102468027739255
7.095,0.0462530642360477,-0.100489012191719
7.1125,0.0390474984241339,-0.0991295435309345
7.13,0.0318929415262505,-0.0996564861936072
7.1475,0.0269360954221374,-0.102961920812721
7.165,0.0172532488748928,-0.108253295345977
7.1825,0.00918507603312115,-0.112091911571091
7.2,-0.0030928819771512,-0.120755238857834
7.2175,-0.0215905083743441,-0.125365213841105
7.235,-0.0433219086144095,-0.123748928038165
7.2525,-0.0605242811788132,-0.11345731978459
7.27,-0.0722759624366158,-0.10404029038751
7.2875,-0.081461494044152,-0.0933059921314793
7.305,-0.0879534167911235,-0.084912957537451
7.3225,-0.0926820974292059,-0.0753710239386166
7.34,-0.0941917296647853,-0.070901014492509
7.3575,-0.0984266606012244,-0.0679244275882372
7.375,-0.103175191672135,-0.0689934521841326
7.3925,-0.116344901109409,-0.0683454242336223
7.41,-0.12777903735089,-0.0633757068827168
7.4275,-0.142106821462028,-0.0562471539248337
7.445,-0.153103385752904,-0.0437923225503081
7.4625,-0.163204298519268,-0.0300192954657478
7.48,-0.167366992472991,-0.011690528163114
7.4975,-0.165879472053468,0.00297632884119351
7.515,-0.161177608605697,0.0140411890906188
7.5325,-0.158653808518218,0.0187357751428245
7.55,-0.15886841892984,0.0250823422086137
7.5675,-0.158611893886679,0.0289266354386073
7.585,-0.161998605196726,0.0327287655154763
7.6025,-0.167972210949736,0.0373384730440889
7.62,-0.176206419540827,0.047085703462796
7.6375,-0.182556257597596,0.0602861061019338
7.655,-0.185723635476672,0.0796423695086468
7.6725,-0.178918946580761,0.0971172300908262
7.69,-0.171540007145832,0.11023314475416
7.7075,-0.159974991427688,0.120349784174582
7.725,-0.151099274006449,0.124502552723303
7.7425,-0.143001722111015,0.12735827945944
7.76,-0.140267643666011,0.126673105772573
7.7775,-0.140396993459475,0.130334469691005
7.795,-0.142442567429067,0.134466758504515
7.8125,-0.144709124005972,0.145475040578179
7.83,-0.142302038605023,0.157253272050131
7.8475,-0.138817842298767,0.171531019092705
7.865,-0.129641222205722,0.186292604617318
7.8825,-0.114381874987619,0.199590212284682
7.9,-0.0946917142060172,0.202591143239729
7.9175,-0.0821691322785164,0.199623231038263
7.935,-0.0737865552127891,0.19598369748096
7.9525,-0.0699865370763035,0.195058179668395
7.97,-0.0646434164876506,0.195247471791411
7.9875,-0.0634037401196356,0.196236553815742
8.005,-0.0606921491630984,0.201864485968593
8.0225,-0.0570347094319963,0.210210727743101
8.04,-0.0454847110138569,0.220671732141456
8.0575,-0.031645252574325,0.225372310861127
8.075,-0.0145455370730794,0.229006313987281
8.0925,0.00188448523786506,0.223422283852187
8.11,0.0130858277336111,0.218482077364258
8.1275,0.0246499749088547,0.210642358740494
8.145,0.0311152825709109,0.202014556716409
8.1625,0.0346149038398925,0.193684362990173
8.18,0.033713341033997,0.190655581183539
8.1975,0.0373484738581831,0.192428613841219
8.215,0.0441733849417723,0.193761114544569
8.2325,0.0534870145715329,0.193463084446672
8.25,0.0639065123825975,0.192758921070957
8.2675,0.078466586599122,0.187077571275193
8.285,0.088551790599197,0.176663009396677
8.3025,0.0979926028178252,0.16570930704133
8.32,0.10278613953321,0.1515344216897
8.3375,0.105251282552719,0.139587753398882
8.355,0.103636591135335,0.126753991861557
8.3725,0.10057121912032,0.120381878768812
8.39,0.0995721865829874,0.113604667676229
8.4075,0.0979055129708313,0.110626503590694
8.425,0.10098499474343,0.10690201919056
8.4425,0.104316248681399,0.102538787567709
8.46,0.11116014098431,0.094363082291438
8.4775,0.113548274180534,0.0822638932062222
8.495,0.114747916879076,0.0702351769680666
8.5125,0.112526028693389,0.0564382968556646
8.53,0.107522460982922,0.0432853935127402
8.5475,0.097873945157163,0.0316114328972136
8.565,0.0870098641893961,0.0249727949570779
8.5825,0.0766110939574908,0.0219269523281863
8.6,0.0698035926775182,0.0213794325730525
8.6175,0.0640552108936371,0.0206592352188484
8.635,0.0629162343022602,0.0206579535599463
8.6525,0.0616679811478316,0.0147736964694277
8.67,0.0594987941444071,0.00955704001510303
8.6875,0.0558805848096478,-0.00155892754332415
8.705,0.0451339997980111,-0.00954213317577421
8.7225,0.0339197231809694,-0.0174784358226067
8.74,0.0162584447149035,-0.0204055598274644
8.7575,0.00271059754565332,-0.017256750625287
8.775,-0.0101825210265412,-0.0130033393952467
8.7925,-0.0194377681594701,-0.00593327994128319
8.81,-0.027345365909514,0.000444838980402734
8.8275,-0.0319771427537873,0.00882389935149858
8.845,-0.0326035010664032,0.0136044193638345
8.8625,-0.0339625845521449,0.0136255391731905
8.88,-0.0397830539609567,0.0115572519591194
8.8975,-0.048742542695229,0.010751323564442
8.915,-0.0619132446221093,0.012617273144068
8.9325,-0.0740759511506565,0.0207008493692138
8.95,-0.0850203662342445,0.0303527188576354
8.9675,-0.0925069032912438,0.0450787276108563
8.985,-0.0958407316309091,0.0571991027501592
9.0025,-0.0983962501740628,0.0725179000060538
9.02,-0.0933635893355603,0.0842617828316579
9.0375,-0.09093119072713,0.0919486736726258
9.055,-0.0866209121724753,0.0979076206626286
9.0725,-0.0872460456974866,0.100599488432882
9.09,-0.0886918628441052,0.106081372280121
9.1075,-0.0935640816262837,0.110690328545692
9.125,-0.0996785440054824,0.122626304426632
9.1425,-0.100741241967345,0.136848935353345
9.16,-0.0986171562648088,0.152312398937844
9.1775,-0.0925842163699476,0.166986128659752
9.195,-0.0830064189526929,0.180402548391963
9.2125,-0.070725325465597,0.189541801555453
9.23,-0.0586665704434098,0.194377085951595
9.2475,-0.0505203892881708,0.196055919544431
9.265,-0.0438990933959223,0.200566002573119
9.2825,-0.0366666832987482,0.202548770088372
9.3,-0.0332053177196911,0.206702066937817
9.3175,-0.0277596752366704,0.212143790354499
9.335,-0.023795091477404,0.220189648363522
9.3525,-0.0134900243945963,0.230137146736461
9.37,-0.00265131558979893,0.236971749240573
9.3875,0.0129104270885427,0.244751653532342
9.405,0.0301112056927782,0.244180302320011
9.4225,0.0431586135077726,0.242120475066597
9.44,0.0551660600945613,0.238380246645697
9.4575,0.065045894074874,0.235556432756729
9.475,0.0760523818501599,0.230997235323014
9.4925,0.0827182254554206,0.225092593901171
9.51,0.0877957198645132,0.223187926430766
9.5275,0.0957096566140993,0.223046037265259
9.545,0.104580165102481,0.221540813740008
9.5625,0.114697271694016,0.221266940519311
9.58,0.127461819818188,0.218155166204994
9.5975,0.140273514251003,0.21366191554014
9.615,0.154874816462562,0.203565731746498
9.6325,0.162439598596873,0.190820062506844
9.65,0.170034314900937,0.180019036476966
9.6675,0.173762623489214,0.166714536791389
9.685,0.175915900976082,0.157320664313686
9.7025,0.177362936453211,0.147330883794316
9.72,0.17842064379627,0.141079103157475
9.7375,0.181654239645401,0.133512479485267
9.755,0.183602964519508,0.127442924888863
9.7725,0.189387191494076,0.12146014836335
9.79,0.196310348181484,0.111921895848901
9.8075,0.202189925510981,0.0983357009521244
9.825,0.203959265459853,0.0826645346909727
9.8425,0.202550652262253,0.0669751825782821
9.86,0.198067924311278,0.0519475185729164
9.8775,0.189825208481753,0.0377323831559625
9.895,0.178275219501397,0.0298612009940346
9.9125,0.171704745105748,0.0255677641816217
9.93,0.165910623197159,0.0201391276833966
9.9475,0.161715891068583,0.0148099870013116
9.965,0.156017518897842,0.00904373037829543
9.9825,0.154404799364553,0.0048582266247214
10,0.152340065170836,-0.0067758810588527
