"Freq [GHz]","re(S(Antenna1_1_p1,Antenna1_1_p1)) []","im(S(Antenna1_1_p1,Antenna1_1_p1)) []"
3,0.104556608582387,-0.097347944306587
3.002,0.103527646524575,-0.0989376181637952
3.004,0.102469080637819,-0.100512314208127
3.006,0.10138122076269,-0.102071384875802
3.008,0.100264392249501,-0.103614190532059
3.01,0.0991189357935926,-0.105140099851222
3.012,0.0979452071602831,-0.106648490199655
3.014,0.0967435769495281,-0.108138748008592
3.016,0.0955144303703098,-0.109610269139867
3.018,0.09425816698479,-0.111062459247528
3.02,0.0929752004022532,-0.112494734131364
3.022,0.0916659580628709,-0.113906520077332
3.024,0.0903308809113131,-0.115297254201904
3.026,0.0889704231202341,-0.116666384779344
3.028,0.0875850517936618,-0.118013371564907
3.03,0.086175246650312,-0.119337686103998
3.032,0.0847414997368584,-0.120638812049274
3.034,0.0832843150611778,-0.121916245449719
3.036,0.0818042082955995,-0.123169495039691
3.038,0.0803017064301779,-0.12439808252697
3.04,0.0787773474360148,-0.125601542839791
3.042,0.0772316798986501,-0.126779424432915
3.044,0.0756652626915446,-0.127931289492711
3.046,0.0740786645836749,-0.12905671420129
3.048,0.07247246388626,-0.130155288989701
3.05,0.0708472480816383,-0.131226618720192
3.052,0.0692036134423153,-0.132270322927562
3.054,0.0675421646441981,-0.133286036029621
3.056,0.0658635143820351,-0.134273407486765
3.058,0.0641682829760758,-0.135232102030686
3.06,0.0624570979759678,-0.136161799802232
3.062,0.0607305937569063,-0.137062196518445
3.064,0.0589894111190479,-0.137933003648768
3.066,0.0572341968772059,-0.138773948540463
3.068,0.0554656034498369,-0.139584774553246
3.07,0.0536842884483338,-0.140365241143152
3.072,0.051890914254634,-0.141115124065655
3.074,0.0500861476081556,-0.141834215358055
3.076,0.0482706591820733,-0.142522323531149
3.078,0.0464451231629383,-0.143179273570208
3.08,0.044610216822258,-0.143804907035271
3.082,0.0427666200972397,-0.144399082140772
3.084,0.0409150151604072,-0.144961673734525
3.086,0.0390560859941979,-0.145492573396076
3.088,0.0371905179644461,-0.14599168940444
3.09,0.0353189973916617,-0.146458946815245
3.092,0.033442211125403,-0.146894287377291
3.094,0.0315608461180579,-0.147297669618547
3.096,0.0296755889989303,-0.147669068721597
3.098,0.0277871256477398,-0.148008476578557
3.1,0.0258961407725359,-0.148315901695474
3.102,0.0240033174910327,-0.148591369176221
3.104,0.022109336904362,-0.148834920605909
3.106,0.0202148776852533,-0.149046614033828
3.108,0.0183206156586343,-0.14922652384593
3.11,0.0164272233916617,-0.149374740676875
3.112,0.0145353697821759,-0.149491371331643
3.114,0.0126457196545852,-0.149576538626741
3.116,0.0107589333531762,-0.149630381261004
3.118,0.00887566634685216,-0.149653053746013
3.12,0.00699656882929777,-0.149644726166146
3.122,0.00512228533056877,-0.149605584068257
3.124,0.00325345433910743,-0.149535828301022
3.126,0.00140929252817955,-0.149412865583943
3.128,-0.000407762950266838,-0.14923843731603
3.13,-0.00221514100732444,-0.149036178544177
3.132,-0.00401231334843276,-0.148806439011231
3.134,-0.00579876255426974,-0.148549579983784
3.136,-0.00757398230123472,-0.148265973859679
3.138,-0.00933747766151968,-0.147956003915252
3.14,-0.0110887653327793,-0.147620063942319
3.142,-0.0128273738673961,-0.147258557934916
3.144,-0.0145528439313517,-0.146871899732803
3.146,-0.0162647284826996,-0.146460512692737
3.148,-0.0179625930096507,-0.146024829343531
3.15,-0.0196460157482723,-0.145565291026898
3.152,-0.0213145878298032,-0.1450823475401
3.154,-0.0229679135175927,-0.144576456781395
3.156,-0.0246056103136641,-0.144048084376307
3.158,-0.0262273091949103,-0.143497703318708
3.16,-0.027832654698924,-0.142925793589739
3.162,-0.0294213051294677,-0.142332841786556
3.164,-0.0309929326215865,-0.141719340743926
3.166,-0.0325472233263715,-0.141085789149669
3.168,-0.034083877505376,-0.140432691164951
3.17,-0.035602609594688,-0.139760556037441
3.172,-0.0371031483486676,-0.139069897709331
3.174,-0.0385852368933493,-0.138361234434229
3.176,-0.0400486328095183,-0.137635088380925
3.178,-0.0414931082054602,-0.136891985244139
3.18,-0.0429184497093945,-0.13613245384995
3.182,-0.0443244585915917,-0.135357025764119
3.184,-0.0457109507261809,-0.134566234896704
3.186,-0.0470777566726508,-0.133760617108765
3.188,-0.0484247216270506,-0.132940709819375
3.19,-0.0497517054428929,-0.132107051610738
3.192,-0.0510585826317635,-0.131260181836199
3.194,-0.0523452423336439,-0.13040064023228
3.196,-0.0536115882769475,-0.129528966523417
3.198,-0.0548575387482764,-0.128645700034615
3.2,-0.0560830265219008,-0.127751379307021
3.202,-0.0572879988289655,-0.12684654171441
3.204,-0.0584724172564276,-0.125931723072603
3.206,-0.0596362576557277,-0.125007457269794
3.208,-0.0607795101112011,-0.124074275882814
3.21,-0.0619021787482268,-0.12313270780731
3.212,-0.0630042816911252,-0.122183278881863
3.214,-0.0640858509307996,-0.121226511528023
3.216,-0.0651469321721314,-0.120262924381282
3.218,-0.066187584681128,-0.119293031934973
3.22,-0.0672078812018261,-0.118317344180106
3.222,-0.0682079077229571,-0.117336366279131
3.224,-0.0691877633543714,-0.116350598163637
3.226,-0.070147560123229,-0.115360534262987
3.228,-0.0710874228299553,-0.114366663138883
3.23,-0.0720074888039666,-0.113369467116871
3.232,-0.0729079077291669,-0.112369422037778
3.234,-0.073788841439217,-0.111366996889086
3.236,-0.0746504636825767,-0.110362653496245
3.238,-0.0754929598973281,-0.109356846233916
3.24,-0.0763165270057717,-0.108350021697159
3.242,-0.0771213731088051,-0.107342618462551
3.244,-0.0779077173200823,-0.106335066729246
3.246,-0.0786757894279538,-0.105327788119967
3.248,-0.0794258296881922,-0.104321195331945
3.25,-0.0801580885324992,-0.103315691927781
3.252,-0.0808469684318007,-0.102359448546262
3.254,-0.0815211422343259,-0.1014064111331
3.256,-0.0821809387774739,-0.100456855561619
3.258,-0.0828266926014671,-0.0995110459933764
3.26,-0.0834587435967931,-0.09856923475872
3.262,-0.0840774366584336,-0.0976316622572874
3.264,-0.0846831213318816,-0.0966985568184412
3.266,-0.0852761514559493,-0.0957701346416435
3.268,-0.0858568848113615,-0.0948465997267683
3.27,-0.0864256827591399,-0.0939281437343541
3.272,-0.0869829098807744,-0.0930149460157946
3.274,-0.087528933623184,-0.0921071734734693
3.276,-0.0880641239324656,-0.0912049806008136
3.278,-0.0885888528948283,-0.0903085093523305
3.28,-0.0891034943743189,-0.0894178892135405
3.282,-0.0896084236520315,-0.0885332371208749
3.284,-0.0901040170640039,-0.0876546575015093
3.286,-0.0905906516404006,-0.0867822422531409
3.288,-0.0910687047475793,-0.0859160707537075
3.29,-0.091538553724444,-0.0850562099110502
3.292,-0.0920005755308795,-0.0842027142025215
3.294,-0.0924551463850694,-0.0833556256745384
3.296,-0.0929026414160973,-0.0825149740320802
3.298,-0.0933434343073266,-0.0816807767081365
3.3,-0.0937778969455629,-0.0808530389231
3.302,-0.094206399077993,-0.080031753754112
3.304,-0.0946293079639046,-0.0792169022643552
3.306,-0.095046988036181,-0.0784084535623012
3.308,-0.0954598005575724,-0.0776063649409094
3.31,-0.0958681032947436,-0.0768105819767804
3.312,-0.0962722501770936,-0.0760210386792664
3.314,-0.0966725909783492,-0.0752376576195382
3.316,-0.0970694709879303,-0.0744603500596124
3.318,-0.0974632306990851,-0.0736890161213381
3.32,-0.0978542054837966,-0.0729235449753473
3.322,-0.0982427252824548,-0.0721638149599701
3.324,-0.0986291143403,-0.0714096937801142
3.326,-0.0990136908506287,-0.0706610387161155
3.328,-0.0993967666897676,-0.0699176968025573
3.33,-0.0997786471218108,-0.0691795050270623
3.332,-0.10015963055312,-0.0684462905390608
3.334,-0.100540008186587,-0.0677178708885328
3.336,-0.100920063825658,-0.0669940542347337
3.338,-0.10130007355812,-0.0662746395748975
3.34,-0.101680305529642,-0.065559416982927
3.342,-0.102061019687079,-0.0648481678880695
3.344,-0.102442467521532,-0.0641406652635823
3.346,-0.102824891861169,-0.0634366739583901
3.348,-0.103208526613792,-0.0627359509127366
3.35,-0.103593596589175,-0.0620382454448331
3.352,-0.103980317221139,-0.0613432995285101
3.354,-0.104368894429402,-0.0606508480728676
3.356,-0.104759524371163,-0.0599606192129343
3.358,-0.105152393292452,-0.0592723345993357
3.36,-0.105547677319231,-0.0585857096989727
3.362,-0.105945542288243,-0.0579004540957166
3.364,-0.106346143607618,-0.0572162717991205
3.366,-0.10674962605723,-0.0565328615531548
3.368,-0.107156123698806,-0.0558499171539632
3.37,-0.107565759675784,-0.0551671277676493
3.372,-0.10797864612293,-0.0544841782530925
3.374,-0.108394884055699,-0.0538007494897992
3.376,-0.108839937819352,-0.0531208455747892
3.378,-0.109314199537825,-0.0524421366365248
3.38,-0.109792380822354,-0.0517592871707835
3.382,-0.110274434379841,-0.051071954483846
3.384,-0.11076030105099,-0.0503797969920174
3.386,-0.111249909788183,-0.0496824745684518
3.388,-0.111743177773118,-0.048979648889132
3.39,-0.112240010424197,-0.0482709837755639
3.392,-0.112740301483675,-0.0475561455414113
3.394,-0.113243933084561,-0.046834803324071
3.396,-0.113750775877279,-0.0461066294311168
3.398,-0.114260689046084,-0.0453712996708188
3.4,-0.114773520485242,-0.044628493683741
3.402,-0.115289106894967,-0.0438778952734183
3.404,-0.115807273867123,-0.0431191927301195
3.406,-0.116327836060681,-0.0423520791566965
3.408,-0.116850597336951,-0.0415762527825271
3.41,-0.117375350874573,-0.0407914172795482
3.412,-0.117901879364275,-0.0399972820713908
3.414,-0.118429955123402,-0.039193562641613
3.416,-0.118959340350213,-0.0383799808320389
3.418,-0.119489787227956,-0.0375562651372035
3.42,-0.120021038148706,-0.036722150997909
3.422,-0.120552825916987,-0.0358773810898942
3.424,-0.121084873923173,-0.0350217055906215
3.426,-0.121616896396658,-0.0341548824821821
3.428,-0.12214859858882,-0.0332766777653253
3.43,-0.12267967703576,-0.0323868658006132
3.432,-0.12320981976083,-0.0314852294897041
3.434,-0.12373870652695,-0.0305715605567668
3.436,-0.124266009088714,-0.0296456598100308
3.438,-0.12479139143429,-0.0287073373434724
3.44,-0.12531451006711,-0.02775641277864
3.442,-0.125835014267369,-0.0267927154966244
3.444,-0.126352546323311,-0.025816084840172
3.446,-0.126866741872326,-0.0248263703259466
3.448,-0.127377230155852,-0.0238234318469414
3.45,-0.127883634291078,-0.0228071398650431
3.452,-0.12838557159547,-0.0217773755737533
3.454,-0.128882653870099,-0.0207340311110626
3.456,-0.129374487706792,-0.019677009692489
3.458,-0.129860674799099,-0.0186062258042755
3.46,-0.130340812251083,-0.0175216053067522
3.462,-0.130814492895938,-0.016423085647864
3.464,-0.13128130561843,-0.0153106159168663
3.466,-0.131740835679171,-0.0141841570481916
3.468,-0.132192665037729,-0.0130436818454849
3.47,-0.132636372690573,-0.0118891752058152
3.472,-0.133071534999857,-0.010720634114061
3.474,-0.133497726032052,-0.00953806778747189
3.476,-0.133914517897415,-0.00834149775040966
3.478,-0.134321481090321,-0.00713095788926788
3.48,-0.134718184832433,-0.00590649453757288
3.482,-0.135104197418239,-0.00466816650126795
3.484,-0.135479086560943,-0.00341604513417957
3.486,-0.135842419741117,-0.00215021435367024
3.488,-0.13619376455432,-0.000870770666475972
3.49,-0.136532689062088,0.000422176795269007
3.492,-0.136858762140289,0.00172850631781824
3.494,-0.13717155382986,0.00304808352941332
3.496,-0.137470635688518,0.00438076149369022
3.498,-0.13775558113775,0.0057263806828995
3.5,-0.138025965816695,0.00708476901093268
3.502,-0.138262128503905,0.00852748554615823
3.504,-0.138479178225001,0.00998148835406338
3.506,-0.138676745260225,0.0114464283197078
3.508,-0.13885446806288,0.0129219456099777
3.51,-0.139011993549682,0.014407669965654
3.512,-0.139148977383008,0.015903220893278
3.514,-0.139265084247046,0.0174082078768331
3.516,-0.139359988116868,0.0189222306492238
3.518,-0.139433372526399,0.0204448794135659
3.52,-0.139484930822312,0.0219757351042817
3.522,-0.13951436641084,0.023514369647998
3.524,-0.139521393004503,0.0250603462042565
3.526,-0.139505734867766,0.026613219486022
3.528,-0.139467127035619,0.0281725359600064
3.53,-0.139405315539091,0.0297378342067908
3.532,-0.139320057610692,0.0313086451707607
3.534,-0.139211121899791,0.0328844924298467
3.536,-0.139078288677937,0.0344648925550712
3.538,-0.138921350024115,0.0360493553699079
3.54,-0.138740109989947,0.0376373842594435
3.542,-0.138534384804837,0.0392284765093578
3.544,-0.138304003011071,0.0408221235947045
3.546,-0.13804880566886,0.0424178115385085
3.548,-0.13776864644134,0.044015021200176
3.55,-0.137463391779527,0.0456132286097089
3.552,-0.137132921047233,0.0472119053357433
3.554,-0.136777126645937,0.0488105187833888
3.556,-0.136395914099626,0.0504085325548966
3.558,-0.13598920221959,0.0520054067851298
3.56,-0.1355569231392,0.0536005984858585
3.562,-0.135099022428638,0.0551935618998709
3.564,-0.134615459189611,0.0567837488418981
3.566,-0.134106206090032,0.058370609059365
3.568,-0.133571249438681,0.0599535905789543
3.57,-0.133010589259837,0.0615321400629977
3.572,-0.132424239297895,0.0631057031686848
3.574,-0.131812227051959,0.0646737248990994
3.576,-0.131174593830424,0.066235649968075
3.578,-0.130511394735535,0.0677909231528808
3.58,-0.129822698677937,0.0693389896527314
3.582,-0.129108588371214,0.0708792954501234
3.584,-0.128369160316408,0.0724112876685036
3.586,-0.127604524766542,0.073934414926583
3.588,-0.126814805731126,0.0754481276986656
3.59,-0.126000140870656,0.0769518786685052
3.592,-0.125160681501119,0.0784451230860983
3.594,-0.124296592518476,0.0799273191186098
3.596,-0.123408052303162,0.0813979282017132
3.598,-0.12249525268457,0.0828564153929888
3.6,-0.121558398805546,0.0843022497137564
3.602,-0.120597709066871,0.08573490449975
3.604,-0.119613414981764,0.0871538577406279
3.606,-0.118605761090371,0.0885585924173261
3.608,-0.117575004844269,0.0899485968452533
3.61,-0.116521416420967,0.0913233649993241
3.612,-0.115445278648424,0.0926823968498421
3.614,-0.114346886809562,0.0940251986872209
3.616,-0.113226548496793,0.0953512834425552
3.618,-0.112084583466557,0.0966601710040352
3.62,-0.110921323413862,0.0979513885362084
3.622,-0.109737111846841,0.0992244707820922
3.624,-0.108532303861316,0.100478960372129
3.626,-0.107307265955374,0.101714408117
3.628,-0.106062375823958,0.102930373321279
3.63,-0.104798022133464,0.104126424022943
3.632,-0.10351460429636,0.105302137351739
3.634,-0.102212532285813,0.106457099740392
3.636,-0.10089222633033,0.107590907215674
3.638,-0.0995541167384194,0.108703165679327
3.64,-0.0981986436132619,0.109793491148837
3.642,-0.0968262565974018,0.110861510028062
3.644,-0.0954374146174503,0.111906859317721
3.646,-0.0940325856188104,0.112929186895736
3.648,-0.0926122462904168,0.113928151727422
3.65,-0.0911768817694909,0.114903424085553
3.652,-0.0897269853673206,0.115854685780264
3.654,-0.088263058287052,0.116781630358824
3.656,-0.0867856093035042,0.11768396331526
3.658,-0.0852951544790014,0.118561402289847
3.66,-0.0837922168462265,0.119413677248444
3.662,-0.0822773260970947,0.120240530651698
3.664,-0.0807510182726441,0.121041717644104
3.666,-0.0792138354319546,0.121817006192922
3.668,-0.0776663253340804,0.122566177296953
3.67,-0.0761090411070117,0.123289025045178
3.672,-0.074542540913651,0.123985356835246
3.674,-0.0729673876148206,0.124654993471832
3.676,-0.0713841484322868,0.125297769254847
3.678,-0.0697933946058103,0.125913532167506
3.68,-0.0681957010432224,0.126502143884256
3.682,-0.0665916459785222,0.127063479938566
3.684,-0.0649818106160035,0.127597429790565
3.686,-0.0633667787826032,0.12810389688455
3.688,-0.0617471365685814,0.128582798716339
3.69,-0.0601234719748222,0.129034066920492
3.692,-0.0584963745540679,0.12945764727738
3.694,-0.0568664350521793,0.129853499790117
3.696,-0.055234245048723,0.130221598691344
3.698,-0.0536003965947937,0.13056193247987
3.7,-0.0519654818547605,0.130874503907167
3.702,-0.0503300927446519,0.13115933000372
3.704,-0.0486948205675656,0.131416442085235
3.706,-0.0470602556571177,0.131645885688693
3.708,-0.0454269870139224,0.131847720578263
3.71,-0.0437956019481063,0.132022020731066
3.712,-0.0421666857168625,0.132168874222791
3.714,-0.0405408211710362,0.132288383273161
3.716,-0.0389185883957538,0.132380664091253
3.718,-0.0373005643570866,0.132445846870665
3.72,-0.0356873225487592,0.132484075664533
3.722,-0.034079432639896,0.132495508330401
3.724,-0.0324774601258115,0.132480316404932
3.726,-0.0308819660028473,0.132438685008476
3.728,-0.0292935063762503,0.132370812729476
3.73,-0.0277126321671024,0.132276911498726
3.732,-0.0261398887712942,0.132157206463475
3.734,-0.0245758156955539,0.132011935821371
3.736,-0.023020946243523,0.13184135070426
3.738,-0.0214758072118875,0.131645714971815
3.74,-0.0199409185465638,0.131425305105021
3.742,-0.0184167929989404,0.131180409979496
3.744,-0.0169039358821805,0.130911330698657
3.746,-0.0154028446975796,0.130618380416726
3.748,-0.0139140088609922,0.130301884121579
3.75,-0.012437909419317,0.129962178417433
3.752,-0.0110468940470486,0.129534526677379
3.754,-0.00967282916290284,0.129088132765746
3.756,-0.00831602453650308,0.128623486760315
3.758,-0.00697677662514885,0.128141084624361
3.76,-0.00565536844064981,0.127641427854542
3.762,-0.00435206941624479,0.127125023115623
3.764,-0.00306713535359362,0.126592381884039
3.766,-0.00180080827985207,0.126044020086293
3.768,-0.000553316424834326,0.125480457737194
3.77,0.000675125911744977,0.124902218571936
3.772,0.00188431838293228,0.124309829682004
3.774,0.00307407465711308,0.123703821150929
3.776,0.00424422247048854,0.123084725682872
3.778,0.00539460364946171,0.122453078237051
3.78,0.00652507415292162,0.121809415657997
3.782,0.00763550406442413,0.121154276308659
3.784,0.0087257776142728,0.120488199703338
3.786,0.00979579316148558,0.11981172613646
3.788,0.010845463195659,0.119125396318191
3.79,0.0118747143187121,0.11842975101049
3.792,0.0128834871765183,0.117725330658596
3.794,0.0138717364604198,0.117012675030159
3.796,0.0148394308386137,0.116292322853517
3.798,0.0157865528974219,0.115564811457997
3.8,0.0167130990624244,0.114830676414979
3.802,0.0176190795394694,0.114090451185182
3.804,0.0185045181955442,0.113344666765513
3.806,0.0193694525195112,0.112593851338944
3.808,0.0202139334527053,0.11183852992654
3.81,0.0210380253093835,0.111079224047342
3.812,0.0218418056570344,0.110316451376084
3.814,0.022625365166533,0.109550725406766
3.816,0.0233888074921464,0.108782555125079
3.818,0.0241322490913818,0.108012444672679
3.82,0.0248558191346783,0.107240893030314
3.822,0.0255596592449339,0.106468393696807
3.824,0.0262439234268686,0.105695434371898
3.826,0.0269087777962218,0.104922496650939
3.828,0.0275544004587737,0.104150055718457
3.83,0.0281809812791985,0.103378580049572
3.832,0.0287887216897332,0.102608531121281
3.834,0.0293778344786734,0.101840363099617
3.836,0.0299485435786793,0.101074522623664
3.838,0.0305010838148986,0.100311448429451
3.84,0.0310357007129014,0.0995515711757177
3.842,0.0315526502464172,0.0987953131295588
3.844,0.0320521985648833,0.0980430879319419
3.846,0.0325346218007885,0.0972953003031113
3.848,0.0330002057468216,0.0965523458778729
3.85,0.0334492456528116,0.0958146109007689
3.852,0.0338820459024632,0.0950824720411403
3.854,0.0342989197898837,0.0943562961280825
3.856,0.0347001892158946,0.0936364399952985
3.858,0.0350861843841329,0.0929232502258501
3.86,0.03545724354293,0.0922170629568117
3.862,0.0358137126959775,0.0915182037238303
3.864,0.0361559452687627,0.0908269872455951
3.866,0.0364843018317863,0.0901437172782192
3.868,0.0367991497865498,0.0894686863995389
3.87,0.0371008630513137,0.0888021759133318
3.872,0.0373898217526261,0.0881444556434593
3.874,0.037666411900615,0.0874957838279378
3.876,0.0379310250720479,0.0868564069729397
3.878,0.0381840580831517,0.0862265597367316
3.88,0.0384259126621941,0.085606464803551
3.882,0.0386569951218249,0.0849963327774263
3.884,0.0388777160241714,0.0843963620859465
3.886,0.0390884898466924,0.083806738903981
3.888,0.0392897346457834,0.0832276370373574
3.89,0.039481871722138,0.0826592178964971
3.892,0.0396653252748547,0.0821016304100203
3.894,0.0398405220664997,0.0815550109483167
3.896,0.0400078910769848,0.0810194833370908
3.898,0.0401678631641728,0.0804951587708884
3.9,0.0403208707196828,0.0799821357966021
3.902,0.0404673473250362,0.0794805002969685
