"Freq [GHz]","re(S(Antenna1_1_p1,Antenna1_1_p1)) []","im(S(Antenna1_1_p1,Antenna1_1_p1)) []"
3,0.106362573482387,-0.089921108305587
3.002,0.105571611244575,-0.0915777891617952
3.004,0.104748793677819,-0.093226698191127
3.006,0.10389422207269,-0.0948671174078024
3.008,0.103008015329501,-0.0964983309240589
3.01,0.102090309933593,-0.0981196253989221
3.012,0.101141259840283,-0.0997302904827548
3.014,0.100161036419528,-0.101329619254992
3.016,0.0991498283503098,-0.102916908665867
3.018,0.09810784151479,-0.104491459972528
3.02,0.0970352988822532,-0.106052579169364
3.022,0.0959324404028709,-0.107599577421332
3.024,0.0947995228213131,-0.109131771488904
3.026,0.0936368195802341,-0.110648484148344
3.028,0.0924446206236618,-0.112149044611907
3.03,0.091223232250312,-0.113632788941998
3.032,0.0899729768968583,-0.115099060456274
3.034,0.0886941930111778,-0.116547210137719
3.036,0.0873872347855995,-0.117976597027691
3.038,0.086052471970178,-0.11938658862297
3.04,0.0846902896860149,-0.120776561262791
3.042,0.0833010881286501,-0.122145900507915
3.044,0.0818852823915446,-0.123494001522711
3.046,0.0804433021696749,-0.12482026943729
3.048,0.07897559154326,-0.126124119719701
3.05,0.0774826086716383,-0.127404978510192
3.052,0.0759648255373153,-0.128662283007562
3.054,0.0744227276701981,-0.129895481779621
3.056,0.0728568138220351,-0.131104035086765
3.058,0.0712675957110758,-0.132287415270686
3.06,0.0696555976769678,-0.133445106992232
3.062,0.0680213563559063,-0.134576607608445
3.064,0.0663654204060479,-0.135681427418768
3.066,0.0646883501332059,-0.136759090010463
3.068,0.0629907171568369,-0.137809132513246
3.07,0.0612731040663338,-0.138831105873152
3.072,0.059536104087634,-0.139824575155655
3.074,0.0577803206901556,-0.140789119748055
3.076,0.0560063672360733,-0.141724333661149
3.078,0.0542148666309383,-0.142629825740208
3.08,0.052406450906658,-0.143505219885271
3.082,0.0505817608648397,-0.144350155320772
3.084,0.0487414456765072,-0.145164286744525
3.086,0.0468861624951979,-0.145947284586076
3.088,0.0450165760544461,-0.14669883512444
3.09,0.0431333582646617,-0.147418640765245
3.092,0.041237187809403,-0.148106420117291
3.094,0.0393287497310579,-0.148761908208547
3.096,0.0374087350159303,-0.149384856621597
3.098,0.0354778401767398,-0.149975033628557
3.1,0.0335367668315359,-0.150532224325474
3.102,0.0315862212760327,-0.151056230726221
3.104,0.029626914058362,-0.151546871905909
3.106,0.0276595595482533,-0.152003984083828
3.108,0.0256848755070343,-0.15242742067593
3.11,0.0237035826504617,-0.152817052416875
3.112,0.0217164042152759,-0.153172767391643
3.114,0.0197240655215851,-0.153494471086741
3.116,0.0177272935361762,-0.153782086461004
3.118,0.0157268164318522,-0.154035553946013
3.12,0.0137233631492978,-0.154254831446146
3.122,0.0117176629595688,-0.154439894418257
3.124,0.00971044502010743,-0.154590735771022
3.126,0.00771006220217955,-0.154675930683943
3.128,0.00571973284773316,-0.15469613679603
3.13,0.00373336052667556,-0.154683150094177
3.132,0.00175163159956724,-0.154637158801231
3.134,-0.000224774014269739,-0.154558367103784
3.136,-0.00219518321723472,-0.154446994939679
3.138,-0.00415893012351968,-0.154303277855252
3.14,-0.00611535643077927,-0.154127466742319
3.142,-0.00806381179539613,-0.153919827604916
3.144,-0.0100036542013517,-0.153680641365803
3.146,-0.0119342503026996,-0.153410203602737
3.148,-0.0138549757996507,-0.153108824294531
3.15,-0.0157652157682723,-0.152776827566898
3.152,-0.0176643649998032,-0.1524145514281
3.154,-0.0195518283275927,-0.152022347494395
3.156,-0.0214270209636641,-0.151600580695307
3.158,-0.0232893687949103,-0.151149628998708
3.16,-0.025138308728924,-0.150669883075739
3.162,-0.0269732889194677,-0.150161746045556
3.164,-0.0287937691515865,-0.149625633129926
3.166,-0.0305992210463715,-0.149061971347669
3.168,-0.032389128375376,-0.148471199158951
3.17,-0.034162987294688,-0.147853766169441
3.172,-0.0359203066686676,-0.147210132764331
3.174,-0.0376606082133493,-0.146540769772229
3.176,-0.0393834268395183,-0.145846158102925
3.178,-0.0410883107954602,-0.145126788420039
3.18,-0.0427748219493945,-0.14438316073855
3.182,-0.0444425359515917,-0.143615784080219
3.184,-0.0460910424761809,-0.142825176097904
3.186,-0.0477199453826508,-0.142011862693765
3.188,-0.0493288629070506,-0.141176377644375
3.19,-0.0509174278128929,-0.140319262209738
3.192,-0.0524852875717635,-0.139441064746199
3.194,-0.0540321045336439,-0.13854234031228
3.196,-0.0555575560169475,-0.137623650276417
3.198,-0.0570613344582764,-0.136685561912615
3.2,-0.0585431475419008,-0.135728648003021
3.202,-0.0600027182989655,-0.13475348643141
3.204,-0.0614397852164276,-0.133760659775603
3.206,-0.0628541023057277,-0.132750754903994
3.208,-0.0642454391712011,-0.131724362558714
3.21,-0.0656135811182268,-0.13068207694921
3.212,-0.0669583291611252,-0.129624495337563
3.214,-0.0682795001007996,-0.128552217625023
3.216,-0.0695769265421314,-0.127465845940282
3.218,-0.070850456921128,-0.126365984219973
3.22,-0.0720999555118261,-0.125253237800106
3.222,-0.0733253024429571,-0.124128212999131
3.224,-0.0745263936643714,-0.122991516703637
3.226,-0.075703140953229,-0.121843755957987
3.228,-0.0768554718699553,-0.120685537549883
3.23,-0.0779833297139666,-0.119517467600871
3.232,-0.079086673489167,-0.118340151158778
3.234,-0.080165477799217,-0.117154191790086
3.236,-0.0812197328525767,-0.115960191172245
3.238,-0.0822494442873281,-0.114758748696916
3.24,-0.0832546331457717,-0.113550461063159
3.242,-0.0842353357488051,-0.112335921892551
3.244,-0.0851916035900823,-0.111115721309246
3.246,-0.0861235031799538,-0.109890445579967
3.248,-0.0870311159591922,-0.108660676731945
3.25,-0.0879145381224992,-0.107426992107781
3.252,-0.0887247885318007,-0.106224483616262
3.254,-0.0895129214493258,-0.1050217534431
3.256,-0.0902791723304739,-0.103819291201619
3.258,-0.0910237882764671,-0.102617577263376
3.26,-0.0917470277767931,-0.10141708247872
3.262,-0.0924491604014336,-0.100218267907287
3.264,-0.0931304665028816,-0.0990215845284412
3.266,-0.0937912369279493,-0.0978274730116435
3.268,-0.0944317727093615,-0.0966363634467683
3.27,-0.0950523847071399,-0.0954486751143541
3.272,-0.0956533933397744,-0.0942648162257946
3.274,-0.0962351282451841,-0.0930851837634693
3.276,-0.0967979279214656,-0.0919101631708136
3.278,-0.0973421394234283,-0.0907401282523305
3.28,-0.0978681179849189,-0.0895754408735405
3.282,-0.0983762267059315,-0.0884164508608749
3.284,-0.0988668361835039,-0.0872634957715093
3.286,-0.0993403241624006,-0.0861169007431409
3.288,-0.0997970751705793,-0.0849769783337075
3.29,-0.100237480163444,-0.0838440283810502
3.292,-0.10066193615188,-0.0827183378325215
3.294,-0.101070845840069,-0.0816001806745384
3.296,-0.101464617247097,-0.0804898177420802
3.298,-0.101843663339327,-0.0793874966781365
3.3,-0.102208401648563,-0.0782934517631
3.302,-0.102559253897993,-0.077207903904112
3.304,-0.102896645618905,-0.0761310605043552
3.306,-0.103221005772181,-0.0750631154023012
3.308,-0.103532766362472,-0.0740042488209094
3.31,-0.103832362058204,-0.0729546273167804
3.312,-0.104120229803994,-0.0719144037392664
3.314,-0.104396808437349,-0.0708837172295382
3.316,-0.10466253830493,-0.0698626931596124
3.318,-0.104917860874085,-0.0688514431513381
3.32,-0.105163218354797,-0.0678500650653473
3.322,-0.105399053308455,-0.0668586430399701
3.324,-0.1056258082733,-0.0658772475001142
3.326,-0.105843925373629,-0.0649059351761155
3.328,-0.106053845949768,-0.0639447491625573
3.33,-0.106256010168811,-0.0629937189770623
3.332,-0.10645085666012,-0.0620528606190608
3.334,-0.106638822129587,-0.0611221766285328
3.336,-0.106820340994658,-0.0602016562147337
3.338,-0.10699584501412,-0.0592912752748975
3.34,-0.107165762921642,-0.058390996572927
3.342,-0.107330520061079,-0.0575007698180695
3.344,-0.107490538031532,-0.0566205317635824
3.346,-0.107646234321169,-0.0557502064053901
3.348,-0.107798021983792,-0.0548897050307366
3.35,-0.107946309239175,-0.0540389264768331
3.352,-0.108091499181139,-0.0531977571895101
3.354,-0.108233989419402,-0.0523660714618676
3.356,-0.108374171741163,-0.0515437315629343
3.358,-0.108512431782452,-0.0507305879563357
3.36,-0.108649148729231,-0.0499264795089727
3.362,-0.108784694958243,-0.0491312336197166
3.364,-0.108919435747618,-0.0483446665281205
3.366,-0.10905372899723,-0.0475665834631548
3.368,-0.109187924858806,-0.0467967789019632
3.37,-0.109322365535784,-0.0460350367786493
3.372,-0.10945738490293,-0.0452811307830925
3.374,-0.109593308295699,-0.0445348245297992
3.376,-0.109753172269352,-0.0438130913267892
3.378,-0.109938606927825,-0.0431138861345248
3.38,-0.110127554892354,-0.0424190740218835
3.382,-0.110320211269841,-0.041728318817176
3.384,-0.11051675934099,-0.0410412787972174
3.386,-0.110717370408183,-0.0403576070224518
3.388,-0.110922203653118,-0.039676951690132
3.39,-0.111131406034197,-0.0389989564915639
3.392,-0.111345112183675,-0.0383232609694113
3.394,-0.111563444274561,-0.037649500878071
3.396,-0.111786511967279,-0.0369773085461168
3.398,-0.112014412276084,-0.0363063132418188
3.4,-0.112247229565242,-0.035636141539741
3.402,-0.112485035444967,-0.0349664176864183
3.404,-0.112727888717123,-0.0342967639741195
3.406,-0.112975835350681,-0.0336268011056965
3.408,-0.113228908446951,-0.0329561485705271
3.41,-0.113487128214573,-0.0322844250127482
3.412,-0.113750501954275,-0.0316112486047308
3.414,-0.114019024063402,-0.030936237417013
3.416,-0.114292676060213,-0.0302590097910389
3.418,-0.114571426547956,-0.0295791847082035
3.42,-0.114855231318706,-0.028896382161909
3.422,-0.115144033346987,-0.0282102235238942
3.424,-0.115437762833173,-0.0275203319126215
3.426,-0.115736337276658,-0.0268263325611821
3.428,-0.11603966154882,-0.0261278531753253
3.43,-0.11634762796576,-0.0254245243016132
3.432,-0.11666011637083,-0.0247159796827041
3.434,-0.11697699423695,-0.0240018566177668
3.436,-0.117298116748714,-0.0232817963090308
3.438,-0.11762332699429,-0.0225554442234724
3.44,-0.11795245597711,-0.0218224504286401
3.442,-0.118285322847369,-0.0210824699456244
3.444,-0.118621735013311,-0.020335163083172
3.446,-0.118961488272326,-0.0195801957759466
3.448,-0.119304367001852,-0.0188172399169414
3.45,-0.119650144330078,-0.0180459736850431
3.452,-0.11999858227647,-0.0172660818437533
3.454,-0.120349432002099,-0.0164772561210626
3.456,-0.120702433959792,-0.015679195452489
3.458,-0.121057318114099,-0.0148716063142755
3.46,-0.121413804151083,-0.0140542030267522
3.462,-0.121771601697938,-0.013226708057864
3.464,-0.12213041056243,-0.0123888522868663
3.466,-0.122489920962171,-0.0115403753281916
3.468,-0.122849813773729,-0.0106810257654849
3.47,-0.123209760761573,-0.00981056141581519
3.472,-0.123569424886857,-0.00892874965406097
3.474,-0.123928460506052,-0.00803536759747189
3.476,-0.124286513689415,-0.00713020241040965
3.478,-0.124643222509321,-0.00621305149926788
3.48,-0.124998217278433,-0.00528372278757288
3.482,-0.125351120887739,-0.00434203489126795
3.484,-0.125701549074443,-0.00338781740417957
3.486,-0.126049110738717,-0.00242091104367024
3.488,-0.12639340825132,-0.00144116789647597
3.49,-0.126734037767088,-0.000448451584730995
3.492,-0.127070589545289,0.00055736253781824
3.494,-0.127402648271861,0.00157638719941331
3.496,-0.127729793392518,0.00260872305369023
3.498,-0.12805159944375,0.0036544585328995
3.5,-0.128367636391695,0.00471366967093268
3.502,-0.128697262133905,0.00586752548615823
3.504,-0.129016033254001,0.00703588871406338
3.506,-0.129323478041225,0.00821863806970781
3.508,-0.12961912685088,0.00941563852997775
3.51,-0.129902512476682,0.010626741425654
3.512,-0.130173170526308,0.011851784473278
3.514,-0.130430639793046,0.0130905918768331
3.516,-0.130674462625768,0.0143429743992238
3.518,-0.130904185295399,0.0156087294535659
3.52,-0.131119358362312,0.0168876412142817
3.522,-0.13131953703084,0.018179480727998
3.524,-0.131504281517503,0.0194840060342565
3.526,-0.131673157395766,0.020800962306022
3.528,-0.131825735954619,0.0221300819900064
3.53,-0.131961594542091,0.0234710849367908
3.532,-0.132080316908692,0.0248236785907607
3.534,-0.132181493544791,0.0261875581398467
3.536,-0.132264722017937,0.0275624067150712
3.538,-0.132329607298115,0.0289478955299079
3.54,-0.132375762082947,0.0303436841394435
3.542,-0.132402807115837,0.0317494205793578
3.544,-0.132410371501071,0.0331647416347045
3.546,-0.13239809300686,0.0345892730185085
3.548,-0.13236561837134,0.036022629630176
3.55,-0.132312603599527,0.0374644157637089
3.552,-0.132238714237233,0.0389142253657433
3.554,-0.132143625675937,0.0403716422733888
3.556,-0.132027023409626,0.0418362405118966
3.558,-0.13188860331959,0.0433075845121298
3.56,-0.1317280719192,0.0447852293978585
3.562,-0.131545146618638,0.0462687212728709
3.564,-0.131339555969611,0.0477575974978981
3.566,-0.131111039910032,0.049251387007365
3.568,-0.130859349988681,0.0507496105559543
3.57,-0.130584249589837,0.0522517810849977
3.572,-0.130285514147895,0.0537574039786848
3.574,-0.129962931351959,0.0552659774000994
3.576,-0.129616301370424,0.056776992627075
3.578,-0.129245437015535,0.0582899343578808
3.58,-0.128850163907937,0.0598042810567314
3.582,-0.128430320701214,0.0613195052691234
3.584,-0.127985759216408,0.0628350739770036
3.586,-0.127516344596542,0.064350448946763
3.588,-0.127021955441126,0.0658650870550656
3.59,-0.126502483990656,0.0673784406685052
3.592,-0.125957836211119,0.0688899579830983
3.594,-0.125387931928476,0.0703990833836098
3.596,-0.124792704923162,0.0719052578097132
3.598,-0.12417210306457,0.0734079191159888
3.6,-0.123526088365546,0.0749065024447564
3.602,-0.122854637096871,0.07640044058675
3.604,-0.122157739831764,0.0778891643626279
3.606,-0.121435401500371,0.0793721029873261
3.608,-0.120687641484269,0.0808486844502533
3.61,-0.119914493630967,0.0823183358883241
3.612,-0.119116006278424,0.0837804839668421
3.614,-0.118292242289562,0.0852345552522209
3.616,-0.117443279056793,0.0866799765941552
3.618,-0.116569208546557,0.0881161755037352
3.62,-0.115670137223862,0.0895425805312084
3.622,-0.114746186076841,0.0909586216460922
3.624,-0.113797490601316,0.0923637306131294
3.626,-0.112824200715374,0.0937573413730003
3.628,-0.111826480793958,0.0951388904152785
3.63,-0.110804509513464,0.0965078171569435
3.632,-0.10975847987636,0.0978635643137395
3.634,-0.108688599085813,0.0992055782723919
3.636,-0.10759508845033,0.100533309463674
3.638,-0.106478183358419,0.101846212726327
3.64,-0.105338133083262,0.103143747675837
3.642,-0.104175200737402,0.104425379066062
3.644,-0.10298966312745,0.105690577148721
3.646,-0.10178181061881,0.106938818030736
3.648,-0.100551946990417,0.108169584028422
3.65,-0.0993003893094909,0.109382364013553
3.652,-0.0980274677363206,0.110576653770264
3.654,-0.096733525389052,0.111751956308824
3.656,-0.0954189181385042,0.11290778224526
3.658,-0.0940840144530014,0.114043650099847
3.66,-0.0927291951732265,0.115159086638444
3.662,-0.0913548533270947,0.116253627201698
3.664,-0.0899613939146441,0.117326816004104
3.666,-0.0885492336929546,0.118378206472922
3.668,-0.0871188009410804,0.119407361506953
3.67,-0.0856705352350117,0.120413853865178
3.672,-0.084204887192651,0.121397266345246
3.674,-0.0827223182288206,0.122357192191832
3.676,-0.0812233002902868,0.123293235284847
3.678,-0.0797083156108103,0.124205010467506
3.68,-0.0781778564162224,0.125092143784256
3.682,-0.0766324246595222,0.125954272788566
3.684,-0.0750725317360035,0.126791046730565
3.686,-0.0734986981584032,0.12760212687455
3.688,-0.0719114533020814,0.128387186696339
3.69,-0.0703113350872222,0.129145912100492
3.692,-0.0686988896460679,0.12987800171738
3.694,-0.0670746710261793,0.130583167040117
3.696,-0.065439240862723,0.131261132661344
3.698,-0.0637931680497937,0.13191163650987
3.7,-0.0621370284087605,0.132534429987167
3.702,-0.0604714043466519,0.13312927817372
3.704,-0.0587968845165656,0.133695960025235
3.706,-0.0571140634681177,0.134234268498693
3.708,-0.0554235412979224,0.134744010738263
3.71,-0.0537259232911063,0.135225008211066
3.712,-0.0520218195618625,0.135677096862791
3.714,-0.0503118446940362,0.136100127233161
3.716,-0.0485966173677538,0.136493964551253
3.718,-0.0468767599960866,0.136858488920665
3.72,-0.0451528983486592,0.137193595344533
3.722,-0.043425661176596,0.137499193860401
3.724,-0.0416956798355115,0.137775209604932
3.726,-0.0399635879048473,0.138021582918477
3.728,-0.0382300208062503,0.138238269359476
3.73,-0.0364956154191024,0.138425239788726
3.732,-0.0347610096972942,0.138582480423475
3.734,-0.0330268422795539,0.138709992841371
3.736,-0.031293752107523,0.13880779404426
3.738,-0.0295623780308875,0.138875916431815
3.74,-0.0278333584245638,0.138914407825021
3.742,-0.0261073307979404,0.138923331469496
3.744,-0.0243849314051805,0.138902766018657
3.746,-0.0226667948595796,0.138852805486726
3.748,-0.0209535537429922,0.138773559231579
3.75,-0.019245838221317,0.138665151927433
3.752,-0.0175782575320486,0.138422288017379
3.754,-0.0159227976829028,0.138152382755746
3.756,-0.0142800067565031,0.137855803760315
3.758,-0.0126504225151489,0.137532931154361
3.76,-0.0110345721506498,0.137184157248542
3.762,-0.00943297194624479,0.136809886322623
3.764,-0.00784612701359362,0.136410534247039
3.766,-0.00627453104985207,0.135986528234293
3.768,-0.00471866599483432,0.135538306510194
3.77,-0.00317900185825502,0.135066318004936
3.772,-0.00165599640706772,0.134571022024004
3.774,-0.000150094962886923,0.134052887928929
3.776,0.00133826986048854,0.133512394817872
3.778,0.00280867834946171,0.132950031136051
3.78,0.00426072393292161,0.132366294395997
3.782,0.00569401337442413,0.131761690797659
3.784,0.0071081669842728,0.131136734868338
3.786,0.00850281877148558,0.13049194910246
3.788,0.00987761666565895,0.129827863641191
3.79,0.0112322226587121,0.12914501585189
3.792,0.0125663129665183,0.128443949997396
3.794,0.0138795782004198,0.127725216825159
3.796,0.0151717234586137,0.126989373249217
3.798,0.0164424685174219,0.126236981895997
3.8,0.0176915478924244,0.125468610778979
3.802,0.0189187110194694,0.124684832892182
3.804,0.0201237222655442,0.123886225822513
3.806,0.0213063610895112,0.123073371362944
3.808,0.0224664221027053,0.12224685512054
3.81,0.0236037151293835,0.121407266123342
3.812,0.0247180652770344,0.120555196427084
3.814,0.025809312986533,0.119691240718766
3.816,0.0268773140421464,0.118815995924079
3.818,0.0279219396713818,0.117930060807679
3.82,0.0289430764746784,0.117034035575314
3.822,0.0299406265049339,0.116128521483807
3.824,0.0309145072468686,0.115214120438998
3.826,0.0318646515962218,0.114291434601039
3.828,0.0327910078387737,0.113361065991457
3.83,0.0336935396191985,0.112423616097572
3.832,0.0345722259197332,0.111479685480281
3.834,0.0354270609886734,0.110529873384617
3.836,0.0362580542886793,0.109574777346664
3.838,0.0370652304248986,0.108614992811451
3.84,0.0378486290529014,0.107651112742718
3.842,0.0386083048164172,0.106683727245559
3.844,0.0393443272048833,0.105713423183942
3.846,0.0400567804907885,0.104740783804111
3.848,0.0407457635768216,0.103766388363873
3.85,0.0414113898828117,0.102790811758769
3.852,0.0420537871924632,0.10181462416114
3.854,0.0426730975398837,0.100838390653082
3.856,0.0432694770258946,0.0998626708732985
3.858,0.0438430956441329,0.0988880186578501
3.86,0.04439413712693,0.0979149816968117
3.862,0.0449227987709775,0.0969441011938303
3.864,0.0454292912127627,0.095975911515595
3.866,0.0459138382737863,0.0950109398582192
3.868,0.0463766767155498,0.0940497059395389
3.87,0.0468180560343137,0.0930927216633318
3.872,0.0472382382256261,0.0921404907934593
3.874,0.047637497598615,0.0911935086479378
3.876,0.0480161204900479,0.0902522618229397
3.878,0.0483744050081517,0.0893172278467316
3.88,0.0487126608261941,0.088388874933551
3.882,0.0490312088858249,0.0874676616674263
3.884,0.0493303811501714,0.0865540367559465
3.886,0.0496105202966924,0.085648438723981
3.888,0.0498719794597834,0.0847512956773574
3.89,0.050115121953138,0.0838630250564971
3.892,0.0503403209418547,0.0829840333500203
3.894,0.0505479591542997,0.0821147158983167
3.896,0.0507384286037148,0.0812554566370908
3.898,0.0509121302195728,0.0804066278908884
3.9,0.0510694736076828,0.0795685901266021
3.902,0.0512108766370362,0.0787416917869685
3.904,0.0513367651824038,0.0779262690740537
