"Freq [GHz]","re(S(Antenna1_1_p1,Antenna1_1_p1)) []","im(S(Antenna1_1_p1,Antenna1_1_p1)) []"
3,0.0951083338073872,-0.106122766476587
3.002,0.0938051366935749,-0.107392672499795
3.004,0.0924824759118189,-0.108639444703127
3.006,0.0911408944916895,-0.109862741079802
3.008,0.0897809421405011,-0.111062234065059
3.01,0.0884031748535926,-0.112237610569222
3.012,0.0870081545132831,-0.113388572189655
3.014,0.0855964484905282,-0.114514835271592
3.016,0.0841686292463098,-0.115616131037867
3.018,0.08272527392479,-0.116692205667528
3.02,0.0812669639502532,-0.117742820403364
3.022,0.0797942846198709,-0.118767751598332
3.024,0.0783078246973131,-0.119766790800904
3.026,0.0768081760042341,-0.120739744759344
3.028,0.0752959330116618,-0.121686435524907
3.03,0.073771692432612,-0.122606700433998
3.032,0.0722360528099784,-0.123500392119274
3.034,0.0706896141123778,-0.124367378579719
3.036,0.0691329773247995,-0.125207543069691
3.038,0.067566744042178,-0.12602078420697
3.04,0.0659915160660148,-0.126807015829791
3.042,0.0644078949986501,-0.127566167052915
3.044,0.0628164818425446,-0.128298182142711
3.046,0.0612178765996749,-0.12900302052129
3.048,0.05961267787926,-0.129680656659701
3.05,0.0580014824946383,-0.130331080020192
3.052,0.0563848850823153,-0.130954294937562
3.054,0.0547634777041981,-0.131550320559621
3.056,0.0531378494690351,-0.132119190686765
3.058,0.0515085861500758,-0.132660953690686
3.06,0.0498762698059678,-0.133175672392232
3.062,0.0482414784129063,-0.133663423868445
3.064,0.0466047854920479,-0.134124299338768
3.066,0.0449667597482059,-0.134558404020463
3.068,0.0433279647108369,-0.134965856923246
3.07,0.0416889583833338,-0.135346790693152
3.072,0.040050292894634,-0.135701351415655
3.074,0.0384125141541556,-0.136029698438055
3.076,0.0367761615210733,-0.136332004121149
3.078,0.0351417674729383,-0.136608453690208
3.08,0.033509857286658,-0.136859244945271
3.082,0.0318809486998397,-0.137084588090772
3.084,0.0302555516505072,-0.137284705446525
3.086,0.0286341679141979,-0.137459831231076
3.088,0.0270172908484461,-0.13761021130444
3.09,0.0254054051026617,-0.137736102902245
3.092,0.023798986318403,-0.137837774366291
3.094,0.0221985008600579,-0.137915504873547
3.096,0.0206044055859303,-0.137969584149597
3.098,0.0190171475397398,-0.138000312183557
3.1,0.0174371637325359,-0.138007998929474
3.102,0.0158648808950327,-0.137992964007221
3.104,0.014300715250362,-0.137955536395909
3.106,0.0127450722972533,-0.137896054116828
3.108,0.0111983465736343,-0.13781486392093
3.11,0.00966092148066172,-0.137712320961875
3.112,0.00813316907717593,-0.137588788468643
3.114,0.00661544987458515,-0.137444637411741
3.116,0.00510811268217625,-0.137280246168004
3.118,0.00361149444285216,-0.137096000176013
3.12,0.00212592005929777,-0.136892291593146
3.122,0.000651702250568768,-0.136669518946257
3.124,-0.00081085858089257,-0.136428086778022
3.126,-0.00223646657182045,-0.136167900015143
3.128,-0.00362483353026684,-0.1358914170789
3.13,-0.00500078992732444,-0.135600243463177
3.132,-0.00636419314843276,-0.135294799536531
3.134,-0.00771491321426974,-0.134975506211784
3.136,-0.00905283273123472,-0.134642784589679
3.138,-0.0103778468415197,-0.134297055604252
3.14,-0.0116898631727793,-0.133938739668319
3.142,-0.0129888017873961,-0.133568256328916
3.144,-0.0142745950713517,-0.133186023910803
3.146,-0.0155471876926996,-0.132792459179737
3.148,-0.0168065364796507,-0.132387976997531
3.15,-0.0180526103182723,-0.131972989985898
3.152,-0.0192853900398032,-0.1315479081901
3.154,-0.0205048683375927,-0.131113138748395
3.156,-0.0217110495736641,-0.130669085570307
3.158,-0.0229039496949103,-0.130216149009708
3.16,-0.024083596048924,-0.129754725547739
3.162,-0.0252500272594677,-0.129285207484556
3.164,-0.0264032930315865,-0.128807982628926
3.166,-0.0275434540163715,-0.128323433996669
3.168,-0.028670581585376,-0.127831939511951
3.17,-0.029784757684688,-0.127333871720441
3.172,-0.0308860746286676,-0.126829597501331
3.174,-0.0319746348733493,-0.126319477792229
3.176,-0.0330505508295183,-0.125803867298925
3.178,-0.0341139446454602,-0.125283114261039
3.18,-0.0351649479873945,-0.12475756016955
3.182,-0.0362037017795917,-0.124227539513219
3.184,-0.0372303559961809,-0.123693379531904
3.186,-0.0382450694066508,-0.123155399999765
3.188,-0.0392480093280506,-0.122613912968375
3.19,-0.0402393513668929,-0.122069222549738
3.192,-0.0412192791567635,-0.121521624719199
3.194,-0.0421879840956439,-0.12097140704828
3.196,-0.0431456650709475,-0.120418848587417
3.198,-0.0440925281792764,-0.119864219608615
3.2,-0.0450287864489008,-0.119307781448021
3.202,-0.0459546595489655,-0.11874978632841
3.204,-0.0468703735024276,-0.118190477161603
3.206,-0.0477761603837277,-0.117630087450794
3.208,-0.0486722580252011,-0.117068841062814
3.21,-0.0495589097132268,-0.11650695216031
3.212,-0.0504363638771252,-0.115944625013863
3.214,-0.0513048737857996,-0.115382053884023
3.216,-0.0521646972281314,-0.114819422933282
3.218,-0.053016096202128,-0.114256906097973
3.22,-0.0538593365948261,-0.113694667010106
3.222,-0.0546946878643571,-0.113132858849131
3.224,-0.0555224227131714,-0.112571624353637
3.226,-0.056342816768089,-0.112011095682987
3.228,-0.0571561482528553,-0.111451394368883
3.23,-0.0579626976619666,-0.110892631266871
3.232,-0.0587627474321669,-0.110334906547778
3.234,-0.059556581615217,-0.109778309609086
3.236,-0.0603444855485767,-0.109222919066245
3.238,-0.0611267455253281,-0.108668802753916
3.24,-0.0619036484637717,-0.108116017737159
3.242,-0.0626754815838051,-0.107564610252551
3.244,-0.0634425320720823,-0.107014615769246
3.246,-0.0642050867589538,-0.106466059019967
3.248,-0.0649634317901922,-0.105918954001945
3.25,-0.0657178523004992,-0.105373304007781
3.252,-0.0664871236048007,-0.104871201266262
3.254,-0.0672552909823259,-0.1043694975031
3.256,-0.0680225924204739,-0.103868076801619
3.258,-0.0687892606674671,-0.103366814363376
3.26,-0.0695555229747931,-0.10286557663872
3.262,-0.0703216008294336,-0.102364221487287
3.264,-0.0710877097018816,-0.101862598418441
3.266,-0.0718540587989493,-0.101360548761644
3.268,-0.0726208508183615,-0.100857905866768
3.27,-0.0733882817151399,-0.100354495334354
3.272,-0.0741565404697744,-0.0998501352157946
3.274,-0.074925808855184,-0.0993446362434693
3.276,-0.0756962612414656,-0.0988378020608136
3.278,-0.0764680643574283,-0.0983294294723305
3.28,-0.0772413771229189,-0.0978193086405405
3.282,-0.0780163503989315,-0.0973072233948749
3.284,-0.0787931268575039,-0.0967929514375093
3.286,-0.0795718407614006,-0.096276264618141
3.288,-0.0803526178035793,-0.0957569291957075
3.29,-0.081135574926444,-0.0952347061010502
3.292,-0.0819208201908796,-0.0947093512115215
3.294,-0.0827084525950694,-0.0941806156275384
3.296,-0.0834985619330973,-0.0936482459490802
3.298,-0.0842912287033266,-0.0931119845591365
3.3,-0.0850865239065629,-0.0925715699151
3.302,-0.085884509013993,-0.092026736834112
3.304,-0.0866852357549046,-0.0914772167893552
3.306,-0.087488746124181,-0.0909227382063011
3.308,-0.0882950721895724,-0.0903630267619094
3.31,-0.0891042360887436,-0.0897978056817804
3.312,-0.0899162498860936,-0.0892267960532664
3.314,-0.0907311155593492,-0.0886497171225382
3.316,-0.0915488248859303,-0.0880662866056124
3.318,-0.0923693594290851,-0.0874762209963381
3.32,-0.0931926905037966,-0.0868792358783473
3.322,-0.0940187791124548,-0.0862750462353701
3.324,-0.0948475759403,-0.0856633667626142
3.326,-0.0956790213306287,-0.0850439121797155
3.328,-0.0965130452697676,-0.0844163975442573
3.33,-0.0973495674318108,-0.0837805385640623
3.332,-0.0981884971331197,-0.0831360519110608
3.334,-0.0990297333965866,-0.0824826555315328
3.336,-0.0998731649256579,-0.0818200689597337
3.338,-0.10071867021812,-0.0811480136298975
3.34,-0.101566117559642,-0.080466213182927
3.342,-0.102415365077079,-0.0797743937750695
3.344,-0.103266260811532,-0.0790722843895823
3.346,-0.104118642821169,-0.0783596171343901
3.348,-0.104972339203792,-0.0776361275507366
3.35,-0.105827168229175,-0.0769015549118331
3.352,-0.106682938421139,-0.0761556425195101
3.354,-0.107539448669402,-0.0753981380018676
3.356,-0.108396488321163,-0.0746287936069343
3.358,-0.109253837342452,-0.0738473664873357
3.36,-0.110111266419231,-0.0730536189879727
3.362,-0.110968537088243,-0.0722473189327166
3.364,-0.111825401937618,-0.0714282398961205
3.366,-0.11268160466723,-0.0705961614801548
3.368,-0.113536880358806,-0.0697508695879632
3.37,-0.114390955545784,-0.0688921566786493
3.372,-0.11524354846293,-0.0680198220530925
3.374,-0.116094369195699,-0.0671336720697992
3.376,-0.116958411049352,-0.0662184686167892
3.378,-0.117834139897825,-0.0652728263845248
3.38,-0.118705490854354,-0.0643112783848835
3.382,-0.119572084149841,-0.063333728730176
3.384,-0.12043353520199,-0.0623400917222174
3.386,-0.121289454912183,-0.0613302920914518
3.388,-0.122139449952118,-0.060304265046132
3.39,-0.122983123057197,-0.0592619564815639
3.392,-0.123820073315675,-0.0582033230894113
3.394,-0.124649896476561,-0.057128332427071
3.396,-0.125472185243279,-0.0560369630871168
3.398,-0.126286529582084,-0.0549292047768188
3.4,-0.127092517031242,-0.053805058377741
3.402,-0.127889733006967,-0.0526645360754183
3.404,-0.128677761119123,-0.0515076614091195
3.406,-0.129456183486681,-0.0503344693616965
3.408,-0.130224581047951,-0.0491450063895271
3.41,-0.130982533883573,-0.0479393304725482
3.412,-0.131729621536275,-0.0467175111843908
3.414,-0.132465423326402,-0.045479629702613
3.416,-0.133189518676213,-0.0442257788190389
3.418,-0.133901487429956,-0.0429560630002035
3.42,-0.134600910177706,-0.041670598327909
3.422,-0.135287368576287,-0.0403695125598942
3.424,-0.135960445672233,-0.0390529450906215
3.426,-0.136619726222558,-0.0377210469021821
3.428,-0.13726479701712,-0.0363739805953253
3.43,-0.13789524719876,-0.0350119203006132
3.432,-0.13851066858283,-0.0336350516497041
3.434,-0.13911065597495,-0.0322435717267668
3.436,-0.139694807489714,-0.0308376890000308
3.438,-0.14026272486529,-0.0294176232434724
3.44,-0.14081401377311,-0.0279836054686401
3.442,-0.141348284136369,-0.0265358777966244
3.444,-0.141865150429311,-0.025074693430172
3.446,-0.142364231992327,-0.0236003164759466
3.448,-0.142845153330852,-0.0221130218769414
3.45,-0.143307544414078,-0.0206130952550431
3.452,-0.14375104097747,-0.0191008328337533
3.454,-0.144175284810099,-0.0175765412210626
3.456,-0.144579924048792,-0.016040537332489
3.458,-0.144964613464099,-0.0144931481942755
3.46,-0.145329014738083,-0.0129347108167522
3.462,-0.145672796748938,-0.011365571967864
3.464,-0.14599563583543,-0.00978608805686633
3.466,-0.146297216073171,-0.0081966249181916
3.468,-0.146577229534729,-0.00659755762548492
3.47,-0.146835376551573,-0.00498927028581519
3.472,-0.147071365946857,-0.00337215583406097
3.474,-0.147284915326052,-0.00174661582747189
3.476,-0.147475751289415,-0.000113060230409655
3.478,-0.147643609639321,0.00152809284073212
3.48,-0.147788235698433,0.00317641730242712
3.482,-0.147909384417739,0.00483147938973205
3.484,-0.148006820714443,0.00649283788282043
3.486,-0.148080319579717,0.00816004435132976
3.488,-0.14812966635632,0.00983264341952403
3.49,-0.148154656896088,0.011510173026269
3.492,-0.148155097767289,0.0131921646938182
3.494,-0.14813080643186,0.0148781438004133
3.496,-0.148081611422518,0.0165676298556902
3.498,-0.14800735252975,0.0182601367868995
3.5,-0.147907880938695,0.0199551732229327
3.502,-0.147725850235905,0.0216715559311582
3.504,-0.147517409186001,0.0233864065240634
3.506,-0.147282563788225,0.0250991870257078
3.508,-0.14702133296288,0.0268093594249778
3.51,-0.146733748557682,0.028516386006654
3.512,-0.146419855384008,0.030219729687278
3.514,-0.146079711113046,0.0319188543458331
3.516,-0.145713386301868,0.0336132251532238
3.518,-0.145320964359399,0.0353023089055659
3.52,-0.144902541432312,0.0369855743492817
3.522,-0.14445822645084,0.038662492511098
3.524,-0.143988140954503,0.0403325370230565
3.526,-0.143492419107766,0.041995184444722
3.528,-0.142971207575619,0.0436499145852064
3.53,-0.142424665429091,0.0452962108217908
3.532,-0.141852964060692,0.0469335604167607
3.534,-0.141256287079791,0.0485614548288466
3.536,-0.140634830187937,0.0501793900250712
3.538,-0.139988801074115,0.0517868667889079
3.54,-0.139318419239947,0.0533833910204435
3.542,-0.138623915934837,0.0549684740373578
3.544,-0.137905533941071,0.0565416328747045
3.546,-0.13716352744886,0.0581023905685085
3.548,-0.13639816189134,0.059650276453176
3.55,-0.135609713779527,0.0611848264367089
3.552,-0.134798470537233,0.0627055832837433
3.554,-0.133964730285937,0.0642120968853888
3.556,-0.133108801679626,0.0657039245318966
3.558,-0.13223100371959,0.0671806311741298
3.56,-0.1313316654992,0.0686417896798585
3.562,-0.130411126068638,0.0700869810918709
3.564,-0.129469734149611,0.0715157948658981
3.566,-0.128507847950032,0.072927829119365
3.568,-0.127525834938681,0.0743226908649543
3.57,-0.126524071569837,0.0756999962329977
3.572,-0.125502943107895,0.0770593707086848
3.574,-0.124462843321959,0.0784004493200994
3.576,-0.123404174260424,0.079722876877075
3.578,-0.122327346005535,0.0810263081778808
3.58,-0.121232776371937,0.0823104081467314
3.582,-0.120120890694214,0.0835748521191234
3.584,-0.118992121512408,0.0848193259270036
3.586,-0.117846908313542,0.086043526123763
3.588,-0.116685697252126,0.0872471601590656
3.59,-0.115508940861656,0.0884299465135052
3.592,-0.114317097770119,0.0895916148530983
3.594,-0.113110632404476,0.0907319061836098
3.596,-0.111890014700162,0.0918505729847132
3.598,-0.11065571979857,0.0929473793539888
3.6,-0.109408227748546,0.0940221010807564
3.602,-0.108148023198871,0.09507452579975
3.604,-0.106875595095764,0.0961044531146279
3.606,-0.105591436365371,0.0971116946213261
3.608,-0.104296043612269,0.0980960740712533
3.61,-0.102989916797967,0.0990574274243241
3.612,-0.101673558925424,0.0999956028918421
3.614,-0.100347475728562,0.100910461069221
3.616,-0.099012175344793,0.101801874908555
3.618,-0.0976681680035566,0.102669729841035
3.62,-0.0963159656978619,0.103513923759208
3.622,-0.0949560818695407,0.104334367079092
3.624,-0.0935890310822161,0.105130982762129
3.626,-0.0922153287026744,0.105903706307
3.628,-0.0908354905767582,0.106652485771279
3.63,-0.0894500327074641,0.107377281772943
3.632,-0.0880594709343603,0.108078067471739
3.634,-0.0866643206098131,0.108754828540392
3.636,-0.0852650962813297,0.109407563155674
3.638,-0.0838623113724194,0.110036281929327
3.64,-0.0824564778622619,0.110641007928837
3.642,-0.0810481059704018,0.111221776518062
3.644,-0.0796377038404503,0.111778635427721
3.646,-0.0782257772318104,0.112311644555736
3.648,-0.0768128292014168,0.112820875987422
3.65,-0.0753993598024909,0.113306413865553
3.652,-0.0739858657723206,0.113768354300264
3.654,-0.072572840233052,0.114206805258824
3.656,-0.0711607723885042,0.11462188650526
3.658,-0.0697501472290014,0.115013729419847
3.66,-0.0683414452372265,0.115382476898444
3.662,-0.0669351420940947,0.115728283231698
3.664,-0.0655317083996441,0.116051313974104
3.666,-0.0641316093799546,0.116351745742922
3.668,-0.0627353046180804,0.116629766126953
3.67,-0.0613432477730117,0.116885573505178
3.672,-0.059955886314651,0.117119376855246
3.674,-0.0585736612488206,0.117331395591832
3.676,-0.0571970068802868,0.117521859414847
3.678,-0.0558263505208103,0.117691008057506
3.68,-0.0544621122662224,0.117839091154256
3.682,-0.0531047047495222,0.117966367999566
3.684,-0.0517545328960035,0.118073107356565
3.686,-0.0504119936784032,0.11815958723955
3.688,-0.0490774759020814,0.118226094689339
3.69,-0.0477513600002222,0.118272925555492
3.692,-0.0464340177590679,0.11830038426038
3.694,-0.0451258121831793,0.118308783562117
3.696,-0.043827097240723,0.118298444314344
3.698,-0.0425382176887937,0.11826969522187
3.7,-0.0412595088587605,0.118222872580167
3.702,-0.0399912965116519,0.11815832002772
3.704,-0.0387338966235656,0.118076388278235
3.706,-0.0374876152411177,0.117977434860693
3.708,-0.0362527483069224,0.117861823843263
3.71,-0.0350295815151063,0.117729925563066
3.712,-0.0338183901368625,0.117582116346791
3.714,-0.0326194389360362,0.117418778231161
3.716,-0.0314329819547538,0.117240298677253
3.718,-0.0302592624590866,0.117047070278665
3.72,-0.0290985127847592,0.116839490477533
3.722,-0.027950954252896,0.116617961263401
3.724,-0.0268167970258115,0.116382888880232
3.726,-0.0256962400528473,0.116134683528377
3.728,-0.0245894709862503,0.115873759059776
3.73,-0.0234966660471024,0.115600532676826
3.732,-0.0224179900212942,0.115315424626475
3.734,-0.0213535961655539,0.115018857894371
3.736,-0.020303626163523,0.11471125789626
3.738,-0.0192682100618875,0.114393052165815
3.74,-0.0182474662365638,0.114064670051021
3.742,-0.0172415013989404,0.113726542395496
3.744,-0.0162504105121805,0.113379101233657
3.746,-0.0152742768375796,0.113022779471726
3.748,-0.0143131719009922,0.112658010583579
3.75,-0.013367155479317,0.112285228293433
3.752,-0.0125091159570486,0.111927686374379
3.754,-0.0116649716829028,0.111566786759746
3.756,-0.0108346033965031,0.111202909324315
3.758,-0.0100178821051489,0.110836428188361
3.76,-0.0092146692906498,0.110467711470542
3.762,-0.00842481706624479,0.110097121049623
3.764,-0.00764816841359362,0.109725012329039
3.766,-0.00688455737985207,0.109351734013293
3.768,-0.00613380926483433,0.108977627883194
3.77,-0.00539574089825502,0.108603028580936
3.772,-0.00467016079706772,0.108228263404004
3.774,-0.00395686943288692,0.107853652098929
3.776,-0.00325565945951146,0.107479506667872
3.778,-0.00256631595053829,0.107106131186051
3.78,-0.00188861663707838,0.106733821595997
3.782,-0.00122233215557587,0.106362865567659
3.784,-0.000567226315727197,0.105993542288338
3.786,7.69436794855801E-05,0.10562612235246
3.788,0.00071042693165895,0.105260867541191
3.79,0.00133347861771207,0.10489803074189
3.792,0.00194635970651829,0.104537855767396
3.794,0.00254933669741976,0.104180577235159
3.796,0.00314268134261375,0.103826420456217
3.798,0.00372667037442194,0.103475601283997
3.8,0.00430158522842437,0.103128326032979
3.802,0.00486771176146942,0.102784791367182
3.804,0.0054253399725442,0.102445184228513
3.806,0.00597476371151121,0.102109681704944
3.808,0.00651628040370535,0.10177845097854
3.81,0.00705019075238354,0.101451649283342
3.812,0.00757679845603444,0.101129423763084
3.814,0.00809640991553297,0.100811911518766
3.816,0.00860933394714636,0.100499239486079
3.818,0.00911588148338176,0.100191524402679
3.82,0.00961636528967835,0.0998888728153138
3.822,0.0101110996649339,0.0995913810468068
3.824,0.0106004001528686,0.0992991351428976
3.826,0.0110845832504218,0.0990122109089391
3.828,0.0115639661118737,0.0987306738764573
3.83,0.0120388662606583,0.0984545793695717
3.832,0.0125096012976332,0.0981839724212814
3.834,0.0129764886115734,0.0979188879196175
3.836,0.0134398450906793,0.0976593505236641
3.838,0.0138999868338986,0.0974053747994508
3.84,0.0143572288679014,0.0971569652057177
3.842,0.0148118848634172,0.0969141161595588
3.844,0.0152642668498833,0.0966768121419419
3.846,0.0157146849377885,0.0964450276931113
3.848,0.0161634470438216,0.0962187275778729
3.85,0.0166108586118116,0.0959978667807689
3.852,0.0170572223454632,0.0957823906811403
3.854,0.0175028379328837,0.0955722350780825
3.856,0.0179480017898946,0.0953673263752985
3.858,0.0183930067871329,0.0951675816358501
3.86,0.01883814200093,0.0949729086968117
3.862,0.0192836924509775,0.0947832063738303
3.864,0.0197299388497627,0.0945983644955951
3.866,0.0201771573607863,0.0944182641182192
3.868,0.0206256193475498,0.094242777649539
3.87,0.0210755911393137,0.0940717689833318
3.872,0.0215273337966261,0.0939050937034593
3.874,0.021981102880615,0.0937425992079378
3.876,0.0224371482280479,0.0935841249029397
3.878,0.0228957137281517,0.0934295023867316
3.88,0.0233570371261941,0.093278555603551
3.882,0.0238213497858249,0.0931311010774263
3.884,0.0242888765001714,0.0929869480559465
3.886,0.0247598352966924,0.092845898785981
3.888,0.0252344372397834,0.0927077486263574
3.89,0.025712886253138,0.0925722863284971
3.892,0.0261953789118547,0.0924392942230203
3.894,0.0266821043142997,0.0923085484483167
3.896,0.0271732438637148,0.0921798191700908
3.898,0.0276689711395728,0.0920528708158884
3.9,0.0281694517186828,0.0919274623026021
