"Freq [GHz]","re(S(Antenna1_1_1,Antenna1_1_1)) []","im(S(Antenna1_1_1,Antenna1_1_1)) []"
5,0.0189490887174807,0.154224167015866
5.006,0.0214496588991198,0.152292939485535
5.012,0.0238809366999587,0.150324261439712
5.018,0.0262449534479434,0.148322349254939
5.024,0.0285441011455176,0.146290917766693
5.03,0.0307810575636929,0.144233153875243
5.036,0.03295871066887,0.142151699214778
5.042,0.0350800831799658,0.140048641820301
5.048,0.0371482581329886,0.137925516712955
5.054,0.0391663064066031,0.135783315223461
5.06,0.041137217214124,0.133622502745846
5.066,0.0430638325802654,0.131443044447621
5.072,0.0449487867733741,0.129244438252601
5.078,0.0467944515566618,0.127025754240527
5.084,0.0486028879486507,0.12478567941997
5.09,0.0503758049640382,0.1225225667331
5.096,0.0521145255343768,0.1202344870669
5.102,0.0538199595519619,0.11791928309251
5.108,0.0554925836824153,0.115574623834401
5.114,0.0571324273945386,0.113198059062637
5.12,0.0587390644396126,0.110787072841755
5.126,0.0603116089798043,0.108339135868938
5.132,0.061848715503346,0.105851756549558
5.138,0.0633485818301364,0.103322531069267
5.144,0.0648089547010169,0.100749192991926
5.15,0.0662271377289632,0.0981296631122955
5.156,0.0676000019013375,0.095462100393307
5.162,0.068923999200434,0.0927449547918771
5.168,0.0701951803438541,0.0899770226260749
5.174,0.071409218024792,0.0871575048266417
5.18,0.0725614373334125,0.0842860680022896
5.186,0.073646855231399,0.0813629076881199
5.192,0.0746574122872534,0.0783799000375148
5.198,0.0755865380868281,0.075345347588874
5.204,0.0764293648724736,0.0722651987035878
5.21,0.0771806427880887,0.0691431095496496
5.216,0.0778353494212615,0.0659834995023309
5.222,0.0783888073798495,0.0627915519616655
5.228,0.0788368095946459,0.0595731964470952
5.234,0.0791757492564946,0.0563350689817579
5.24,0.079402750395717,0.0530844483200163
5.246,0.0795157943385279,0.0498291663486327
5.252,0.0795138366131257,0.0465774919971319
5.258,0.0793969085221547,0.0433379891802929
5.264,0.0791661974202483,0.0401193506145393
5.27,0.0788240999333776,0.0369302107427175
5.276,0.0783742428662415,0.0337789423739546
5.282,0.0778214673745544,0.0306734429594243
5.288,0.077171773127999,0.0276209175263467
5.294,0.0764322206406249,0.0246276662181781
5.3,0.0756107915851671,0.0216988849256488
5.306,0.0747162087292037,0.0188384877433356
5.312,0.0737577190090482,0.0160489597714544
5.318,0.0727448451197956,0.0133312481965819
5.324,0.0716871127404239,0.0106846985450246
5.33,0.0705937620431947,0.00810704159455842
5.336,0.0694734533620032,0.00559443468958243
5.342,0.0683339777703389,0.00314155916153246
5.348,0.0671819836899464,0.000741773352805949
5.354,0.0660227306564023,-0.00161268156863313
5.36,0.0648598807626485,-0.00393042810120604
5.366,0.0636953372935502,-0.00622065847285423
5.372,0.0625291385625775,-0.00849280947877861
5.378,0.0613685285617309,-0.0107655610576098
5.384,0.0602051375788667,-0.0130519563771258
5.39,0.0590216763326016,-0.0153508439522409
5.396,0.0578099413595066,-0.0176673998353867
5.402,0.056560684865131,-0.0200051545139123
5.408,0.0552639257304986,-0.0223658153101347
5.414,0.0539092901910202,-0.0247491486842709
5.42,0.0524863702774216,-0.0271529273075003
5.426,0.0509850873612434,-0.0295729443224017
5.432,0.049396047905895,-0.0320030947010315
5.438,0.0477108787911914,-0.0344355210249096
5.444,0.0459225303976741,-0.0368608186381998
5.45,0.0440255368419957,-0.0392682929104781
5.456,0.0420162244723675,-0.0416462594667049
5.462,0.0398928616799803,-0.0439823767432459
5.468,0.0376557453379483,-0.0462639991781464
5.474,0.0353072215323394,-0.0484785387576443
5.48,0.0328516406828892,-0.050613822548001
5.486,0.0302952494550075,-0.052658434226358
5.492,0.0276460241087218,-0.054602028443619
5.498,0.0249134518192127,-0.0564356080794488
5.504,0.0221082681922202,-0.0581517559961369
5.51,0.019242160456123,-0.0597448147063227
5.516,0.0163274466828048,-0.0612110093407042
5.522,0.0133767418925402,-0.062548511361274
5.528,0.0104026219422553,-0.0637574425366559
5.534,0.00741729578622231,-0.0648398206581483
5.54,0.00443229602746974,-0.0657994503340972
5.546,0.00145819670959632,-0.0666417638032576
5.552,-0.00149563393470793,-0.0673736180938349
5.558,-0.00442123944322488,-0.0680030559390153
5.564,-0.00731223500093368,-0.0685390386511367
5.57,-0.0101639180416739,-0.0689911596392721
5.576,-0.0129733279132126,-0.0693693474359363
5.582,-0.0157392545688798,-0.0696835670201458
5.588,-0.0184621975929339,-0.0699435278820081
5.594,-0.0211442782698131,-0.0701584067206295
5.6,-0.0237891084884323,-0.0703365919427738
5.606,-0.0264016213176847,-0.0704854562418298
5.612,-0.0289878688523118,-0.0706111625871757
5.618,-0.0315547935743031,-0.0707185078700567
5.624,-0.0341099799090949,-0.0708108073842266
5.63,-0.0366613929380343,-0.0708898222149268
5.636,-0.0392171113234952,-0.0709557304843099
5.642,-0.0417850614787069,-0.0710071423554413
5.648,-0.0443727598216538,-0.0710411576170361
5.654,-0.0469870696422997,-0.0710534637111255
5.66,-0.0496339786648927,-0.0710384711178605
5.666,-0.0523184028358774,-0.0709894821166958
5.672,-0.0550440211839775,-0.0708988882292167
5.678,-0.057813145833617,-0.0707583908739999
5.684,-0.0606266303532521,-0.0705592392567156
5.69,-0.0634838186649181,-0.0702924790179084
5.696,-0.0663825356962986,-0.0699492048718103
5.702,-0.0693191198276498,-0.0695208103131619
5.708,-0.0722884960839283,-0.068999227494637
5.714,-0.0752842878274914,-0.0683771505938846
5.72,-0.0782989636337595,-0.0676482364160176
5.726,-0.0813240149092436,-0.066807276557499
5.732,-0.0843501589156734,-0.0658503363297871
5.738,-0.087367560997771,-0.0647748565559142
5.744,-0.090366069195983,-0.0635797155794974
5.75,-0.093335454002486,-0.0622652500286748
5.756,-0.0962599902626144,-0.0608060064894914
5.762,-0.0991278577018555,-0.0592350174292519
5.768,-0.101930796700163,-0.0575583399663772
5.774,-0.104661625699734,-0.0557829668523085
5.78,-0.107314351533036,-0.0539166208140035
5.786,-0.109884240518365,-0.0519675377186849
5.792,-0.112367849684778,-0.0499442460927961
5.798,-0.114763018936184,-0.0478553504584343
5.804,-0.117068826464074,-0.0457093255348142
5.81,-0.119285510985605,-0.0435143276601028
5.816,-0.121414365574773,-0.0412780288243877
5.822,-0.123457608725438,-0.0390074775291994
5.828,-0.125418238917961,-0.0367089893477076
5.834,-0.127299879274272,-0.0343880686249731
5.84,-0.129106618850166,-0.0320493613150525
5.846,-0.130842856790771,-0.0296966375505281
5.852,-0.132513154894648,-0.0273328012791265
5.858,-0.134122103262187,-0.0249599232483835
5.864,-0.135674202546874,-0.0225792928198056
5.87,-0.137173765089924,-0.020191483558073
5.876,-0.138624835883815,-0.0177964274108289
5.882,-0.140031133001566,-0.0153934923905853
5.888,-0.141396005917216,-0.0129815591862726
5.894,-0.142722409099066,-0.0105590928419522
5.9,-0.144012887455195,-0.00812420666420247
5.906,-0.145269569708947,-0.00567471662228011
5.912,-0.146494165563439,-0.00320818579135219
5.918,-0.147687962711787,-0.000721959585979927
5.924,-0.148851820179403,0.00178680628496789
5.93,-0.149986155293815,0.00432112223910763
5.936,-0.151090922607054,0.00688414196098503
5.942,-0.152165584296698,0.00947913616722359
5.948,-0.153209072894638,0.0121094587988436
5.954,-0.154219748518657,0.0147785017112258
5.96,-0.155195354019918,0.017489634564006
5.966,-0.156132972513967,0.020246127575692
5.972,-0.157028992575554,0.0230510560624169
5.978,-0.157879086820685,0.025907187166734
5.984,-0.158678209683442,0.02881685074939
5.99,-0.159420619838502,0.0317817980889043
5.996,-0.160099931947298,0.0348030535596072
6.002,-0.160709201219073,0.0378807658307882
6.008,-0.161241042740007,0.0410140662276232
6.014,-0.161687785689232,0.0442009425805545
6.02,-0.162041660540118,0.0474381371638083
6.026,-0.162295015230201,0.0507210770877433
6.032,-0.162440554220162,0.0540438447693301
6.038,-0.162471592425106,0.0573991948258778
6.044,-0.162382314398787,0.0607786220662201
6.05,-0.16216802788472,0.0641724830832903
6.056,-0.161825400096332,0.0675701715638193
6.062,-0.161352664920308,0.0709603448000979
6.068,-0.16074978960025,0.0743311962201506
6.074,-0.160018590516822,0.0776707661620763
6.08,-0.15916278926251,0.0809672807451158
6.086,-0.15818800239714,0.0842095066952136
6.092,-0.157101660829593,0.0873871084455445
6.098,-0.155912857770663,0.0904909928937829
6.104,-0.154632127310995,0.0935136269318969
6.11,-0.153271158911665,0.0964493132512492
6.116,-0.151842456191061,0.0992944110888003
6.122,-0.15035895123392,0.102047490342202
6.128,-0.14884225576212,0.104695563845578
6.134,-0.147311329780829,0.107246368714799
6.14,-0.145769968384205,0.109722318510033
6.146,-0.144226571021462,0.112132471442504
6.152,-0.142687540830518,0.114487184154933
6.158,-0.141157068324932,0.116797714054712
6.164,-0.139636995579259,0.119075785016465
6.17,-0.138126767043921,0.121333133238128
6.176,-0.136623469508708,0.123581050995356
6.182,-0.135121960007019,0.125829946224865
6.188,-0.133615076795938,0.128088935237398
6.194,-0.132093925053267,0.13036548449126
6.2,-0.130548225866199,0.13266511527081
6.206,-0.128966714502552,0.134991182413422
6.212,-0.127337572044401,0.137344735096403
6.218,-0.125648873219911,0.139724464210686
6.224,-0.123889032839719,0.142126737209096
6.23,-0.122047233562062,0.144545717707978
6.236,-0.120113818786054,0.146973563692
6.242,-0.118080636232751,0.149400695038905
6.248,-0.115941320118921,0.151816118475024
6.254,-0.113691502668566,0.154207796026028
6.26,-0.111328948812983,0.156563041601403
6.266,-0.108853611313986,0.158868929704894
6.272,-0.106267606812375,0.161112700277933
6.278,-0.103575116578776,0.163282144412088
6.284,-0.100782218601939,0.16536595703086
6.29,-0.0978966602236325,0.167354044555042
6.296,-0.094927582496216,0.169237777914457
6.302,-0.0918852089200392,0.171010183949603
6.308,-0.0887805120028648,0.172666071070701
6.314,-0.0856248712982528,0.174202087944414
6.32,-0.0824297361654271,0.175616716755092
6.326,-0.0792063055124602,0.176910205139795
6.332,-0.0759652353525151,0.178084443142836
6.338,-0.0727163831582808,0.179142793332613
6.344,-0.0694685958961562,0.180089883575439
6.35,-0.06622954634953,0.18093137278115
6.356,-0.0630056200326181,0.181673700240203
6.362,-0.0598018527554228,0.182323828993207
6.368,-0.0566219168463875,0.18288899303543
6.374,-0.0534681522162196,0.183376457127907
6.38,-0.0503416370034761,0.183793296653168
6.386,-0.0472422914160918,0.184146203407777
6.392,-0.0441690077080638,0.184441321545651
6.398,-0.0411197988994881,0.184684116188136
6.404,-0.0380919589731711,0.18487927557692
6.41,-0.0350822276310369,0.185030646147249
6.416,-0.0320869534569631,0.185141198606332
6.422,-0.0291022502017851,0.185213022051555
6.428,-0.02612414198342,0.185247342419933
6.434,-0.023148694334067,0.185244561067528
6.44,-0.0201721291431013,0.185204309119148
6.446,-0.0171909226186006,0.185125513300466
6.452,-0.0142018863337026,0.185006469257272
6.458,-0.0112022322070047,0.184844918886603
6.464,-0.00818962285909821,0.184638128786465
6.47,-0.00516220917433556,0.184382967623893
6.476,-0.0021186570865054,0.184075980940884
6.482,0.000941834403707211,0.183713462542527
6.488,0.0040195221189242,0.183291522245098
6.494,0.00711411297388313,0.182806150199238
6.5,0.0102247624300887,0.182253278369184
6.506,0.0133708263318235,0.181632293417602
6.512,0.0165299129921326,0.180929864134076
6.518,0.0196983548353878,0.180142177920722
6.524,0.0228719968030064,0.179265801044199
6.53,0.0260462434149283,0.178297728168891
6.536,0.0292161098076918,0.177235428097042
6.542,0.0323762771153974,0.176076885369829
6.548,0.0355211524394771,0.174820637109992
6.554,0.0386449334519336,0.173465804297385
6.56,0.0417416774366513,0.17201211652361
6.566,0.0448053742882513,0.17045992921541
6.572,0.0478300227075578,0.168810232380587
6.578,0.0508097085620306,0.167064649998256
6.584,0.0537386841521714,0.165225429400313
6.59,0.0566114469440533,0.163295420191951
6.596,0.059422816216288,0.161278042547016
6.602,0.0621680060159125,0.159177244999166
6.608,0.0648426928352039,0.156997452134046
6.614,0.0674430765006516,0.154743502860375
6.62,0.0699659328708316,0.152420580182757
6.626,0.0724086571388798,0.150034133601711
6.632,0.0747692966741931,0.147589795433538
6.638,0.0770465725855397,0.145093292463922
6.644,0.0792398893529892,0.142550354434587
6.65,0.081349332089028,0.139966620918359
6.656,0.0833756511748529,0.137347548166583
6.662,0.0853202341749981,0.134698317532856
6.668,0.0871850651109661,0.132023747088143
6.674,0.0889726713205111,0.129328208051444
6.68,0.0906860582981274,0.126615547680885
6.686,0.0923286330777937,0.123889020279497
6.692,0.0939041169223356,0.121151227996635
6.698,0.0954164483001581,0.118404073096213
6.704,0.0968696773918114,0.115648723366937
6.71,0.0982678536575768,0.112885592275678
6.716,0.0996149083179658,0.11011433538279
6.722,0.100914533941337,0.107333864340247
6.728,0.102170063674215,0.104542379579768
6.734,0.103384352997835,0.10173742242013
6.74,0.104559667158021,0.0989159469164789
6.746,0.105697577685602,0.0960744112355589
6.752,0.106798871549475,0.0932088877320796
6.758,0.107863476484838,0.0903151902255891
6.764,0.108890405991884,0.087389016252444
6.77,0.109877727157277,0.0844261013318343
6.776,0.110822554076741,0.0814223815687179
6.782,0.111721069033451,0.0783741602617302
6.788,0.112568572816278,0.0752782736247344
6.794,0.113359564685105,0.0721322503297323
6.8,0.11408785145565,0.068934459320098
6.806,0.114746684090049,0.0656842403243044
6.812,0.115328919052887,0.0623820117099671
6.818,0.115827200583331,0.0590293507198122
6.824,0.116234159000609,0.0556290418451486
6.83,0.116542619246541,0.0521850899805076
6.836,0.116745813141621,0.0487026961000726
6.842,0.116837588315827,0.0451881944947181
6.848,0.116812606536253,0.0416489519634359
6.854,0.116666524192925,0.0380932308305034
6.86,0.116396148032628,0.0345300190783965
6.866,0.11599955990953,0.0309688322786729
6.872,0.115476205210085,0.0274194932341109
6.878,0.114814012559728,0.023895785828348
6.884,0.114017628840886,0.0204132906576762
6.89,0.113105903890857,0.0169786139578747
6.896,0.112085354529642,0.013599181049085
6.902,0.110963370544918,0.0102812403085594
6.908,0.109747992619079,0.00702973897347832
6.914,0.108447672201307,0.0038482415671695
6.92,0.107071021671345,0.000738893479952891
6.926,0.105626563463277,-0.00229756945439813
6.932,0.104122486777977,-0.00526176623952981
6.938,0.102566420135472,-0.0081555733626748
6.944,0.100965227318037,-0.0109819888500415
6.95,0.0993248332639716,-0.0137449630997338
6.956,0.0976500852573032,-0.0164492030136147
6.962,0.0959446533213588,-0.0190999567240779
6.968,0.0942109722268229,-0.0217027867718261
6.974,0.0924502259299903,-0.0242633397669871
6.98,0.0906623736876172,-0.0267871204484446
6.986,0.0888462156444476,-0.0292792776300957
6.992,0.0869994943425105,-0.031744408819003
6.998,0.0851190274463397,-0.0341863893600282
7.004,0.0832008661075935,-0.036608230845903
7.01,0.0812404727095171,-0.039011972282838
7.016,0.079232911363608,-0.0413986062090981
7.022,0.0771730444344141,-0.0437680406166468
7.028,0.0750557285014533,-0.0461190962857081
7.034,0.0728760035650938,-0.0484495379319423
7.04,0.0706292698865766,-0.0507561365523872
7.046,0.068311447600378,-0.0530347594689966
7.052,0.065919115110066,-0.055280483886622
7.058,0.063449623215574,-0.0574877292999156
7.064,0.0609011828923334,-0.0596504038301976
7.07,0.0582729256050756,-0.0617620594355228
7.076,0.0555649359318508,-0.0638160510769191
7.082,0.0527782571417048,-0.0658056951329435
7.088,0.049914871050553,-0.0677244227309293
7.094,0.0469776541465795,-0.069565924123656
7.1,0.0439703124497845,-0.0713242807653667
7.106,0.0408972979397913,-0.0729940823087583
7.112,0.0377637096793213,-0.0745705263216197
7.118,0.03457518288834,-0.0760494990971735
7.124,0.0313377693127324,-0.0774276364819101
7.13,0.0280578122165259,-0.0787023641656323
7.136,0.0247418192585605,-0.0798719173613458
7.142,0.0213963363943037,-0.0809353402511109
7.148,0.0180278257881423,-0.0818924659692527
7.154,0.0146425505243187,-0.082743878298158
7.16,0.0112464686873719,-0.0834908565515351
7.166,0.00784513913218902,-0.0841353054979472
7.172,0.00444364097742986,-0.0846796724227992
7.178,0.00104650854505591,-0.085126853728592
7.184,-0.00234231689271307,-0.0854800937010149
7.19,-0.00571951759278488,-0.0857428782754999
7.196,-0.00908241152346464,-0.0859188267918163
7.202,-0.0124289462068482,-0.0860115848178512
7.208,-0.0157576746936448,-0.0860247211431818
7.214,-0.0190677146812791,-0.0859616319735789
7.22,-0.0223586923270008,-0.0858254551880105
7.226,-0.0256306728383905,-0.0856189972441468
7.232,-0.0288840804107685,-0.0853446749312579
7.238,-0.032119610506777,-0.0850044736726621
7.244,-0.0353381378021601,-0.0845999234917638
7.25,-0.0385406233371176,-0.084132093077934
7.256,-0.0417232558925735,-0.0836150921618031
7.262,-0.0448955184679669,-0.0830361733624606
7.268,-0.0480580236552376,-0.0823943798715251
7.274,-0.0512110315632107,-0.0816885016698079
7.28,-0.0543544261993162,-0.0809171587555374
7.286,-0.0574877098267602,-0.0800788837568834
7.292,-0.0606100143501327,-0.079172200110855
7.298,-0.0637201279574325,-0.0781956922968269
7.304,-0.0668165344949742,-0.0771480651122578
7.31,-0.0698974624321609,-0.0760281896422703
7.316,-0.0729609398101333,-0.0748351343727544
7.322,-0.076004851306997,-0.0735681807996521
7.328,-0.0790269935042139,-0.0722268238331563
7.334,-0.0820251246236322,-0.070810758242784
7.34,-0.0849970054141382,-0.0693198532776065
7.346,-0.0879404284861823,-0.067754118369304
7.352,-0.0908532341957493,-0.0661136634387746
7.358,-0.0937333121196304,-0.0643986577312666
7.364,-0.096578588196366,-0.0626092912718326
7.37,-0.0993869986636028,-0.0607457429385145
7.376,-0.102156452947747,-0.0588081587978289
7.382,-0.10488478858588,-0.0567966437331292
7.388,-0.107569722020989,-0.0547112685657726
7.394,-0.110208799659025,-0.0525520938464291
7.4,-0.112799353862821,-0.0503192103448708
7.406,-0.115338468552001,-0.0480127950516152
7.412,-0.117822958772988,-0.0456331802994997
7.418,-0.120249367990916,-0.043180932483967
7.424,-0.122613985971932,-0.0406569358972488
7.43,-0.124912888994166,-0.0380624764390384
7.436,-0.127142002822543,-0.0353993195051594
7.442,-0.129297187456592,-0.0326697762106828
7.448,-0.131374341209283,-0.0298767523103068
7.454,-0.13336952026977,-0.0270237747433517
7.46,-0.135279068637984,-0.0241149916331224
7.466,-0.137099752276745,-0.0211551427803042
7.472,-0.138828890569244,-0.0181494991532514
7.478,-0.140464477773693,-0.0151037715186918
7.484,-0.142005287157873,-0.0120239900942057
7.49,-0.143450950900093,-0.00891635883821952
7.496,-0.14480200966468,-0.00578708963520371
7.502,-0.146059926960817,-0.00264222307106549
7.508,-0.147227064934135,0.000512556345189612
7.514,-0.148306620049248,0.00367210186994567
7.52,-0.14930251910641,0.00683197410926446
7.526,-0.150219278103773,0.00998858958386682
7.532,-0.151061828489306,0.0131393399332381
7.538,-0.151835317239052,0.0162826744621414
7.544,-0.152544888839817,0.0194181402073296
7.55,-0.153195458547838,0.022546375545363
7.556,-0.153791487154287,0.0256690554892789
7.562,-0.154336767856905,0.0287887891340502
7.568,-0.154834235676608,0.0319089720842488
7.574,-0.155285809151853,0.0350335990156399
7.58,-0.155692272825657,0.0381670436625144
7.586,-0.156053207338055,0.0413138153581639
7.592,-0.156366971844629,0.0444783026939967
7.598,-0.156630741087422,0.0476645158070664
7.604,-0.156840596855646,0.050875839197964
7.61,-0.156991670941738,0.054114806787144
7.616,-0.157078334133748,0.0573829101318238
7.622,-0.157094423437618,0.060680449369508
7.628,-0.157032670804557,0.0640146832517768
7.634,-0.15688259246577,0.0673821633924672
7.64,-0.156638022749635,0.0707695083288272
7.646,-0.156294226839408,0.0741706761380229
7.652,-0.155847508331103,0.0775787796834111
7.658,-0.155295351949625,0.0809863180691438
7.664,-0.154636513498341,0.0843854313243943
7.67,-0.153871053520814,0.0877681663119803
7.676,-0.153000313874437,0.0911267414128119
7.682,-0.152026839166387,0.0944537977025075
7.688,-0.15095424764074,0.0977426251113225
7.694,-0.149787058498814,0.100987353395126
7.7,-0.148530484669389,0.104183099578598
7.706,-0.147190201608483,0.107326065762539
7.712,-0.145772103735065,0.110413583704768
