"Freq [GHz]","re(S(Antenna1_1_1,Antenna1_1_1)) []","im(S(Antenna1_1_1,Antenna1_1_1)) []"
5,0.0161090863234807,0.152963693444666
5.006,0.0184483951371198,0.151476827706535
5.012,0.0207856083979587,0.149974007116212
5.018,0.0231260264019434,0.148449595903339
5.024,0.0254738971757176,0.146896848140193
5.03,0.0278322075487929,0.145308084385443
5.036,0.03020250438617,0.143674909075978
5.042,0.0325847542621658,0.141988463242401
5.048,0.0349772487961886,0.140239705409155
5.054,0.0373765614872031,0.138419712022461
5.06,0.039777560133624,0.136519987538846
5.066,0.0421734769713654,0.134532773442621
5.072,0.0445560365007741,0.132451345012601
5.078,0.0469156387275618,0.130270284666527
5.084,0.0492415933047507,0.12798572114367
5.09,0.0515223979386682,0.1255955247496
5.096,0.0537460524706768,0.1230994501943
5.102,0.0559003984054619,0.12049922031681
5.108,0.0579734723674153,0.117798546068601
5.114,0.0599538611195386,0.115003080421867
5.12,0.0618310453866126,0.112120306340955
5.126,0.0635957198778043,0.109159361503138
5.132,0.065240077521346,0.106130804900258
5.138,0.0667580470651364,0.103046332804367
5.144,0.0681454747894169,0.0999184536134257
5.15,0.0694002430801632,0.0967601328472955
5.156,0.0705223208928375,0.093584420838607
5.162,0.071513743721134,0.0904040764846771
5.168,0.0723785233263541,0.0872312007160749
5.174,0.073122490194042,0.0840768930836417
5.18,0.0737530742805125,0.0809509440702896
5.186,0.074279032013899,0.0778615744321199
5.192,0.0747050715930534,0.0748267078485148
5.198,0.0750493767631281,0.071844361997874
5.204,0.0753250773219636,0.0689122891515878
5.21,0.0755426647011887,0.0660298382306496
5.216,0.0757119282846615,0.0631945206093309
5.222,0.0758416393498495,0.0604022003483655
5.228,0.0759392801656459,0.0576473387310952
5.234,0.0760108275564946,0.0549232828550579
5.24,0.076060597970717,0.0522225864855163
5.246,0.0760911585625279,0.0495373502535327
5.252,0.0761033061351257,0.0468595677643319
5.258,0.0760961130161547,0.0441814641704929
5.264,0.0760670363592483,0.0414958143283393
5.27,0.0760120848083776,0.0387962287327175
5.276,0.0759260343537415,0.0360773969762546
5.282,0.0758026833529544,0.0333352804293243
5.288,0.075635135334299,0.0305672481003467
5.294,0.0754160973439349,0.0277721521141781
5.3,0.0751381812572671,0.0249503418306488
5.306,0.0747941956718037,0.0221036181963356
5.312,0.0743774167245481,0.0192351323914544
5.318,0.0738818273815156,0.0163492350755819
5.324,0.0733023163717239,0.0134512844410246
5.33,0.0726348299183947,0.0105474228625584
5.336,0.0718764716485032,0.00764433295628243
5.342,0.0710255484523389,0.00474898450833246
5.348,0.0700815625032464,0.00186838375550595
5.354,0.0690451520267023,-0.000990663877733135
5.36,0.0679179856275485,-0.00382176744100604
5.366,0.0667026169468502,-0.00661913168305423
5.372,0.0654023080391775,-0.00937769873977861
5.378,0.0640159935016309,-0.0120946488208098
5.384,0.0625479089674667,-0.0147650594528358
5.39,0.0610072925545016,-0.0173847839120809
5.396,0.0593983265866066,-0.0199524720445867
5.402,0.057724819045431,-0.0224674755609123
5.408,0.0559900786536186,-0.0249297034730347
5.414,0.0541968291204202,-0.0273394573679709
5.42,0.0523471652969216,-0.0296972559029003
5.426,0.0504425518815434,-0.0320036581541017
5.432,0.048483863235195,-0.0342590952427315
5.438,0.0464714608924914,-0.0364637190218096
5.444,0.0444053035822741,-0.0386172755763998
5.45,0.0422850830760957,-0.0407190099113781
5.456,0.0401103780199675,-0.0427676065565049
5.462,0.0378808171315803,-0.0447611689756259
5.468,0.0355962427831483,-0.0466972387158464
5.474,0.0332568660473394,-0.0485728532681443
5.48,0.0308634047597892,-0.050384639708801
5.486,0.0284171970136275,-0.052128939450258
5.492,0.0259202837043218,-0.053801957917019
5.498,0.0233754552361127,-0.0553999317405488
5.504,0.0207862592075202,-0.0569193051999369
5.51,0.018156967741523,-0.0583569071420227
5.516,0.0154925050253048,-0.0597101195237042
5.522,0.0127983375021402,-0.060977029030174
5.528,0.0100803309169553,-0.0621565539139559
5.534,0.00734457999992231,-0.0632485392462483
5.54,0.00459721789346974,-0.0642538151150972
5.546,0.00184421343959632,-0.0651742138999876
5.552,-0.000908834877707929,-0.0660125445140449
5.558,-0.00365689927522488,-0.0667725233694153
5.564,-0.00639570832093368,-0.0674586637024367
5.57,-0.00912190940367391,-0.0680761267155721
5.576,-0.0118332003892126,-0.0686305396807363
5.582,-0.0145284239850798,-0.0691277876228459
5.588,-0.0172076197859339,-0.0695737864175081
5.594,-0.0198720306398131,-0.0699742460426296
5.6,-0.0225240617669323,-0.0703344332417738
5.606,-0.0251671929616047,-0.0706589430798299
5.612,-0.0278058460771118,-0.0709514886151757
5.618,-0.0304452118011031,-0.0712147173770567
5.624,-0.0330910413855949,-0.0714500624052266
5.63,-0.0357494104396503,-0.0716576343739268
5.636,-0.0384264630674952,-0.0718361598533099
5.642,-0.0411281455040069,-0.0719829690504413
5.648,-0.0438599389056538,-0.0720940345557361
5.654,-0.0466266011232997,-0.0721640607348255
5.66,-0.0494319270658928,-0.0721866214940605
5.666,-0.0522785366648774,-0.0721543423611138
5.672,-0.0551676985809775,-0.0720591211356167
5.678,-0.058099196537617,-0.0718923799094999
5.684,-0.0610712437062521,-0.0716453400503156
5.69,-0.0640804489149181,-0.0713093108387084
5.696,-0.0671218365852986,-0.0708759818825103
5.702,-0.0701889204826499,-0.0703377092201619
5.708,-0.0732738293855283,-0.069687785159637
5.714,-0.0763674810256914,-0.0689206824218846
5.72,-0.0794597988839595,-0.0680322639750176
5.726,-0.0825399649356436,-0.067019951081499
5.732,-0.0855967001511734,-0.0658828435187871
5.738,-0.088618563564471,-0.0646217874999142
5.744,-0.091594260043043,-0.0632393886454974
5.75,-0.094512946559786,-0.0617399691756748
5.756,-0.0973428868343144,-0.0601109863794914
5.762,-0.100091584633655,-0.0583855258863519
5.768,-0.102753036938163,-0.0565732950075772
5.774,-0.105322884689734,-0.0546846271798085
5.78,-0.107798482755036,-0.0527301848089135
5.786,-0.110178915672365,-0.0507206562843849
5.792,-0.112464959379778,-0.0486664570356961
5.798,-0.114658990846184,-0.0465774442409343
5.804,-0.116764849289074,-0.0444626542193242
5.81,-0.118787654155605,-0.0423300706782028
5.816,-0.120733586437773,-0.0401864308330877
5.822,-0.122609640982638,-0.0380370751110994
5.828,-0.124423358347661,-0.0358858445567076
5.834,-0.126182545251073,-0.0337350284929731
5.84,-0.127894992953266,-0.0315853632200525
5.846,-0.129568202803371,-0.0294360808585281
5.852,-0.131209127806048,-0.0272850057811265
5.858,-0.132823938384087,-0.0251286945143835
5.864,-0.134417819560404,-0.0229626136158056
5.87,-0.135994805602824,-0.020781348846073
5.876,-0.137557656806815,-0.0185788380096289
5.882,-0.139107781568666,-0.0163486191785853
5.888,-0.140645205307616,-0.0140840856405726
5.894,-0.142168586159066,-0.0117787388485532
5.9,-0.143675275758195,-0.00942643088470247
5.906,-0.145161421899947,-0.00702158848718011
5.912,-0.146622108466439,-0.00455941148905219
5.918,-0.148051526828787,-0.00203603956797993
5.924,-0.149443171913403,0.000551317550367891
5.93,-0.150790055426415,0.00320428988520763
5.936,-0.152084928268554,0.00592329893798503
5.942,-0.153320504037098,0.00870755175492359
5.948,-0.154489675663138,0.0115550761760436
5.954,-0.155585717673837,0.0144627946212258
5.96,-0.156602467290318,0.017426632431006
5.966,-0.157534478532268,0.020441655586692
5.972,-0.158377144666554,0.0235022316624169
5.978,-0.159126785662685,0.026602207152134
5.984,-0.159780698750942,0.02973509385359
5.99,-0.160337171663272,0.0328942568591043
5.996,-0.160795459610298,0.0360730968399072
6.002,-0.161155728459173,0.0392652197396883
6.008,-0.161418967863807,0.0424645876992232
6.014,-0.161586879213232,0.0456656459723445
6.02,-0.161661744161118,0.0488634217293083
6.026,-0.161646280158401,0.0520535919383433
6.032,-0.161543489745262,0.05523251890013
6.038,-0.161356510489306,0.0583972534381778
6.044,-0.161088472189787,0.0615455071553201
6.05,-0.16074236750462,0.0646755964920903
6.056,-0.160320941385632,0.0677863625134193
6.062,-0.159826603723308,0.0708770713567979
6.068,-0.15926136843805,0.0739473010477506
6.074,-0.158626820949122,0.0769968209030763
6.08,-0.15792411457821,0.0800254699720158
6.086,-0.15715399505153,0.0830330408978136
6.092,-0.156316850917463,0.0860191752263445
6.098,-0.155412786459963,0.0889832755555829
6.104,-0.154441712607285,0.0919244390375969
6.11,-0.153403450471565,0.0948414156548492
6.116,-0.152297841538161,0.0977325934400003
6.122,-0.15112485818742,0.100596011451602
6.128,-0.14988709550552,0.103423871976178
6.134,-0.148586967448229,0.106214278516799
6.14,-0.147223659863905,0.108970625260533
6.146,-0.145798531729962,0.111690635579604
6.152,-0.144313351148418,0.114372148053633
6.158,-0.142770270619632,0.117013226955292
6.164,-0.141171775373459,0.119612265202065
6.17,-0.139520607019521,0.122168073738428
6.176,-0.137819666057308,0.124679951943466
6.182,-0.136071897902319,0.127147734549665
6.188,-0.134280167982838,0.129571811671398
6.194,-0.132447132102567,0.13195311982126
6.2,-0.130575108612799,0.13429310318561
6.206,-0.128665958986952,0.136593645865622
6.212,-0.126720983124041,0.138856977211403
6.218,-0.124740835147511,0.141085553707586
6.224,-0.122725464629819,0.143281922058096
6.23,-0.120674087103162,0.145448569100978
6.236,-0.118585186452554,0.147587764933
6.242,-0.116456550399971,0.149701406060905
6.248,-0.114285338819321,0.151790865573024
6.254,-0.112068183158766,0.153856857162328
6.26,-0.109801313839183,0.155899319350803
6.266,-0.107480711215686,0.157917325537944
6.272,-0.105102274591375,0.159909024486733
6.278,-0.102662002902776,0.161871614642388
6.284,-0.100156180097939,0.16380135431106
6.29,-0.0975815579296325,0.165693608271542
6.296,-0.094935528887216,0.167542929882357
6.302,-0.0922162823170392,0.169343176292423
6.308,-0.0894229373857648,0.171087652995201
6.314,-0.0865556474117528,0.172769282755414
6.32,-0.0836156712296271,0.174380792938792
6.326,-0.0806054084771602,0.175914914521095
6.332,-0.0775283971716151,0.177364585583836
6.338,-0.0743892733448808,0.178723151928613
6.344,-0.0711936940213562,0.179984557575439
6.35,-0.06794822618323,0.18114351832515
6.356,-0.0646602056664181,0.182195672278203
6.362,-0.0613375710160128,0.183137702101007
6.368,-0.0579886782090875,0.18396742500023
6.374,-0.0546221027767196,0.184683847585807
6.38,-0.0512464362046761,0.185287184194375
6.386,-0.0478700835590918,0.185778838588877
6.392,-0.0445010690700638,0.186161350324051
6.398,-0.0411468559304881,0.186438308285936
6.404,-0.0378141858661711,0.18661423505332
6.41,-0.0345089431220369,0.186694446636549
6.416,-0.0312360464685631,0.186684892863832
6.422,-0.0279993716834851,0.186591984151925
6.428,-0.02480170575402,0.186422410618033
6.434,-0.021644732901867,0.186182959455928
6.44,-0.0185290513702533,0.185880336236848
6.446,-0.0154542189373006,0.185520995316466
6.452,-0.0124188242430026,0.185110983871272
6.458,-0.00942058034610473,0.184655803310603
6.464,-0.00645643642779821,0.184160290890465
6.47,-0.00352270330643556,0.183628523470893
6.476,-0.0006151883566054,0.183063744397084
6.482,0.00227066445376521,0.182468313617327
6.488,0.00513963337822421,0.181843680364498
6.494,0.00799658008918313,0.181190377062838
6.5,0.0108463162334887,0.180508032592784
6.506,0.0137044146738235,0.179822930490602
6.512,0.0165718393011326,0.179102001022576
6.518,0.0194517250553878,0.178340882995522
6.524,0.0223464541530064,0.177534677036599
6.53,0.0252576027869283,0.176678059593591
6.536,0.0281859031793918,0.175765398103742
6.542,0.0311312196945974,0.174790865761829
6.548,0.0340925377417771,0.173748554792392
6.554,0.0370679642912336,0.172632587566385
6.56,0.0400547390638513,0.17143722523221
6.566,0.0430492557656213,0.17015697376041
6.572,0.0460470930436578,0.168786687394587
6.578,0.0490430552202306,0.167321669458256
6.584,0.0520312231392714,0.165757770322313
6.59,0.0550050157144533,0.164091482034951
6.596,0.057957262857888,0.162320028778116
6.602,0.0608802905336125,0.160441451881766
6.608,0.0637660184826139,0.158454687685846
6.614,0.0666060709249517,0.156359636127875
6.62,0.0693919001019316,0.154157217559057
6.626,0.0721149219798798,0.151849415040868
6.632,0.0747666627861931,0.149439299232038
6.638,0.0773389143225397,0.146931033012922
6.644,0.0798238952789892,0.144329853194187
6.65,0.082214415002028,0.141642027065859
6.656,0.0845040355612529,0.138874782115683
6.662,0.0866872273449981,0.136036208018756
6.668,0.0887595130632661,0.133135130909163
6.674,0.0907175947973111,0.130180960977444
6.68,0.0925594587592274,0.127183515544285
6.686,0.0942844526758837,0.124152820896497
6.692,0.0958933312125356,0.121098897276635
6.698,0.0973882656034581,0.118031532431213
6.704,0.0987728146349114,0.114960050014937
6.71,0.100051855305577,0.111893079830678
6.716,0.101231472828066,0.10883833732519
6.722,0.102318811088437,0.105802419968347
6.728,0.103321886178815,0.102790627996168
6.734,0.104249367109635,0.0998068165908303
6.74,0.105110329218821,0.0968532858149789
6.746,0.105913987067602,0.0939307136265989
6.752,0.106669414674475,0.0910381359657796
6.758,0.107385261745838,0.0881729764376891
6.764,0.108069475074884,0.085331126427144
6.77,0.108729034427277,0.0825070747211343
6.776,0.109369712064741,0.0796940839032179
6.782,0.109995864501051,0.0768844090455302
6.788,0.110610264187778,0.0740695525794344
6.794,0.111213977617105,0.0712405477765323
6.8,0.11180629482105,0.068388262081098
6.806,0.112384713553439,0.0655037106453044
6.812,0.112944979527987,0.0625783698839671
6.818,0.113481182145831,0.0596044806948122
6.824,0.113985903162909,0.0565753312471486
6.83,0.114450413854541,0.0534855098255076
6.836,0.114864914472921,0.0503311192330726
6.842,0.115218808271827,0.0471099455526181
6.848,0.115501001130853,0.0438215756706359
6.854,0.115700216899625,0.0404674597794034
6.86,0.115805318052628,0.0370509170247465
6.866,0.11580562110853,0.0335770844992729
6.872,0.115691196547085,0.0300528117729109
6.878,0.115438858426728,0.026469575543548
6.884,0.115034261981886,0.0228441238736762
6.89,0.114485193820857,0.0192080210218747
6.896,0.113789634580142,0.015574273733285
6.902,0.112947469506818,0.0119559246947594
6.908,0.111960432452579,0.00836574159947832
6.914,0.110831998353107,0.0048159273506695
6.92,0.109567230028445,0.00131785990195289
6.926,0.108172586530077,-0.00211813119639813
6.932,0.106655701288477,-0.00548294613452981
6.938,0.105025139004872,-0.0087688504556748
6.944,0.103290140549037,-0.0119695631830415
6.95,0.101460365019472,-0.0150802975833338
6.956,0.0995456376699032,-0.0180977563873147
6.962,0.0975557116543588,-0.0210200849322779
6.968,0.0955000504434229,-0.0238467869953261
6.974,0.0933876364982903,-0.0265786092052871
6.98,0.0912268103305172,-0.0292174006631446
6.986,0.0890251425424476,-0.0317659548437957
6.992,0.0867893398955105,-0.034227840948003
6.998,0.0845251849643397,-0.0366072316323282
7.004,0.0822375075752935,-0.038908733520903
7.01,0.0799301850412171,-0.041137226118838
7.016,0.077606167275708,-0.0432977137336981
7.022,0.0752675221673141,-0.0453951938753468
7.028,0.0729154962250133,-0.0474345443695081
7.034,0.0705505854043938,-0.0494204301710423
7.04,0.0681726111939766,-0.0513572296641872
7.046,0.065780797521178,-0.0532489791465966
7.052,0.063373844687466,-0.055099333268622
7.058,0.0609499974072739,-0.0569115384843156
7.064,0.0585071050003334,-0.0586884160857976
7.07,0.0560426728330756,-0.0604323511960228
7.076,0.0535539051505508,-0.0621452841167191
7.082,0.0510377404042048,-0.0638287007508435
7.088,0.048490881088053,-0.0654836193599093
7.094,0.0459098207468195,-0.067110571630156
7.1,0.0432908713428845,-0.0687095769265667
7.106,0.0406301943995913,-0.0702801095917583
7.112,0.0379238393375213,-0.0718210601748197
7.118,0.0351677921469399,-0.0733306924681735
7.124,0.0323580370289324,-0.0748065991706101
7.13,0.0294906328854259,-0.0762456597446323
7.136,0.0265618056146605,-0.0776440046573458
7.142,0.0235680560912137,-0.0789969905267109
7.148,0.0205062825487423,-0.0802991908203527
7.154,0.0173739148987187,-0.081544406540258
7.16,0.0141690573713719,-0.0827257008948351
7.166,0.010890634820189,-0.0838354612111472
7.172,0.00753853713722986,-0.0848654903670992
7.178,0.00411375558465591,-0.085807128836192
7.184,0.000618504402786933,-0.0866514071005148
7.19,-0.00294367901788488,-0.0873892267194999
7.196,-0.00656786193936464,-0.0880115669067163
7.202,-0.0102476780510482,-0.0885097119565212
7.208,-0.0139753283824448,-0.0888754935643818
7.214,-0.0177416253728791,-0.0891015408965789
7.22,-0.0215360827579008,-0.0891815302852105
7.226,-0.0253470523085905,-0.0891104258024468
7.232,-0.0291619067410685,-0.0888847015860579
7.238,-0.032967266286577,-0.0885025368342621
7.244,-0.0367492645870601,-0.0879639747340638
7.25,-0.0404938478366176,-0.087271037373234
7.256,-0.0441458082837735,-0.0863926598962031
7.262,-0.0477227321923469,-0.0853822825991606
7.268,-0.0512147045066876,-0.0842503385817251
7.274,-0.0546134619689107,-0.0830086111239079
7.28,-0.0579126188197162,-0.0816699594978254
7.286,-0.0611078450144602,-0.0802480044259834
7.292,-0.0641969895201328,-0.078756781832855
7.298,-0.0671801429309325,-0.0772103749034269
7.304,-0.0700596355321742,-0.0756225354951578
7.31,-0.0728399690572609,-0.0740063066503703
7.316,-0.0755276825255333,-0.0723736581825543
7.322,-0.078131154836797,-0.0707351471875521
7.328,-0.0806603489249139,-0.0690996147398863
7.334,-0.0831265043346322,-0.06747392905318
7.34,-0.0855417869206382,-0.0658627840416064
7.346,-0.0879189059139823,-0.064268560525404
7.352,-0.0902707098333493,-0.0626912553804746
7.358,-0.0926097735588304,-0.0611284817731666
7.364,-0.094947989309566,-0.0595755413523326
7.37,-0.0972961742824028,-0.0580255669268145
7.376,-0.0996637072651474,-0.0564697318695289
7.382,-0.10205820570178,-0.0548975203323292
7.388,-0.104485253445389,-0.0532970503194726
7.394,-0.106948187867225,-0.0516554399916291
7.4,-0.109447953117341,-0.0499592061295708
7.406,-0.111983024233321,-0.0481946826486152
7.412,-0.114549404560688,-0.0463484464184997
7.418,-0.117140696616616,-0.044407737414967
7.424,-0.119748244225632,-0.0423608604281488
7.43,-0.122361341492066,-0.0401975561856384
7.436,-0.124967502132043,-0.0379093307437594
7.442,-0.127552780816892,-0.0354897333753828
7.448,-0.130102136593083,-0.0329345748495068
7.454,-0.13259982725658,-0.0302420799328517
7.46,-0.135029822651084,-0.0274129700047324
7.466,-0.137376224426945,-0.0244504739224542
7.472,-0.139623679722444,-0.0213602674934514
7.478,-0.141757776581293,-0.0181503440893918
7.484,-0.143765409634473,-0.0148308210634057
7.49,-0.145635105676293,-0.0114136884866195
7.496,-0.14735730014448,-0.00791250840310371
7.502,-0.148924557161317,-0.00434207418156549
7.508,-0.150331727669235,-0.000718040548010388
7.514,-0.151576042172348,0.00294346439064567
7.52,-0.15265713664046,0.00662623355456446
7.526,-0.153577012215073,0.0103143701870668
7.532,-0.154339931323006,0.0139926609404381
7.538,-0.154952254652252,0.0176469224112414
7.544,-0.155422225124717,0.0212643118642296
7.55,-0.155759706403538,0.024833594213563
7.556,-0.155975884617687,0.0283453588790789
7.562,-0.156082942825105,0.0317921818261502
7.568,-0.156093718223708,0.0351687299134488
7.574,-0.156021352304353,0.0384718064410499
7.58,-0.155878943964357,0.0417003386463144
7.586,-0.155679215143954,0.0448553095270639
7.592,-0.155434197782729,0.0479396379805967
7.598,-0.155154949902222,0.0509580125611664
7.604,-0.154851307400746,0.053916685332564
7.61,-0.154531676794938,0.056823233132544
7.616,-0.154202872688248,0.0596862941958238
7.622,-0.153870002211518,0.062515288359808
7.628,-0.153562593536417,0.0653187552250768
7.634,-0.15328139631157,0.0681179411136671
7.64,-0.152997162670135,0.0709274162535272
7.646,-0.152705081469608,0.0737557422367229
7.652,-0.152399037837603,0.0766104056491111
7.658,-0.152071821129325,0.0794976661623438
7.664,-0.151715345405441,0.0824224420717943
7.67,-0.151320876040014,0.0853882330416803
7.676,-0.150879256559137,0.0883970788150519
7.682,-0.150381130369387,0.0914495517679975
7.688,-0.14981715277294,0.0945447804584225
7.694,-0.149178189466284,0.097680500824726
7.7,-0.148455498527889,0.100853131302798
7.706,-0.147640893751283,0.104057867983739
7.712,-0.146726887961565,0.107288795938768
