"Freq [GHz]","re(S(Antenna1_1_1,Antenna1_1_1)) []","im(S(Antenna1_1_1,Antenna1_1_1)) []"
5,0.0190579893034807,0.153633930189666
5.006,0.0214472687511198,0.151700673026536
5.012,0.0237708038419587,0.149751163814212
5.018,0.0260346959828434,0.147788029290939
5.024,0.0282448778989176,0.145812615791693
5.03,0.0304068935256929,0.143825121378243
5.036,0.03252572211716,0.141824762322778
5.042,0.0346056510890658,0.139809961610301
5.048,0.0366501989538886,0.137778546883955
5.054,0.0386620866378031,0.135727945650461
5.06,0.040643252674224,0.133655366770846
5.066,0.0425949053943654,0.131557959041621
5.072,0.0445176034377741,0.129432939937901
5.078,0.0464113547461618,0.127277690194927
5.084,0.0482757237706507,0.12508981267487
5.09,0.0501099368890382,0.1228671566428
5.096,0.0519129769573768,0.1206078111146
5.102,0.0536836594559619,0.11831007306183
5.108,0.0554206846754153,0.115972397909301
5.114,0.0571226627145386,0.113593340807267
5.12,0.0587881105036126,0.111171497566955
5.126,0.0604154225808043,0.108705453892538
5.132,0.062002819584346,0.106193750658958
5.138,0.0635482804026365,0.103634871554367
5.144,0.0650494654333169,0.101027257499926
5.15,0.0665036393247632,0.0983693501002955
5.156,0.0679076019411375,0.095659663951307
5.162,0.069257635992734,0.0928968853408771
5.168,0.0705494788935241,0.0900799925960749
5.174,0.071778324983742,0.0872083914876417
5.18,0.0729388623907125,0.0842820575752896
5.186,0.074025346617199,0.0813016764491199
5.192,0.0750266856363534,0.0782607340215148
5.198,0.0759372695740281,0.075168725824874
5.204,0.0767524789664736,0.0720327039004878
5.21,0.0774667658780887,0.0688578732938496
5.216,0.0780751203462615,0.0656504183463309
5.222,0.0785732681788495,0.0624174277199655
5.228,0.0789578551576459,0.0591667764091752
5.234,0.0792266079864946,0.0559069681086579
5.24,0.079378463316717,0.0526469434871163
5.246,0.0794136576735279,0.0493958617881327
5.252,0.0793337730131257,0.0461628646214319
5.258,0.0791417347651547,0.0429568317552929
5.264,0.0788417615261483,0.0397861391355393
5.27,0.0784392678346775,0.0366584292247175
5.276,0.0779407236462415,0.0335804030749546
5.282,0.0773534760161544,0.0305576424894243
5.288,0.076685540090199,0.0275944690543467
5.294,0.0759453676544349,0.0246938451051781
5.3,0.0751416022008671,0.0218573197176488
5.306,0.0742828297017037,0.0190850208183356
5.312,0.0733773340602482,0.0163756925874544
5.318,0.0724328655957956,0.0137267755485819
5.324,0.0714564299164239,0.0111345252322246
5.33,0.0704541033561947,0.00859416406975842
5.336,0.0694308796890031,0.00610006036028243
5.342,0.0683905514223389,0.00364592761243246
5.348,0.0673356274839464,0.00122503745300595
5.354,0.0662672877694023,-0.00116956055223313
5.36,0.0651853738506485,-0.00354481838510604
5.366,0.0640884141515502,-0.00590747396425423
5.372,0.0629736811785775,-0.00826384528977861
5.378,0.0618434183217309,-0.0106293849856098
5.384,0.0606880403873667,-0.0130115178891258
5.39,0.0594934322127016,-0.0154040944162409
5.396,0.0582525498781066,-0.0178084590763867
5.402,0.056958070926651,-0.0202247104329123
5.408,0.0556025852677186,-0.0226516754431347
5.414,0.0541787862872202,-0.0250869096412709
5.42,0.0526796596076216,-0.0275267226335003
5.426,0.0510986670742434,-0.0299662284084017
5.432,0.049429923523895,-0.0323994200570315
5.438,0.0476683637461914,-0.0348192685099096
5.444,0.0458098967956741,-0.0372178447899998
5.45,0.0438515444919957,-0.0395864650548781
5.456,0.0417915606473675,-0.0419158572767049
5.462,0.0396295273059803,-0.0441963478092259
5.468,0.0373664241549483,-0.0464180653409464
5.474,0.0350046673523394,-0.0485711588371443
5.48,0.0325481143118892,-0.050646025120001
5.486,0.0300020315740075,-0.052633540766358
5.492,0.0273730237417218,-0.054525292104619
5.498,0.0246689225931127,-0.0563137963714488
5.504,0.0218986368640202,-0.0579927065521369
5.51,0.019071964717423,-0.0595569922673227
5.516,0.0161993725952948,-0.0610030891927042
5.522,0.0132917458035402,-0.062329010065274
5.528,0.0103601177684553,-0.0635344112886559
5.534,0.00741538629862231,-0.0646206104771483
5.54,0.00446802629646974,-0.0655905519800972
5.546,0.00152780909259632,-0.0664487193802576
5.552,-0.00139646112070793,-0.0672009961058349
5.558,-0.00429718348822488,-0.0678544775419153
5.564,-0.00716815975593368,-0.0684172401730367
5.57,-0.0100047482196739,-0.0688980753583721
5.576,-0.0128039656522126,-0.0693061970453363
5.582,-0.0155645325158798,-0.0696509341076458
5.588,-0.0182868590999339,-0.0699414188690081
5.594,-0.0209729727228131,-0.0701862837276296
5.6,-0.0236263886544323,-0.0703933775807738
5.606,-0.0262519298746847,-0.0705695129628299
5.612,-0.0288555029992118,-0.0707202534951757
5.618,-0.0314438395692031,-0.0708497494610567
5.624,-0.0340242133417949,-0.0709606271452266
5.63,-0.0366041451083303,-0.0710539351589268
5.636,-0.0391911069006952,-0.0711291484053099
5.642,-0.0417922371866069,-0.0711842277694413
5.648,-0.0444140778264538,-0.0712157312450361
5.654,-0.0470623422202997,-0.0712189700141255
5.66,-0.0497417223008928,-0.0711882012998605
5.666,-0.0524557399148774,-0.0711168484966958
5.672,-0.0552066458489775,-0.0709977383433167
5.678,-0.057995367363617,-0.0708233447373999
5.684,-0.0608215028072521,-0.0705860291399156
5.69,-0.0636833597869181,-0.0702782684080084
5.696,-0.0665780315702986,-0.0698928622220103
5.702,-0.0695015050256498,-0.0694231139377619
5.708,-0.0724487924929283,-0.068862980598637
5.714,-0.0754140795664914,-0.0682071898458846
5.72,-0.0783908809067595,-0.0674513234370176
5.726,-0.0813721967273436,-0.066591868925499
5.732,-0.0843506636238734,-0.0656262425937871
5.738,-0.087318694722371,-0.0645527879659142
5.744,-0.090268605631943,-0.0633707550144974
5.75,-0.093192724330986,-0.0620802655226748
5.756,-0.0960801772162144,-0.0606575539754914
5.762,-0.0989199545477555,-0.0591306681852519
5.768,-0.101705397034863,-0.0575034713163772
5.774,-0.104430382710734,-0.0557804104733085
5.78,-0.107089357614036,-0.0539664471000035
5.786,-0.109677362272365,-0.0520669944548849
5.792,-0.112190057480778,-0.0500878604958961
5.798,-0.114623751885184,-0.0480351935379342
5.804,-0.116975432742074,-0.0459154273820242
5.81,-0.119242799867605,-0.0437352223494828
5.816,-0.121424301489773,-0.0415013988015877
5.822,-0.123519169478438,-0.0392208602630994
5.828,-0.125527450413961,-0.0369005041534076
5.834,-0.127450028210273,-0.0345471192989731
5.84,-0.129288633659166,-0.0321672707540525
5.846,-0.131045836274671,-0.0297671738995281
5.852,-0.132725014281648,-0.0273525611901265
5.858,-0.134330299415587,-0.0249285462083835
5.864,-0.135866494370504,-0.0224994906788056
5.87,-0.137338962204594,-0.020068880827073
5.876,-0.138753488612915,-0.0176392197568289
5.882,-0.140116119678266,-0.0152119423845853
5.888,-0.141432979353416,-0.0127873589422726
5.894,-0.142710072416066,-0.0103646320579522
5.9,-0.143953079861195,-0.00794179110020247
5.906,-0.145167154579947,-0.00551578584248011
5.912,-0.146356725636439,-0.00308257968155219
5.918,-0.147525319472787,-0.000637280755179926
5.924,-0.148675405944403,0.00182569259546789
5.93,-0.149808276186815,0.00431241728680763
5.936,-0.150923958074054,0.00682924864238503
5.942,-0.152021173406698,0.00938258914832359
5.948,-0.153097339200638,0.0119786514861436
5.954,-0.154148613455657,0.0146232248262258
5.96,-0.155169983886918,0.017321453221006
5.966,-0.156155396218968,0.020077634360692
5.972,-0.157097917016154,0.0228950459504169
5.978,-0.157989924654085,0.025775805690734
5.984,-0.158823321037872,0.02872076923139
5.99,-0.159589756065772,0.0317294687769043
5.996,-0.160280856646898,0.0348000932456072
6.002,-0.160888452295173,0.0379295091687882
6.008,-0.161404789908807,0.0411133199126232
6.014,-0.161822731245232,0.0443459595065545
6.02,-0.162135927734118,0.0476208162488083
6.026,-0.162338968589201,0.0509303805615433
6.032,-0.162427499505162,0.0542664111527301
6.038,-0.162398310619106,0.0576201134925778
6.044,-0.162249393580787,0.0609823248608601
6.05,-0.16197996871472,0.0643437007085903
6.056,-0.161590484039332,0.0676948977721193
6.062,-0.161082588533308,0.0710267501712979
6.068,-0.16045908235125,0.0743304355631506
6.074,-0.159723846794822,0.0775976292190763
6.08,-0.15888175670951,0.0808206445921158
6.086,-0.15793857771434,0.0839925594782136
6.092,-0.156900850267393,0.0871073272565445
6.098,-0.155775762195263,0.0901598728057829
6.104,-0.154571010922905,0.0931461727218969
6.11,-0.153294656384565,0.0960633192202492
6.116,-0.151954965478561,0.0989095668188003
6.122,-0.15056024899692,0.101684360527202
6.128,-0.14912529581412,0.104376952984578
6.134,-0.147662914750829,0.106992515252799
6.14,-0.146174646009205,0.109547704922033
6.146,-0.144665921468462,0.112047794068304
6.152,-0.143141115829518,0.114498773845033
6.158,-0.141603434687932,0.116907190087092
6.164,-0.140054825522259,0.119279958377465
6.17,-0.138495916163921,0.121624161311728
6.176,-0.136925985048708,0.123946831858356
6.182,-0.135342967050019,0.126254727881865
6.188,-0.133743497789938,0.128554103991398
6.194,-0.132122998165267,0.13085048777126
6.2,-0.130475799361399,0.13314846814281
6.206,-0.128795306972752,0.135451503865422
6.212,-0.127074201098541,0.137761760169403
6.218,-0.125304667462561,0.140079980973686
6.224,-0.123478652936519,0.142405403223096
6.23,-0.121588137334662,0.144735718536978
6.236,-0.119625412156554,0.147067085663
6.242,-0.117583356148751,0.149394195234905
6.248,-0.115455697212921,0.151710386148024
6.254,-0.113237250333566,0.154007810643328
6.26,-0.110924121892983,0.156277642943003
6.266,-0.108513871884986,0.158510324281544
6.272,-0.106005627180375,0.160695835396733
6.278,-0.103400140999776,0.162823986212588
6.284,-0.100699796018939,0.16488471154646
6.29,-0.0979085509786325,0.166868361327942
6.296,-0.095031833126216,0.168765974024457
6.302,-0.0920763812210392,0.170569522729603
6.308,-0.0890500459157648,0.172272124640701
6.314,-0.0859615561799528,0.173868206385414
6.32,-0.0828202617427271,0.175353619733092
6.326,-0.0796358623900602,0.176725704527795
6.332,-0.0764181352431951,0.177983298151836
6.338,-0.0731766708740808,0.179126693182613
6.344,-0.0699206283132562,0.180157547221439
6.35,-0.06665851772543,0.18107875080315
6.356,-0.0633980178536181,0.181894260966203
6.362,-0.0601458333624228,0.182608909161007
6.368,-0.0569075950813875,0.18322819288813
6.374,-0.0536878039552196,0.183758060560207
6.38,-0.0504898174074761,0.184204698722075
6.386,-0.0473158749360918,0.184574329935277
6.392,-0.0441671581280638,0.184873028398151
6.398,-0.0410438790884881,0.185106558851236
6.404,-0.0379453904581711,0.18528024259312
6.41,-0.0348703098840369,0.185398852638549
6.416,-0.0318166519045631,0.185466538288332
6.422,-0.0287819607604851,0.185486777776555
6.428,-0.02576343850272,0.185462356281933
6.434,-0.022758063953467,0.185395365570528
6.44,-0.0197626993791533,0.185287220810148
6.446,-0.0167741831622006,0.185138689854466
6.452,-0.0137894081060726,0.184949930360272
6.458,-0.0108053862546047,0.184720530561603
6.464,-0.0078193021154982,0.184449550244465
6.47,-0.00482855691493556,0.184135559483893
6.476,-0.0018308069158054,0.183776673717084
6.482,0.00117600110670721,0.183370584946327
6.488,0.00419359439992421,0.182914589847098
6.494,0.00722333653088313,0.182405616552438
6.5,0.0102661859760887,0.181840252510384
6.506,0.0133421141628235,0.181223928667102
6.512,0.0164337989141326,0.180537813652656
6.518,0.0195394928273878,0.179777326739322
6.524,0.0226567858690064,0.178937943077999
6.53,0.0257825941209283,0.178015279427791
6.536,0.0289131597593918,0.177005188034342
6.542,0.0320440654465974,0.175903856793429
6.548,0.0351702658260771,0.174707912831992
6.554,0.0382861380910336,0.173414525789385
6.56,0.0413855525788513,0.17202150648161
6.566,0.0444619632213213,0.17052739626741
6.572,0.0475085164667178,0.168931542466587
6.578,0.0505181760918306,0.167234155445256
6.584,0.0534838602341714,0.165436343636313
6.59,0.0563985860608533,0.163540123652951
6.596,0.059255616832288,0.161548403754116
6.602,0.0620486057558125,0.159464940187766
6.608,0.0647717309872039,0.157294267257446
6.614,0.0674198164316517,0.155041603232775
6.62,0.0699884335978316,0.152712735429357
6.626,0.0724739806428798,0.150313888754668
6.632,0.0748737358171931,0.147851582775808
6.638,0.0771858837755397,0.145332482812622
6.644,0.0794095144829892,0.142763250691887
6.65,0.081544595722028,0.140150400614759
6.656,0.0835919213772529,0.137500165106683
6.662,0.0855530386289981,0.134818375276056
6.668,0.0874301579680661,0.132110358672143
6.674,0.0892260504043111,0.129380856961444
6.68,0.0909439364178274,0.126633964528885
6.686,0.0925873711184837,0.123873088005497
6.692,0.0941601296873256,0.121100925770635
6.698,0.0956660965918582,0.118319465611213
6.704,0.0971091613035114,0.115529998163937
6.71,0.0984931223950768,0.112733143390678
6.716,0.0998216010201658,0.10992888725019
6.722,0.101097963955337,0.107116625899347
6.728,0.102325255688215,0.104295215121968
6.734,0.103506138507835,0.10146302326423
6.74,0.104642839258021,0.0986179865842789
6.746,0.105737101340602,0.0957576666716989
6.752,0.106790140736475,0.0928793102405096
6.758,0.107802605219838,0.0899799121831891
6.764,0.108774536501884,0.087056283177844
6.77,0.109705335750277,0.0841051233304343
6.776,0.110593733700741,0.0811231032747179
6.782,0.111437767288051,0.0781069538401302
6.788,0.112234765393978,0.0750535648277344
6.794,0.112981346743305,0.0719600926557323
6.8,0.11367343324205,0.068824075690098
6.806,0.114306281983739,0.0656435550343044
6.812,0.114874538806077,0.0624171974989671
6.818,0.115372315611431,0.0591444164838122
6.824,0.115793292709709,0.0558254856921486
6.83,0.116130846236241,0.0524616399945076
6.836,0.116378199312521,0.0490551575070726
6.842,0.116528594125827,0.0456094170036181
6.848,0.116575480613253,0.0421289252596359
6.854,0.116512716023925,0.0386193097711034
6.86,0.116334768437628,0.0350872735031465
6.866,0.11603691637653,0.0315405098465729
6.872,0.115615436106085,0.0279875777205609
6.878,0.115053697870728,0.024437205878048
6.884,0.114350613264886,0.0209056398721762
6.89,0.113522130019857,0.0174054807268747
6.896,0.112571816316142,0.013946269525085
6.902,0.111504576770818,0.0105369082185594
6.908,0.110326528542579,0.00718542944547832
6.914,0.109044834253907,0.0038987914871695
6.92,0.107667497205045,0.000682706965952891
6.926,0.106203126102877,-0.00245848736139813
6.932,0.104660678057927,-0.00552191406152981
6.938,0.103049189645872,-0.0085061880056748
6.944,0.101377506460037,-0.0114113973590415
6.95,0.0996540216826716,-0.0142390332823338
6.956,0.0978864338093032,-0.0169918712923147
6.962,0.0960815327813588,-0.0196738093112779
6.968,0.0942450224508229,-0.0222896692245261
6.974,0.0923813856509903,-0.0248449702667871
6.98,0.0904937961506172,-0.0273456835917446
6.986,0.0885840797164476,-0.0297979779571607
6.992,0.0866527242895105,-0.032207966562503
6.998,0.0846989372383397,-0.0345814646866282
7.004,0.0827207456892935,-0.036923766945303
7.01,0.0807151343012171,-0.039239451778438
7.016,0.078678213532708,-0.0415322192540981
7.022,0.0766054105221141,-0.0438047665506468
7.028,0.0744916742285133,-0.0460587036267081
7.034,0.0723316864039938,-0.0482945097469423
7.04,0.0701200703153766,-0.0505115297653872
7.046,0.067851589848878,-0.0527080074879966
7.052,0.065521332635366,-0.054881152115622
7.058,0.063124872069174,-0.0570272327503156
7.064,0.0606584044679334,-0.0591416952477976
7.07,0.0581188590379756,-0.0612192954170228
7.076,0.0555039796998508,-0.0632542425220191
7.082,0.0528123790987048,-0.0652403474054435
7.088,0.050043566217553,-0.0671711700843093
7.094,0.0471979498915795,-0.069040162460856
7.1,0.0442768211157845,-0.0708408026623967
7.106,0.0412823174245913,-0.0725667184684583
7.112,0.0382173726885213,-0.0742117982037197
7.118,0.03508565557294,-0.0757702883125735
7.124,0.0318914995709324,-0.0772368775419101
7.13,0.0286398270989259,-0.0786067681972323
7.136,0.0253360696132605,-0.0798757352933458
7.142,0.0219860851565137,-0.0810401745811109
7.148,0.0185960742668423,-0.0820971404312527
7.154,0.0151724947469187,-0.083044374374158
7.16,0.0117219755031619,-0.0838803248451351
7.166,0.00825122951448902,-0.0846041583494472
7.172,0.00476696598482986,-0.0852157618979992
7.178,0.00127580188245591,-0.085715736273192
7.184,-0.00221582666991307,-0.0861053794515148
7.19,-0.00570175233068488,-0.0863866593832999
7.196,-0.00917616257836464,-0.0865621753711163
7.202,-0.0126336822230482,-0.0866351074433212
7.208,-0.0160694504014448,-0.0866091534547818
7.214,-0.0194791898022791,-0.0864884540777789
7.22,-0.0228592657235008,-0.0862775063936005
7.226,-0.0262067325777905,-0.0859810673920468
7.232,-0.0295193656460685,-0.0856040492932579
7.238,-0.032795676233577,-0.0851514091739621
7.244,-0.0360349088890601,-0.0846280358601638
7.25,-0.0392370199916176,-0.084038637400634
7.256,-0.0423870032943735,-0.0834038277532031
7.262,-0.0455067657344469,-0.0827154452381606
7.268,-0.0485988248020876,-0.0819758944517251
7.274,-0.0516659229876107,-0.0811869117946079
7.28,-0.0547109147900762,-0.0803495472027374
7.286,-0.0577366533751602,-0.0794641647223834
7.292,-0.0607458802907327,-0.078530461508855
7.298,-0.0637411214456324,-0.0775475041174269
7.304,-0.0667245921997742,-0.0765137803161578
7.31,-0.0696981139247609,-0.0754272641877703
7.316,-0.0726630438045333,-0.0742854918671543
7.322,-0.075620218998797,-0.0730856450898521
7.328,-0.0785699156414139,-0.0718246396767863
7.334,-0.0815118225138323,-0.07049921619998
7.34,-0.0844450286965382,-0.0691060303480065
7.346,-0.0873680240573823,-0.067641740889974
7.352,-0.0902787111413493,-0.0661030936050746
7.358,-0.0931744268688304,-0.0644870000383666
7.364,-0.096051972453566,-0.0627906104404326
7.37,-0.0989076500931028,-0.0610113806850145
7.376,-0.101737305251547,-0.0591471333111289
7.382,-0.10453637366738,-0.0571961130643292
7.388,-0.107299932639489,-0.0551570373998726
7.394,-0.110022756497225,-0.0530291423677291
7.4,-0.112699376506241,-0.0508122240819708
7.406,-0.115324145697421,-0.0485066756845152
7.412,-0.117891309222488,-0.0461135193014997
7.418,-0.120395080800916,-0.043634432043967
7.424,-0.122829725620432,-0.0410717646611488
7.43,-0.125189649685166,-0.0384285510569384
7.436,-0.127469495093743,-0.0357085066097593
7.442,-0.129664240095892,-0.0329160130788828
7.448,-0.131769302075883,-0.0300560879381068
7.454,-0.13378064087627,-0.0271343362346517
7.46,-0.135694859202684,-0.0241568835405223
7.466,-0.137509296260945,-0.0211302892509542
7.472,-0.139222110327444,-0.0180614403523514
7.478,-0.140832345795293,-0.0149574267931918
7.484,-0.142339980213473,-0.0118254006976057
7.49,-0.143745947214593,-0.00867242277971952
7.496,-0.14505213180368,-0.00550530039810371
7.502,-0.146261335387717,-0.00233042263536549
7.508,-0.147377209067535,0.000846401465589612
7.514,-0.148404155057048,0.00402009488054567
7.52,-0.149347197579019,0.00718644800676446
7.526,-0.150211826129573,0.0103422308710668
7.532,-0.151003815521806,0.0134852760874381
7.538,-0.151729028516452,0.0166145273882414
7.544,-0.152393208041917,0.0197300498222296
7.55,-0.153001766919538,0.022832999230363
7.556,-0.153559583559687,0.0259255503181789
7.562,-0.154070812263605,0.0290107845613502
7.568,-0.154538716468608,0.0320925410203488
7.574,-0.154965532597853,0.0351752349980799
7.58,-0.155352371022657,0.0382636511093144
7.586,-0.155699159181954,0.0413627187097639
7.592,-0.156004630110729,0.0444772786596967
7.598,-0.156266357618222,0.0476118510037664
7.604,-0.156480837272646,0.050770413288664
7.61,-0.156643610209138,0.053956198909544
7.616,-0.156749424813048,0.0571715240638238
7.622,-0.156792429526618,0.060417650636508
7.628,-0.156767257753917,0.0637051694507768
7.634,-0.15666269339618,0.0670326291787672
7.64,-0.156470266210835,0.0703859124916272
7.646,-0.156184613325708,0.0737602252917229
7.652,-0.155801146096203,0.0771498981571111
7.658,-0.155316183521025,0.0805485576343438
7.664,-0.154727046991441,0.0839493165719943
7.67,-0.154032114019014,0.0873449748120803
7.676,-0.153230830537137,0.0907282213632519
7.682,-0.152323683308887,0.0940918294646975
7.688,-0.15131213574214,0.0974288366302925
7.694,-0.150198531998814,0.100732702828286
7.7,-0.148985975538989,0.103997441319998
7.706,-0.147678189142183,0.107217718274339
7.712,-0.146279363952565,0.110388919005368
