"Freq [GHz]","re(S(Antenna1_1_1,Antenna1_1_1)) []","im(S(Antenna1_1_1,Antenna1_1_1)) []"
5,0.0255154096974807,0.157487209458666
5.006,0.0284132684541198,0.154528502479535
5.012,0.0310836048359587,0.151487497287212
5.018,0.0335240959699434,0.148392473257139
5.024,0.0357363963277176,0.145271469521693
5.03,0.0377260351517929,0.142151723347243
5.036,0.03950223617317,0.139059133366778
5.042,0.0410776647631658,0.136017758084301
5.048,0.0424681090311886,0.133049359090955
5.054,0.0436921025102031,0.130172997229461
5.06,0.044770497007624,0.127404688723846
5.066,0.0457259949363654,0.124757126877621
5.072,0.0465826509763741,0.122239473544601
5.078,0.0473653531833618,0.119857223144527
5.084,0.0480992938176507,0.11761214056367
5.09,0.0488094400360382,0.1155022728756
5.096,0.0495200143493768,0.1135220335163
5.102,0.0502539943259619,0.11166235628181
5.108,0.0510326404384153,0.109910915363601
5.114,0.0518750603035386,0.108252406608867
5.12,0.0527978167306126,0.106668884244955
5.126,0.0538145861868043,0.105140146535138
5.132,0.054935873292346,0.103644163114958
5.138,0.0561687860341364,0.102157536216167
5.144,0.0575168753264169,0.100655987562126
5.15,0.0589800415471632,0.0991148623722955
5.156,0.0605545095918375,0.097509641719307
5.162,0.062232872952134,0.0958164543968771
5.168,0.0640042062843541,0.0940125794490749
5.174,0.065854244860042,0.0920769306436417
5.18,0.0677656282945125,0.0899905143902896
5.186,0.069718204920899,0.0877368529311199
5.192,0.0717083950243534,0.0852563211755148
5.198,0.0736837721490281,0.082564026947874
5.204,0.0756087275396736,0.0796710255195878
5.21,0.0774556084500887,0.0765779305016496
5.216,0.0791968858012615,0.0732892642393309
5.222,0.0808056990188495,0.0698134198633655
5.228,0.0822563938946459,0.0661625490100952
5.234,0.0835250435674946,0.0623523760410579
5.24,0.084589942771717,0.0584019408945163
5.246,0.0854320656275279,0.0543332739674327
5.252,0.0860354776501257,0.0501710077884319
5.258,0.0863876931421547,0.0459419315242929
5.264,0.0864799698712483,0.0416744956044393
5.27,0.0863075338463775,0.0373982749986175
5.276,0.0858697280867415,0.0331434007089546
5.282,0.0851700805559544,0.0289399700584243
5.288,0.084216287878299,0.0248174471353467
5.294,0.0830201130298349,0.0208040653521781
5.3,0.0815971969031671,0.0169262445056488
5.306,0.0799667854407037,0.0132080348253356
5.312,0.0781513758752481,0.00967060040845437
5.318,0.0761762874677956,0.00633175401258193
5.324,0.0740691639801239,0.00320555452302465
5.33,0.0718594168325947,0.000301977385558422
5.336,0.0695776195460032,-0.00237333292171757
5.342,0.0672548654943389,-0.00481922085166754
5.348,0.0649221022359464,-0.00703908243079405
5.354,0.0626094566224023,-0.00904082878353313
5.36,0.0603455655936485,-0.010836748914406
5.366,0.0581569278435502,-0.0124432723642542
5.372,0.0560672915705775,-0.0138806347247786
5.378,0.0541472776527309,-0.0151571844006098
5.384,0.0524186541048667,-0.0163210482051258
5.39,0.0508401954636016,-0.0174243974950109
5.396,0.0494134279920066,-0.0184977146833867
5.402,0.048135129008331,-0.0195712303739123
5.408,0.0469974142890186,-0.0206742085401347
5.414,0.0459879330513202,-0.0218342508352709
5.42,0.0450901668728216,-0.0230766363605003
5.426,0.0442838263942434,-0.0244237126414017
5.432,0.043545337208895,-0.0258943524530315
5.438,0.0428484041231914,-0.0275034897279096
5.444,0.0421646409506741,-0.0292617459991998
5.45,0.0414642513269957,-0.0311751567273781
5.456,0.0407167446437675,-0.0332450045167049
5.462,0.0398916702629803,-0.0354677636748259
5.468,0.0389593525949483,-0.0378351578908464
5.474,0.0378916095093394,-0.0403343300332443
5.48,0.0366624368778892,-0.042948120361001
5.486,0.0352486427880075,-0.045655446722358
5.492,0.0336304161697218,-0.048431777842619
5.498,0.0317918161152127,-0.0512496884594488
5.504,0.0297211701316202,-0.0540794830591369
5.51,0.027411371740823,-0.0568898732549227
5.516,0.0248600703709048,-0.0596486925273042
5.522,0.0220697490700402,-0.062323631147274
5.528,0.0190476883835553,-0.0648829736096559
5.534,0.0158058175049223,-0.0672963208931483
5.54,0.0123604565914697,-0.0695352802780972
5.546,0.00873195678659632,-0.0715741062942576
5.552,0.00494424696529207,-0.0733902776758349
5.558,0.00102429847977512,-0.0749649967959153
5.564,-0.00299847890293368,-0.0762836000600367
5.57,-0.00709289505397391,-0.0773358699776721
5.576,-0.0112266755218126,-0.0781162421044363
5.582,-0.0153671787358798,-0.0786239026498459
5.588,-0.0194821171969339,-0.0788627752515081
5.594,-0.0235402655388131,-0.0788413981256296
5.6,-0.0275121388294323,-0.0785726954487738
5.606,-0.0313706253986847,-0.0780736493118298
5.612,-0.0350915597523118,-0.0773648809601757
5.618,-0.0386542227353031,-0.0764701520540567
5.624,-0.0420417580669949,-0.0754157985012266
5.63,-0.0452414964640503,-0.0742301108109268
5.636,-0.0482451809474952,-0.0729426760169099
5.642,-0.0510490893290069,-0.0715836968664413
5.648,-0.0536540524176538,-0.0701833042780361
5.654,-0.0560653689002997,-0.0687708789301255
5.66,-0.0582926203068928,-0.0673743973658605
5.666,-0.0603493917018774,-0.0660198171296958
5.672,-0.0622529058259775,-0.0647305142622167
5.678,-0.064023580248617,-0.0635267850328999
5.684,-0.0656845186372521,-0.0624254220231156
5.69,-0.0672609485479181,-0.0614393728187084
5.696,-0.0687796190107986,-0.0605774874885103
5.702,-0.0702681718242499,-0.0598443589001619
5.708,-0.0717545007109283,-0.059240257782637
5.714,-0.0732661124034914,-0.0587611622918846
5.72,-0.0748295033357595,-0.0583988798040176
5.726,-0.0764695649462436,-0.058141256710499
5.732,-0.0782090296253734,-0.0579724702217871
5.738,-0.080067968165571,-0.0578733946269142
5.744,-0.082063348228043,-0.0578220330914974
5.75,-0.084208661787786,-0.0577940049686748
5.756,-0.0866343422573144,-0.0577901931634914
5.762,-0.0892299408376555,-0.0577220457731519
5.768,-0.0919900323991626,-0.0575610575283772
5.774,-0.0949050907757336,-0.0572798895503085
5.78,-0.0979617328020364,-0.0568529281640035
5.786,-0.101143034768365,-0.0562567977285849
5.792,-0.104428913257778,-0.0554708187726961
5.798,-0.107796561430184,-0.0544774040011343
5.804,-0.111220931081074,-0.0532623861583242
5.81,-0.114675250301605,-0.0518152731502028
5.816,-0.118131566221773,-0.0501294272590877
5.822,-0.121561302222238,-0.0482021667360994
5.828,-0.124935819020661,-0.0460347894197076
5.834,-0.128226969250273,-0.0436325194099731
5.84,-0.131407635526166,-0.0410043790730525
5.846,-0.134452242472671,-0.0381629898645281
5.852,-0.137337233813348,-0.0351243065771265
5.858,-0.140041506338387,-0.0319072906123835
5.864,-0.142546793415404,-0.0285335288128056
5.87,-0.144837991568824,-0.025026805185073
5.876,-0.146903424685815,-0.0214126335488289
5.882,-0.148735041416666,-0.0177177597226853
5.888,-0.150328542436616,-0.0139696423366726
5.894,-0.151683435414066,-0.0101959217019522
5.9,-0.152803016667195,-0.00642388638120247
5.906,-0.153694279745947,-0.00267994720268011
5.912,-0.154367752361439,0.00101087159964781
5.918,-0.154837264357787,0.00462541461212007
5.924,-0.155119650587403,0.00814284169236789
5.93,-0.155234393813815,0.0115450299492076
5.936,-0.155203213839054,0.014816923255985
5.942,-0.155049610202698,0.0179468220389236
5.948,-0.154798366752738,0.0209266070850436
5.954,-0.154475027306657,0.0237518921702258
5.96,-0.154105352355918,0.026422101570006
5.966,-0.153714767380467,0.028940469847692
5.972,-0.153327813760854,0.0313139627934169
5.978,-0.152967613479985,0.033553119918734
5.984,-0.152655358843342,0.03567182051939
5.99,-0.152409838178672,0.0376869769169043
5.996,-0.152247008038298,0.0396181601336072
6.002,-0.152179621714173,0.0414871647797882
6.008,-0.152216922880807,0.0433175214321232
6.014,-0.152364412062232,0.0451339660939545
6.02,-0.152623692143118,0.0469618775448083
6.026,-0.152992397594201,0.0488266943167433
6.032,-0.153464210311162,0.05075332378473
6.038,-0.154028963067106,0.0527655563312778
6.044,-0.154672829617787,0.0548854976861201
6.05,-0.155378598504719,0.0571330324359903
6.056,-0.156126025587332,0.0595253312128193
6.062,-0.156892258421308,0.0620764133330979
6.068,-0.15765232380625,0.0647967755341506
6.074,-0.158379668159489,0.0676930961360763
6.08,-0.15904673898551,0.0707680222821158
6.086,-0.15962559455114,0.0740200460832136
6.092,-0.160088528011293,0.0774434734455445
6.098,-0.160408691725763,0.0810284871887829
6.104,-0.160560707316185,0.0847613038428969
6.11,-0.160521247245965,0.0886244212032492
6.116,-0.160269574198661,0.0925969515818003
6.122,-0.15978802551392,0.0966550335082016
6.128,-0.15900798721912,0.100795082066578
6.134,-0.157911577977829,0.104965245964999
6.14,-0.156550090312205,0.109103973760433
6.146,-0.154928409245462,0.113180445491404
6.152,-0.153055707944518,0.117165008855533
6.158,-0.150945199751932,0.121029790625792
6.164,-0.148613803340259,0.124749259768065
6.17,-0.146081729984921,0.128300730011828
6.176,-0.143372003647708,0.131664791234356
6.182,-0.140509926013019,0.134825660906865
6.188,-0.137522499692938,0.137771448932398
6.194,-0.134437823558267,0.14049433135926
6.2,-0.131284474544699,0.14299063073981
6.206,-0.128090890262552,0.145260803137422
6.212,-0.124884766422241,0.147309334011403
6.218,-0.121692482374111,0.149144547261686
6.224,-0.118538567079219,0.150778333676096
6.23,-0.115445216547062,0.152225806689978
6.236,-0.112431872296054,0.153504894873
6.242,-0.109514868696751,0.154635881691905
6.248,-0.106707155235921,0.155640904021024
6.254,-0.104018097895566,0.156543421433328
6.26,-0.101453361866983,0.157367668558703
6.266,-0.0990148759929856,0.158138102772644
6.272,-0.096700877456375,0.158878859165133
6.278,-0.0945060335997755,0.159613224128688
6.284,-0.0924216361489394,0.16036313811236
6.29,-0.0904358617946325,0.161148737063042
6.296,-0.088534091895216,0.161987940900457
6.302,-0.0866992831400391,0.162896096067603
6.308,-0.0849123802797648,0.163885677834701
6.314,-0.0831527615487528,0.164966056603414
6.32,-0.0813987071403271,0.166143331009092
6.326,-0.0796278810313602,0.167420229257795
6.332,-0.0778178165876151,0.168796078745836
6.338,-0.0759463967036808,0.170266842764613
6.344,-0.0739923196721562,0.171825221917439
6.35,-0.07193554260153,0.17346081682615
6.356,-0.0697576948486181,0.175160347765203
6.362,-0.0674424547574228,0.176907926070007
6.368,-0.0649758837983875,0.17868537147223
6.374,-0.0623467130812196,0.180472568988807
6.38,-0.0595465781314761,0.182247858550375
6.386,-0.0565701986910918,0.183988450222077
6.392,-0.0534155012440638,0.185670857702351
6.398,-0.0500836828404881,0.187271342616536
6.404,-0.0465792156581711,0.18876636214132
6.41,-0.0429097926260369,0.190133012512249
6.416,-0.0390862152455631,0.191349461138332
6.422,-0.0351222255584851,0.192395360203555
6.428,-0.03103428501202,0.193252234939933
6.434,-0.026841303704867,0.193903840101528
6.44,-0.0225643242732533,0.194336478553148
6.446,-0.0182261653233006,0.194539276400466
6.452,-0.0138510300359026,0.194504409645272
6.458,-0.00946408614910473,0.194227277987603
6.464,-0.00509102410419821,0.193706622102465
6.47,-0.000757600636335555,0.192944581558893
6.476,0.0035108244874946,0.191946691373084
6.482,0.00768975056170721,0.190721816184327
6.488,0.0117559886419242,0.189282022026498
6.494,0.0156880964968831,0.187642386748838
6.5,0.0194667875710887,0.185820751253784
6.506,0.0229689759748235,0.183777840434602
6.512,0.0262726888061326,0.181625705388576
6.518,0.0293734714063878,0.179391005910522
6.524,0.0322706414790064,0.177100506043399
6.53,0.0349672600799283,0.174780543585791
6.536,0.0374700287663918,0.172456507844042
6.542,0.0397891143525974,0.170152335889829
6.548,0.0419379041827771,0.167890037374992
6.554,0.0439326962262336,0.165689257569385
6.56,0.0457923297078513,0.16356688765261
6.566,0.0475377632536213,0.16153673046741
6.572,0.0491916087126578,0.159609228948587
6.578,0.0507776298515306,0.157791263213256
6.584,0.0523202159326714,0.156086020987313
6.59,0.0538438408788533,0.154492944521951
6.596,0.055372519108088,0.153007755651116
6.602,0.0569292693319125,0.151622558930766
6.608,0.0585355975502039,0.150326021228846
6.614,0.0602110101486517,0.149103624436875
6.62,0.0619725674918316,0.147937986431057
6.626,0.0638344875628798,0.146809243907868
6.632,0.0658078082641931,0.145695489370038
6.638,0.0679001157355397,0.144573253332922
6.644,0.0701153447089892,0.143418021813487
6.65,0.072453655429028,0.142204778391859
6.656,0.0749113900142529,0.140908559538683
6.662,0.0774811095239981,0.139505011620856
6.668,0.0801517112422661,0.137970937893143
6.674,0.0829086240463111,0.136284824012444
6.68,0.0857340780532274,0.134427330985885
6.686,0.0886074432028837,0.132381745172497
6.692,0.0915056299935356,0.130134375808635
6.698,0.0944035442844581,0.127674891601213
6.704,0.0972745869587114,0.124996589184937
6.71,0.100091188323777,0.122096587628678
6.716,0.102825366379166,0.11897594465419
6.722,0.105449297605337,0.115639691826347
6.728,0.107935888642215,0.112096787609168
6.734,0.110259337165835,0.10835998879683
6.74,0.112395670496021,0.104445642495979
6.746,0.114323250817602,0.100373402391599
6.752,0.116023236555475,0.0961658745597796
6.758,0.117479990233838,0.0918481995036891
6.764,0.118681424157884,0.087447578352644
6.77,0.119619276408277,0.0829927523676343
6.776,0.120289310940741,0.0785134458017179
6.782,0.120691437025051,0.0740397830347302
6.788,0.120829744762778,0.0696016914647344
6.794,0.120712455032105,0.0652283020557323
6.8,0.12035178386505,0.060947359631098
6.806,0.119763722901439,0.0567846549683044
6.812,0.118967739271987,0.0527634904949671
6.818,0.117986399849831,0.0489041909058122
6.824,0.116844926416909,0.0452236693481486
6.83,0.115570689743941,0.0417350588725076
6.836,0.114192651970621,0.0384474177760726
6.842,0.112740767865827,0.0353655161306181
6.848,0.111245356621253,0.0324897093206359
6.854,0.109736456650925,0.0298159027794034
6.86,0.108243176520628,0.0273356103587465
6.866,0.10679305549353,0.0250361068892729
6.872,0.105411447321085,0.0229006735629109
6.878,0.104186396491728,0.020950461695548
6.884,0.103152811922886,0.0191333636406762
6.89,0.102259151954857,0.0173687850385747
6.896,0.101508059551142,0.015625697511485
6.902,0.100897335132818,0.0138731541455594
6.908,0.100420005085579,0.0120810061754783
6.914,0.100064494929107,0.0102206027981695
6.92,0.0998149039584446,0.00826545886695289
6.926,0.0996513758760767,0.00619187575060187
6.932,0.0995505578344773,0.00397950148447019
6.938,0.0994861382338717,0.0016118175663252
6.944,0.0994294518030369,-0.00092345879004147
6.95,0.0993501388409716,-0.0036340663443338
6.956,0.0992168441692032,-0.00652299284531475
6.962,0.0989979402843588,-0.00958837453627794
6.968,0.0986622585098229,-0.0128235049243261
6.974,0.0981798116259903,-0.0162169531342871
6.98,0.0975224914966172,-0.0197527896191446
6.986,0.0966647256784476,-0.0234109144977957
6.992,0.0955840778105105,-0.027167481391003
6.998,0.0942617778383397,-0.0309954073093282
7.004,0.0926831696322935,-0.034864957104903
7.01,0.0908380654962171,-0.038744389161838
7.016,0.088720999179708,-0.0426006474936281
7.022,0.0863313713953141,-0.0464000842726468
7.028,0.0836734843830133,-0.0501091960337081
7.034,0.0807564646853938,-0.0536953564439423
7.04,0.0775940759829766,-0.0571275285883872
7.046,0.074204426448178,-0.0603769401999966
7.052,0.070609577605466,-0.063417706174622
7.058,0.0668350640302739,-0.0662273839813156
7.064,0.0629093353223334,-0.0687874492257976
7.07,0.0588631336250756,-0.0710836805910228
7.076,0.0547288214268508,-0.0731064455637191
7.082,0.0505396754997048,-0.0748508808098435
7.088,0.046329163533553,-0.0763169635879093
7.094,0.0421302203115795,-0.077509473217156
7.1,0.0379745401497845,-0.0784378442335667
7.106,0.0338919017755913,-0.0791159154407583
7.112,0.0299095408805213,-0.0795615814268197
7.118,0.02605158430794,-0.0797963553981735
7.124,0.0223385581979324,-0.0798448541076101
7.13,0.0187869805434259,-0.0797342173386323
7.136,0.0154090464816605,-0.0794934757586458
7.142,0.0122124124172137,-0.0791528819298109
7.148,0.00920008266174232,-0.0787432198592527
7.154,0.00637039992071866,-0.078295108728158
7.16,0.0037171385743719,-0.0778383162631351
7.166,0.00122969739718902,-0.0774010967444472
7.172,-0.00110661375277014,-0.0770095677569992
7.178,-0.00331020072734409,-0.076687138735192
7.184,-0.00540273453521307,-0.0764540028585148
7.19,-0.00740863410488488,-0.0763267023434999
7.196,-0.00935449419336464,-0.0763177753037163
7.202,-0.0112684711830482,-0.0764354905345212
7.208,-0.0131796401084448,-0.0766836745343819
7.214,-0.0151173365202791,-0.0770616331535789
7.22,-0.0171104968215008,-0.0775641682202105
7.226,-0.0191870104257905,-0.0781816876684468
7.232,-0.0213730965590685,-0.0789004058120579
7.238,-0.023692717773577,-0.0797026287932621
7.244,-0.0261670412930601,-0.0805671186940638
7.25,-0.0288139581816176,-0.081469528445234
7.256,-0.0318029251357735,-0.0824300462622031
7.262,-0.0349985393823469,-0.0833285213408606
7.268,-0.0383974594956876,-0.084133182069625
7.274,-0.0419917812169107,-0.0848130966176079
7.28,-0.0457692358957162,-0.0853388028057374
7.286,-0.0497134722634602,-0.0856828983763833
7.292,-0.0538044144531327,-0.085820581293855
7.298,-0.0580186879929325,-0.0857301308424269
7.304,-0.0623301045521742,-0.0853933216081578
7.31,-0.0667101953652609,-0.0847957637443703
7.316,-0.0711287826725333,-0.0839271643475543
7.322,-0.075554578034797,-0.0827815062285521
7.328,-0.0799557961404139,-0.0813571418038863
7.334,-0.0843007725858323,-0.07965680132118
7.34,-0.0885585742115382,-0.0776875160696065
7.346,-0.0926995907803823,-0.075460458669404
7.352,-0.0966960971693493,-0.0729907039054746
7.358,-0.10052277580583,-0.0702969149031666
7.364,-0.104157189742566,-0.0674009607253326
7.37,-0.107580197618403,-0.0643274726418145
7.376,-0.110776302714147,-0.0611033473995289
7.382,-0.11373392942578,-0.0577572068343292
7.388,-0.116445621691389,-0.0543188239735726
7.394,-0.118908159298225,-0.0508185265187291
7.4,-0.121122589371341,-0.0472865891029708
7.406,-0.123094171954321,-0.0437526261085152
7.412,-0.124832240121688,-0.0402449969824997
7.418,-0.126349976731616,-0.036790235931967
7.424,-0.127664111570632,-0.0334125176201488
7.43,-0.128794544254066,-0.0301331699986384
7.436,-0.129763899844043,-0.0269702446477594
7.442,-0.130597025606892,-0.0239381540583828
7.448,-0.131320438742083,-0.0210473840915068
7.454,-0.13196173606587,-0.0183042884448517
7.46,-0.132548977698684,-0.0157109703807324
7.466,-0.133110057544945,-0.0132652552014542
7.472,-0.133672073901444,-0.0109607550784514
7.478,-0.134260713776293,-0.00878702588139184
7.484,-0.134899664427473,-0.00672981360340575
7.49,-0.135610065287293,-0.00477138598361952
7.496,-0.13641001273748,-0.00289094292510371
7.502,-0.137314129231317,-0.00106509745736549
7.508,-0.138333206958235,0.000731582739589612
7.514,-0.139473934730348,0.00252598476504567
7.52,-0.14073871493346,0.00434582366576446
7.526,-0.142125575448073,0.00621899312006682
7.532,-0.143628179266006,0.00817290810843814
7.538,-0.145235932328252,0.0102338543692414
7.544,-0.146934187784717,0.0124263594242296
7.55,-0.148704542657538,0.014772599589563
7.556,-0.150525220651687,0.0172918566260789
7.562,-0.152371532848605,0.0200000366501502
7.568,-0.154216406096608,0.0229092624724488
7.574,-0.156030967338353,0.0260275489110499
7.58,-0.157785170722657,0.0293585686533144
7.586,-0.159448453362954,0.0329015141800639
7.592,-0.160990404896729,0.0366510589685967
7.598,-0.162381435722222,0.0405974189071664
7.604,-0.163593428812746,0.044726512486564
7.61,-0.164600360477938,0.049020216064544
7.616,-0.165378876197248,0.0534567082858238
7.622,-0.165908808772518,0.058010895728508
7.628,-0.166103314733417,0.0626733414807767
7.634,-0.16594457289757,0.0673842669467671
7.64,-0.165499782630135,0.0720829910177272
7.646,-0.164773468574608,0.0767373838507229
7.652,-0.163774515914603,0.0813164981441111
7.658,-0.162515917811325,0.0857911743063438
7.664,-0.161014439946441,0.0901345968007943
7.67,-0.159290211138014,0.0943227905956803
7.676,-0.157366250408137,0.0983350482180519
7.682,-0.155267942053887,0.102154279717998
7.688,-0.15302247110414,0.105767279725422
7.694,-0.150658232055814,0.109164907780726
7.7,-0.148204224050989,0.112342180073798
7.706,-0.145689445500383,0.115298272731739
7.712,-0.143142300861565,0.118036438620768
