"Freq [GHz]","re(S(Antenna1_1_1,Antenna1_1_1)) []","im(S(Antenna1_1_1,Antenna1_1_1)) []"
5,0.0169847941801807,0.154881216289366
5.006,0.0196138764358198,0.153231008603435
5.012,0.0222120263051587,0.151521412466112
5.018,0.0247780823643434,0.149751641164939
5.024,0.0273105998367176,0.147920748326193
5.03,0.0298077782001929,0.146027694362743
5.036,0.03226740677407,0.144071435050078
5.042,0.0346868342919658,0.142051026871401
5.048,0.0370629668349886,0.139965742255955
5.054,0.0393922964920031,0.137815186809561
5.06,0.041670960900324,0.135599410198046
5.066,0.0438948315584654,0.133319002514421
5.072,0.0460596266605741,0.130975168747301
5.078,0.0481610423426618,0.128569775297827
5.084,0.0501948947948507,0.12610536428257
5.09,0.0521572647828382,0.1235851334746
5.096,0.0540446358107768,0.121012882015
5.102,0.0558540174642619,0.11839292431541
5.108,0.0575830463751153,0.115729976689741
5.114,0.0592300586842386,0.113029023057467
5.12,0.0607941297305126,0.110295167411755
5.126,0.0622750788378043,0.107533481555838
5.132,0.063673439333446,0.104748856821458
5.138,0.0649903961637364,0.101945868085667
5.144,0.0662276954933169,0.0991286574356257
5.15,0.0673875323603632,0.0963008433671955
5.156,0.0684724236711375,0.093465459567707
5.162,0.069485074491324,0.0906249252578771
5.168,0.0704282456782441,0.0877810469143749
5.174,0.071304630406042,0.0849350491297417
5.18,0.0721167461172125,0.0820876305338896
5.186,0.072866846975499,0.0792390392436199
5.192,0.0735591107254534,0.0763927547941148
5.198,0.0741947389754281,0.073545100322074
5.204,0.0747740844516736,0.0706939640174878
5.21,0.0752976588547887,0.0678385088657496
5.216,0.0757656038233615,0.0649779480815309
5.222,0.0761777424114495,0.0621116040391455
5.228,0.0765336365637459,0.0592389474135852
5.234,0.0768326444326946,0.0563596170620579
5.24,0.077073972002017,0.0534734229159163
5.246,0.0772567145798279,0.0505803356176327
5.252,0.0773798851711257,0.0476804676946319
5.258,0.0774424284287547,0.0447740516415929
5.264,0.0774432206417483,0.0418614203265393
5.27,0.0773810579089775,0.0389429946609175
5.276,0.0772546361127415,0.0360192825127546
5.282,0.0770625274110544,0.0330908914866243
5.288,0.076803158631779,0.0301585565623467
5.294,0.0764747970849049,0.0272231818181781
5.3,0.0760755489198671,0.0242858937184488
5.306,0.0756033742493037,0.0213481018754356
5.312,0.0750561219147482,0.0184115619382544
5.318,0.0744315850906956,0.0154784344413819
5.324,0.0737275770423239,0.0125513331380246
5.33,0.0729420244256947,0.00963335659255842
5.336,0.0720730737086031,0.00672809760998243
5.342,0.0711192047457389,0.00383962638933246
5.348,0.0700793444051464,0.000972445007397949
5.354,0.0689529725120023,-0.00186858714783313
5.36,0.0677402123261485,-0.00467835522750604
5.366,0.0664418983184502,-0.00745161416865423
5.372,0.0650596151328775,-0.0101831315242786
5.378,0.0635930052149309,-0.0128647372518098
5.384,0.0620466611827667,-0.0154905613161258
5.39,0.0604277865522016,-0.0180594785054409
5.396,0.0587408883815066,-0.0205683778927867
5.402,0.056990773118911,-0.0230148966734123
5.408,0.0551823868378486,-0.0253974647552347
5.414,0.0533206486361202,-0.0277153115688709
5.42,0.0514102867063216,-0.0299684343809003
5.426,0.0494556864834434,-0.0321575298754017
5.432,0.047460759513795,-0.0342838931335315
5.438,0.0454288403295914,-0.0363492902234096
5.444,0.0433626167488741,-0.0383558122576998
5.45,0.0412640967982957,-0.0403057198646781
5.456,0.0391346130211675,-0.0422012874752049
5.462,0.0369748624925803,-0.0440446566270248
5.468,0.0347849785605483,-0.0458377066401464
5.474,0.0325646283694394,-0.0475819496050443
5.48,0.0303131287073892,-0.049278454747301
5.486,0.0280295717848075,-0.050927805041958
5.492,0.0257129522352218,-0.052530086608819
5.498,0.0233622869622127,-0.0540849091079488
5.504,0.0209767203900202,-0.0555914532445369
5.51,0.018555609131823,-0.0570485397328227
5.516,0.0160985819518048,-0.0584547127996042
5.522,0.0136055730085202,-0.059808330602974
5.528,0.0110768285620253,-0.0611076548529559
5.534,0.00851288943772231,-0.0623509324396483
5.54,0.00591455339386974,-0.0635364629471972
5.546,0.00328282300369632,-0.0646626474676576
5.552,0.000618845623592071,-0.0657280159895349
5.558,-0.00207614759452488,-0.0667312326778153
5.564,-0.00480089689093368,-0.0676710804055367
5.57,-0.00755415730647391,-0.0685464277856721
5.576,-0.0103347256044126,-0.0693561835263363
5.582,-0.0131414476616798,-0.0700992440761559
5.588,-0.0159732051976339,-0.0707744411304581
5.594,-0.0188288827103131,-0.0713804956121796
5.6,-0.0217073174176323,-0.0719159841964738
5.606,-0.0246072366901847,-0.0723793233787298
5.612,-0.0275271887802118,-0.0727687745725757
5.618,-0.0304654734771031,-0.0730824718901567
5.624,-0.0334200795963949,-0.0733184722602266
5.63,-0.0363886358966503,-0.0734748255285268
5.636,-0.0393683811499952,-0.0735496603439099
5.642,-0.0423561577239069,-0.0735412800957413
5.648,-0.0453484312765038,-0.0734482620771361
5.654,-0.0483413371607397,-0.0732695524839255
5.66,-0.0513307520350927,-0.0730045498877605
5.666,-0.0543123871535774,-0.0726531704314958
5.672,-0.0572818980223775,-0.0722158891554167
5.678,-0.060235003710017,-0.0716937534868999
5.684,-0.0631676081871521,-0.0710883668810156
5.69,-0.0660759157481181,-0.0704018427494084
5.696,-0.0689565328342986,-0.0696367309769103
5.702,-0.0718065494510498,-0.0687959213443619
5.708,-0.0746235947562283,-0.067882529883397
5.714,-0.0774058632186914,-0.0668997754507746
5.72,-0.0801521098405595,-0.0658508545310176
5.726,-0.0828616151596436,-0.064738822387899
5.732,-0.0855341229187734,-0.0635664881816871
5.738,-0.088169755238171,-0.0623363305890142
5.744,-0.090768911706143,-0.0610504388764974
5.75,-0.093332159878686,-0.0597104824301748
5.756,-0.0958568799169144,-0.0583240936002914
5.762,-0.0983488196173555,-0.0568863496908519
5.768,-0.100808450798013,-0.0553973339697772
5.774,-0.103235961914174,-0.0538568851557086
5.78,-0.105631229731436,-0.0522646930588035
5.786,-0.107993818646165,-0.0506203930142849
5.792,-0.110323005400278,-0.0489236515309961
5.798,-0.112617824930084,-0.0471742366266343
5.804,-0.114877131473274,-0.0453720678958242
5.81,-0.117099667967605,-0.0435172433025028
5.816,-0.119284136283873,-0.0416100418604877
5.822,-0.121429260985938,-0.0396509035696994
5.828,-0.123533840086161,-0.0376403900409676
5.834,-0.125596777592773,-0.0355791309905031
5.84,-0.127617094422066,-0.0334677630794925
5.846,-0.129593916316571,-0.0313068682994181
5.852,-0.131526439610248,-0.0290969192065265
5.858,-0.133413877816687,-0.0268382377728835
5.864,-0.135255393921804,-0.0245309734903056
5.87,-0.137050024767924,-0.022175104724773
5.876,-0.138796604899115,-0.0197704653068289
5.882,-0.140493697608766,-0.0173167961139853
5.888,-0.142139540650716,-0.0148138191431726
5.894,-0.143732013157866,-0.0122613294609522
5.9,-0.145268628823714,-0.00965929863630247
5.906,-0.146746558451167,-0.00700798195678011
5.912,-0.148162682709639,-0.00430802100855219
5.918,-0.149513673541087,-0.00156053314667993
5.924,-0.150796100308503,0.00123282000446789
5.93,-0.152006554665815,0.00406979162250763
5.936,-0.153141786432254,0.00694754112398503
5.942,-0.154198841595198,0.00986266052852359
5.948,-0.155175193065438,0.0128112358286436
5.954,-0.156068855000757,0.0157889408828558
5.96,-0.156878472405918,0.018791158924776
5.966,-0.157603379244168,0.021813124660192
5.972,-0.158243620360454,0.0248500782899169
5.978,-0.158799934959785,0.027897421767434
5.984,-0.159273702037242,0.03095086726659
5.99,-0.159666850815272,0.0340065682334043
5.996,-0.159981741711698,0.0370612244978072
6.002,-0.160221025453873,0.0401121546538883
6.008,-0.160387489508177,0.0431573311642232
6.014,-0.160483901892372,0.0461953762241545
6.02,-0.160512862607558,0.0492255191668083
6.026,-0.160476672352601,0.0522475188787433
6.032,-0.160377226903162,0.05526155713593
6.038,-0.160215943644106,0.0582681107809778
6.044,-0.159993724381287,0.0612678120811201
6.05,-0.15971095589132,0.0642613073448903
6.056,-0.159367546909032,0.0672491238528193
6.062,-0.158962997599608,0.0702315543991979
6.068,-0.15849649521405,0.0732085672839906
6.074,-0.157967027770022,0.0761797475588748
6.08,-0.15737350636341,0.0791442728675158
6.086,-0.15671488620344,0.0821009245118136
6.092,-0.155990276706793,0.0850481316347445
6.098,-0.155199031974963,0.0879840438393829
6.104,-0.154340814629985,0.0909066253608969
6.11,-0.153415628181765,0.0938137622455492
6.116,-0.152423815666861,0.0967033729917003
6.122,-0.15136602505242,0.0995735128561016
6.128,-0.15024469485562,0.102424399777078
6.134,-0.149060238663329,0.105255192828299
6.14,-0.147811841852905,0.108062996666033
6.146,-0.146500327407462,0.110846936308004
6.152,-0.145126323791788,0.113606371260733
6.158,-0.143690187323412,0.116340816163992
6.164,-0.142191951152259,0.119049840138765
6.17,-0.140631305980721,0.121732953235028
6.176,-0.139007615118508,0.124389489472356
6.182,-0.137319963733119,0.127018496322565
6.188,-0.135567239437738,0.129618640074098
6.194,-0.133748238856767,0.13218813538746
6.2,-0.131861792719799,0.13472470557341
6.206,-0.129906900507952,0.137225577858162
6.212,-0.127882864829441,0.139687515298823
6.218,-0.125789415591211,0.142106884286666
6.224,-0.123626814667219,0.144479753923796
6.23,-0.121395933089362,0.146802021183978
6.236,-0.119098294700054,0.1490695538417
6.242,-0.116736082567051,0.151278341818005
6.248,-0.114312107079421,0.153424646944624
6.254,-0.111829737341166,0.155505141224628
6.26,-0.109292800038883,0.157517024468703
6.266,-0.106705452208756,0.159458113633044
6.272,-0.104072036092835,0.161326898177233
6.278,-0.101396925439076,0.163122558133788
6.284,-0.0986843730801394,0.16484494417046
6.29,-0.0959383693990325,0.166494521525942
6.296,-0.093162520381216,0.168072282129057
6.302,-0.0903599524382392,0.169579631290203
6.308,-0.0875332491924648,0.171018256935301
6.314,-0.0846844230841528,0.172389990331314
6.32,-0.0818149221864271,0.173696667566622
6.326,-0.0789256701708602,0.174940000688855
6.332,-0.0760171351368151,0.176121466407736
6.338,-0.0730894211652808,0.177242218730413
6.344,-0.0701423751079562,0.178303029937239
6.35,-0.06717570036893,0.17930426208235
6.356,-0.0641890693175181,0.180245868893503
6.362,-0.0611822264793228,0.181127425720407
6.368,-0.0581550757414875,0.18194818321253
6.374,-0.0551077463696996,0.182707138836807
6.38,-0.0520406345416161,0.183403119282575
6.386,-0.0489544191993918,0.184034866321677
6.392,-0.0458500531401738,0.184601118806651
6.398,-0.0427287322344881,0.185100684188236
6.404,-0.0395918473354711,0.18553249413672
6.41,-0.0364409246922369,0.185895640459649
6.416,-0.0332775614139631,0.186189389373232
6.422,-0.0301033627072851,0.186413174169655
6.428,-0.02691988721492,0.186566568239933
6.434,-0.023728605870967,0.186649242133228
6.44,-0.0205308783315533,0.186660909702648
6.446,-0.0173279493658006,0.186601269306756
6.452,-0.0141209657307026,0.186469946437492
6.458,-0.0109110121747047,0.186266443993813
6.464,-0.00769916345589821,0.185990105744485
6.47,-0.00448654778263556,0.185640097374193
6.476,-0.0012744159930054,0.185215407987984
6.482,0.00193578981990721,0.184714873183227
6.488,0.00514237460752421,0.184137218935498
6.494,0.00834334151228313,0.183481123733438
6.5,0.0115363608278887,0.182745294789784
6.506,0.0147222174499235,0.181923222069802
6.512,0.0178928454703026,0.181018301526376
6.518,0.0210447374362548,0.180030222787922
6.524,0.0241742442028964,0.178959078965199
6.53,0.0272776624801283,0.177805399047391
6.536,0.0303513288138918,0.176570157153042
6.542,0.0333917135132974,0.175254757704229
6.548,0.0363955080519771,0.173860997425992
6.554,0.0393596999950336,0.172391006815785
6.56,0.0422816304902513,0.17084717524921
6.566,0.0451590307253213,0.16923206506461
6.572,0.0479900353821578,0.167548320714687
6.578,0.0507731728786306,0.165798579329809
6.584,0.0535073339398714,0.163985388796373
6.59,0.0561917216437533,0.162111138734551
6.596,0.058825787412588,0.160178008628716
6.602,0.0614091583737125,0.158187935917366
6.608,0.0639415620135039,0.156142605202646
6.614,0.0664227540683517,0.154043458033775
6.62,0.0688524551356316,0.151891721083457
6.626,0.0712303005899798,0.149688449112068
6.632,0.0735558071324231,0.147434578003238
6.638,0.0758283577917896,0.145130982455122
6.644,0.0780472055523992,0.142778532667087
6.65,0.080211494151798,0.140378144595059
6.656,0.0823202930932529,0.137930819035383
6.662,0.0843726426836981,0.135437665878356
6.668,0.0863676040329661,0.132899911261643
6.674,0.0883043085074111,0.130318886930344
6.68,0.0901820011587274,0.127696002753085
6.686,0.0920000731383837,0.125032704909297
6.692,0.0937580790307356,0.122330423632935
6.698,0.0954557363147581,0.119590515449613
6.704,0.0970929056891114,0.116814205499117
6.71,0.0986695526601768,0.114002535731532
6.716,0.100185692450566,0.11115632448474
6.722,0.101641321808137,0.108276142213847
6.728,0.103036342568515,0.105362306998968
6.734,0.104370482726135,0.10241490199753
6.74,0.105643221242821,0.0994338153377789
6.746,0.106853722816102,0.0964188012042989
6.752,0.108000788339875,0.0933695591751796
6.758,0.109082825848238,0.0902858273645891
6.764,0.110097845415624,0.087167483727744
6.77,0.111043479872617,0.0840146490801343
6.776,0.111917031425261,0.0808277850452179
6.782,0.112715542453951,0.0776077802957302
6.788,0.113435887058778,0.0743560190886344
6.794,0.114074878435105,0.0710744271628323
6.8,0.11462938601935,0.067765491504098
6.806,0.115096455622139,0.0644322521636044
6.812,0.115473425517687,0.0610782661366671
6.818,0.115758031701531,0.0577075451198122
6.824,0.115948496244509,0.0543244706455386
6.83,0.116043593798641,0.0509336915168776
6.836,0.116042692771821,0.0475400095290726
6.842,0.115945769362727,0.0441482601024181
6.848,0.115753394423353,0.0407631946126359
6.854,0.115466694844425,0.0373893708941034
6.86,0.115087292732428,0.0340310576374465
6.866,0.11461722693643,0.0306921572661729
6.872,0.114058862409185,0.0273761504599109
6.878,0.113412925843528,0.024090283140648
6.884,0.112684071129196,0.0208377467271762
6.89,0.111877661959987,0.0176161590064747
6.896,0.110996428820942,0.014426634450085
6.902,0.110042887403018,0.0112699348469594
6.908,0.109019298143079,0.00814654079967832
6.914,0.107927644510107,0.0050567242919695
6.92,0.106769628412345,0.00200061770085289
6.926,0.105546680013877,-0.00102172454199813
6.932,0.104259978465377,-0.00401027437072981
6.938,0.102910479625172,-0.0069649901053748
6.944,0.101498946788337,-0.00988578834704147
6.95,0.100025980741372,-0.0127725268523838
6.956,0.0984920460798032,-0.0156249964904147
6.962,0.0968974915889589,-0.0184429196337779
6.968,0.0952425635223229,-0.0212259518950261
6.974,0.0935274117029904,-0.0239736840114871
6.98,0.0917520894341172,-0.0266856409156446
6.986,0.0899165491279476,-0.0293612755696957
6.992,0.0880206362710105,-0.031999955937403
6.998,0.0860640847695397,-0.0346009444408283
7.004,0.0840465168264035,-0.037163370311203
7.01,0.0819674502745971,-0.039686196289138
7.016,0.079826315753008,-0.0421681820739981
7.022,0.0776224853029141,-0.0446078476653468
7.028,0.0753553129504133,-0.0470034402131081
7.034,0.0730241867173938,-0.0493529081578423
7.04,0.0706285903520766,-0.0516538862563872
7.046,0.068168172011578,-0.0539036945776966
7.052,0.065642816228566,-0.056099353735122
7.058,0.063052714863174,-0.0582376175680156
7.064,0.0603984324142334,-0.0603150232669876
7.07,0.0576809610973756,-0.0623279576534528
7.076,0.0549017614844508,-0.0642727370758191
7.082,0.0520627852330048,-0.0661456972726435
7.088,0.049166477454053,-0.0679432886651093
7.094,0.0462157575091795,-0.069662171958156
7.1,0.0432139784017845,-0.0712993086964667
7.106,0.0401648663283913,-0.0728520415719583
7.112,0.0370724432773213,-0.0743181597982197
7.118,0.0339409367118899,-0.0756959457355735
7.124,0.0307746812533654,-0.0769842000974101
7.13,0.0275780178278059,-0.0781822444139323
7.136,0.0243551959085605,-0.0792899008863458
7.142,0.0211102842624137,-0.0803074512077109
7.148,0.0178470950049423,-0.0812355772694527
7.154,0.0145691248322187,-0.082075287800358
7.16,0.0112795160913719,-0.0828278358218351
7.166,0.00798103897198902,-0.0834946322880472
7.172,0.00467609464042986,-0.0840771613730992
7.178,0.00136673772345591,-0.084576902568202
7.184,-0.00194528474341307,-0.0849952640817069
7.19,-0.00525848182618488,-0.0853335310491999
7.196,-0.00857155932566464,-0.0855928308329163
7.202,-0.0118833575645482,-0.0857741163179212
7.208,-0.0151927913380448,-0.0858781666990818
7.214,-0.0184987966327791,-0.0859056039115789
7.22,-0.0218002879590008,-0.0858569216842105
7.226,-0.0250961290956905,-0.0857325232850468
7.232,-0.0283851187933685,-0.0855327634533579
7.238,-0.031665991623277,-0.0852579898013621
7.244,-0.0349374328017901,-0.0849085791566638
7.25,-0.0381981045745076,-0.084484964871934
7.256,-0.0414467965221835,-0.0839955601019031
7.262,-0.0446841967687469,-0.0834329533758606
7.268,-0.0479091185030876,-0.082797393037925
7.274,-0.0511204353123107,-0.0820891445065079
7.28,-0.0543170954468162,-0.0813084582521374
7.286,-0.0574981238032602,-0.0804555325507834
7.292,-0.0606626103880328,-0.079530475027855
7.298,-0.0638096852270325,-0.0785332672112269
7.304,-0.0669384809041742,-0.0774637361694578
7.31,-0.0700480850343609,-0.0763215368340203
7.316,-0.0731374859272333,-0.0751061478404373
7.322,-0.076205515398197,-0.0738168827190721
7.328,-0.0792507930819139,-0.0724529171126863
7.334,-0.0822716766717322,-0.07101333147328
7.34,-0.0852662222381382,-0.0694971674942065
7.346,-0.0882321581933823,-0.067903495455004
7.352,-0.0911668756169493,-0.0662314887730746
7.358,-0.0940674365890304,-0.0644805014372666
7.364,-0.096930600995066,-0.0626501436876326
7.37,-0.0997528710338328,-0.0607403513229145
7.376,-0.10253055148712,-0.0587514443602289
7.382,-0.10525982276934,-0.0566841714148292
7.388,-0.107936822948889,-0.0545397370540726
7.394,-0.110557734373225,-0.0523198104547291
7.4,-0.113118870274441,-0.0500265148604708
7.406,-0.115616756798521,-0.0476623985245152
7.412,-0.118048206268288,-0.0452303889389997
7.418,-0.120410378139516,-0.042733733114767
7.424,-0.122700824970232,-0.0401759274282488
7.43,-0.124917521743766,-0.0375606410361584
7.436,-0.127058877973943,-0.0348916370510694
7.442,-0.129123733101692,-0.0321726955692928
7.448,-0.131111336684383,-0.0294075422612068
7.454,-0.13302131571287,-0.0265997856123517
7.46,-0.134853632005084,-0.0237528650999324
7.466,-0.136608532991045,-0.0208700116720542
7.472,-0.138286499294244,-0.0179542209400514
7.478,-0.139888192339893,-0.0150082385775918
7.484,-0.141414404807373,-0.0120345566144057
7.49,-0.142866016134283,-0.00903541867731952
7.496,-0.14424395453428,-0.00601283181220371
7.502,-0.145549166179577,-0.00296858234806549
7.508,-0.146782591394235,9.57466665896118E-05
7.514,-0.147945146978248,0.00317875861674567
7.52,-0.14903771319596,0.00627922872696446
7.526,-0.150061123570773,0.00939609273206682
7.532,-0.151016155453306,0.0125284391040381
7.538,-0.151903519404452,0.0156755043790414
7.544,-0.152723845722317,0.0188366704582296
7.55,-0.153477666949938,0.022011462195303
7.556,-0.154165395843787,0.0251995432196395
7.562,-0.154787299040405,0.0284007077842302
7.568,-0.155343467427608,0.0316148665231488
7.574,-0.155833784958253,0.0348420243295499
7.58,-0.156257898254857,0.0380822491154144
7.586,-0.156615189790254,0.0413356309451639
7.592,-0.156904757633429,0.0446022318815967
7.598,-0.157125404706122,0.0478820277916664
7.604,-0.157275640180046,0.051174844237964
7.61,-0.157353695078208,0.054480289364544
7.616,-0.157357553357256,0.0577976873041238
7.622,-0.157284998796198,0.061126016016308
7.628,-0.157131995503717,0.0644683135390768
7.634,-0.15689419011267,0.0678218141141671
7.64,-0.156570488978035,0.0711789537385272
7.646,-0.156159030404208,0.0745364261609229
7.652,-0.155658261349703,0.0778905591872111
7.658,-0.155067008340125,0.0812373669220438
7.664,-0.154384537445841,0.0845726169642943
7.67,-0.153610599914514,0.0878919099360903
7.676,-0.152745460749737,0.0911907679134119
7.682,-0.151789908422487,0.0944647277148975
7.688,-0.15074524492954,0.0977094346366225
7.694,-0.149613256516714,0.100920732131726
7.7,-0.148396166474789,0.104094743122898
7.706,-0.147096572425283,0.107227939106639
7.712,-0.145717371375065,0.110317193913068
