"Freq [GHz]","re(S(Antenna1_1_1,Antenna1_1_1)) []","im(S(Antenna1_1_1,Antenna1_1_1)) []"
5,0.0222740833244807,0.162332999971666
5.006,0.0259361212421198,0.159784662357535
5.012,0.0294205159579587,0.157036681300212
5.018,0.0327073193839434,0.154111539246939
5.024,0.0357799193477176,0.151034079520693
5.03,0.0386253161267929,0.147831012133243
5.036,0.04123432804917,0.144530389556778
5.042,0.0436017233751658,0.141161062195201
5.048,0.0457262769371886,0.137752123466955
5.054,0.0476107512482031,0.134332354395461
5.06,0.049261802996624,0.130929677511846
5.066,0.0506898170193654,0.127570629599621
5.072,0.0519086709617741,0.124279862452601
5.078,0.0529354349121618,0.121079680347527
5.084,0.0537900112916507,0.11798962233767
5.09,0.0544947212340382,0.1150260967946
5.096,0.0550738445783768,0.1122020748593
5.102,0.0555531213500619,0.10952684857681
5.108,0.0559592233845153,0.107005858530601
5.114,0.0563192053075386,0.104640594749867
5.12,0.0566599446336126,0.102428573497955
5.126,0.0570075811098043,0.100363391368138
5.132,0.057386965718346,0.098434856772958
5.138,0.0578211298081364,0.0966291976073671
5.144,0.0583307847954169,0.0949293424309257
5.15,0.0589338625961632,0.0933152711022955
5.156,0.0596451065228375,0.091764429378307
5.162,0.060475721683134,0.0902522005728771
5.168,0.0614330931023541,0.0887524260611749
5.174,0.062520578632042,0.0872379651396417
5.18,0.0637373825055125,0.0856812836622896
5.186,0.065078513826899,0.0840550599341199
5.192,0.0665810991883534,0.0823071370915148
5.198,0.0681919102620281,0.0804151143258739
5.204,0.0698742553074736,0.0783646029905878
5.21,0.0716048641140887,0.0761380193476496
5.216,0.0733579260442615,0.0737213346893309
5.222,0.0751056298638495,0.0711044206233655
5.228,0.0768187508314459,0.0682813128730952
5.234,0.0784672726788946,0.0652503868760579
5.24,0.080021031129717,0.0620144403685163
5.246,0.0814503648805279,0.0585806802264327
5.252,0.0827267595801257,0.0549606130134319
5.258,0.0838234703591546,0.0511698409522929
5.264,0.0847161087542483,0.0472277672455393
5.27,0.0853831806543775,0.0431572168937175
5.276,0.0858065628947415,0.0389839811549546
5.282,0.0859719075599544,0.0347362956704243
5.288,0.085868964711299,0.0304442638729467
5.294,0.0854918161758349,0.0261392386000781
5.3,0.0848390151461671,0.0218531758296488
5.306,0.0839136285547037,0.0176179750603356
5.312,0.0827231815032481,0.0134648211194544
5.318,0.0812795052957956,0.00942354205458193
5.324,0.0795984928554238,0.00552199727202465
5.33,0.0776997674121947,0.00178550925555842
5.336,0.0756062722420032,-0.00176364895071757
5.342,0.0733437909313389,-0.00510669973066754
5.348,0.0709404090679464,-0.00822873124379405
5.354,0.0684259293629023,-0.0111189848125331
5.36,0.0658312530296485,-0.013771054007406
5.366,0.0631877407335502,-0.0161829920432542
5.372,0.0605265666095775,-0.0183573261307786
5.378,0.0579079178587309,-0.0202573877456098
5.384,0.0553778941348667,-0.0219080588111258
5.39,0.0529358161206016,-0.0233763434802409
5.396,0.0506011830490066,-0.0246847479553867
5.402,0.048389801288331,-0.0258580940049123
5.408,0.0463135184140186,-0.0269229552311347
5.414,0.0443800404023202,-0.0279070661853709
5.42,0.0425928338978216,-0.0288387161499003
5.426,0.0409511139532434,-0.0297461393204017
5.432,0.039449916108895,-0.0306569128790315
5.438,0.0380802502821914,-0.0315973740159096
5.444,0.0368293325946741,-0.0325920664001998
5.45,0.0356808900969957,-0.0336632259043781
5.456,0.0346155322053675,-0.0348303146137049
5.462,0.0336111817089803,-0.0361096112318259
5.468,0.0326435573149483,-0.0375138650868464
5.474,0.0316866989073394,-0.0390520198572443
5.48,0.0307135260326892,-0.040729012081001
5.486,0.0296964195630075,-0.042545648306358
5.492,0.0286078160057218,-0.044498563565619
5.498,0.0274208036182127,-0.0465802625214488
5.504,0.0261097092616202,-0.0487792432991369
5.51,0.024650664877823,-0.0510802026623227
5.516,0.0230221425379048,-0.0534643196747042
5.522,0.0212054473400402,-0.055909613601274
5.528,0.0191851578325553,-0.0583913702786559
5.534,0.0169495043709223,-0.0608826297511483
5.54,0.0144906766624697,-0.0633547265733972
5.546,0.0118050528755963,-0.0657778728425576
5.552,0.00889334402529207,-0.0681217728508349
5.558,0.00576064887177512,-0.0703562572119153
5.564,0.00241641628606632,-0.0724519235010367
5.57,-0.00112568604867391,-0.0743807698626721
5.576,-0.00484799576021257,-0.0761168077774363
5.582,-0.00872916974387983,-0.0776366401448459
5.588,-0.0127445829049339,-0.0789199912675081
5.594,-0.0168668044798131,-0.0799501759396296
5.6,-0.0210661427654323,-0.0807144959567738
5.606,-0.0253112471999847,-0.0812045536948298
5.612,-0.0295697551123118,-0.0814164741401757
5.618,-0.0338089690713031,-0.0813510287170567
5.624,-0.0379965496999949,-0.0810136564592266
5.63,-0.0421012081590503,-0.0804143804979268
5.636,-0.0460933821684952,-0.0795676203163099
5.642,-0.0499458795830069,-0.0784919027944413
5.648,-0.0536344740776538,-0.0772094776060361
5.654,-0.0571384384612997,-0.0757458449191255
5.66,-0.0604410024838927,-0.0741292056668605
5.666,-0.0635297237548774,-0.0723898465974958
5.672,-0.0663967623939775,-0.0705594740792167
5.678,-0.069039052377617,-0.0686705119498999
5.684,-0.0714583650102521,-0.0667553796851156
5.69,-0.0736612625759181,-0.0648457676617084
5.696,-0.0756589429292986,-0.0629719264365103
5.702,-0.0774669783666499,-0.0611619865731619
5.708,-0.0791049547369283,-0.059441324817637
5.714,-0.0805960190614914,-0.0578319912618846
5.72,-0.0819663461037595,-0.0563522105970176
5.726,-0.0832445361953436,-0.055015968756499
5.732,-0.0844609581138734,-0.0538326941367871
5.738,-0.085647052005571,-0.0528070403539142
5.744,-0.086834608101043,-0.0519387750214974
5.75,-0.088055037372786,-0.0512227766676748
5.756,-0.0894127572363144,-0.0507678777854914
5.762,-0.0908937432656555,-0.0504177519902519
5.768,-0.0925187325811626,-0.0501474466103772
5.774,-0.0943043342647336,-0.0499292208683085
5.78,-0.0962626913620364,-0.0497331992580035
5.786,-0.098401244003365,-0.0495280616565849
5.792,-0.100722596760778,-0.0492817548328561
5.798,-0.103224491109184,-0.0489622099771342
5.804,-0.105899881632074,-0.0485380511613242
5.81,-0.108737112579605,-0.0479792801762028
5.816,-0.111720189401773,-0.0472579240630877
5.822,-0.114829138173438,-0.0463486326840994
5.828,-0.118040444203961,-0.0452292149587076
5.834,-0.121327559824273,-0.0438811038339731
5.84,-0.124661470163166,-0.0422897415820525
5.846,-0.128011304844671,-0.0404448787445281
5.852,-0.131344982864848,-0.0383407817311265
5.858,-0.134629877435187,-0.0359763459123835
5.864,-0.137833487405404,-0.0333551128268056
5.87,-0.140924101857824,-0.030485191969073
5.876,-0.143871444732815,-0.0273790893668289
5.882,-0.146647286774666,-0.0240534469235853
5.888,-0.149226012792616,-0.0205286981482726
5.894,-0.151585133070066,-0.0168286474619522
5.9,-0.153705728866195,-0.0129799817212025
5.906,-0.155572823171947,-0.00901172390768011
5.912,-0.157175669356439,-0.00495464005835219
5.918,-0.158507951865787,-0.000840611475379927
5.924,-0.159567894899403,0.00329801501836789
5.93,-0.160358276746815,0.00742908551120763
5.936,-0.160886349400054,0.011521292600985
5.942,-0.161163664944698,0.0155448106479236
5.948,-0.161205812167638,0.0194718994680436
5.954,-0.161032068716657,0.0232774638222258
5.96,-0.160664975910918,0.026939556882006
5.966,-0.160129845008467,0.030439816979692
5.972,-0.159454205243854,0.0337638283004169
5.978,-0.158667205204185,0.036901397736734
5.984,-0.157798980235342,0.03984674192539
5.99,-0.156879999291672,0.0425985803649043
5.996,-0.155940405168298,0.0451601325796072
6.002,-0.155009362197173,0.0475390193487883
6.008,-0.154114425365807,0.0497470701306232
6.014,-0.153280944326232,0.0518000408605545
6.02,-0.152531514982118,0.0537172482348083
6.026,-0.151885490298201,0.0555211284327433
6.032,-0.151358560608162,0.0572367298067301
6.038,-0.150962412178106,0.0588911505001778
6.044,-0.150704471005787,0.0605129330383201
6.05,-0.150587736983719,0.0621314288159903
6.056,-0.150610711568332,0.0637761459228193
6.062,-0.150767420084308,0.0654760939850979
6.068,-0.15104752780725,0.0672591396461506
6.074,-0.151436547013822,0.0691513859240763
6.08,-0.15191613033551,0.0711765880551158
6.086,-0.15246444408214,0.0733556175422136
6.092,-0.153056613623293,0.0757059850175445
6.098,-0.153665231620763,0.0782414312177829
6.104,-0.154260918766385,0.0809715939548969
6.11,-0.154812925786965,0.0839017573522492
6.116,-0.155289764842661,0.0870326880498003
6.122,-0.15565985799292,0.0903605613532016
6.128,-0.15586661130612,0.0939415460175781
6.134,-0.155854208582829,0.0977503302197986
6.14,-0.155614840998205,0.101695316537033
6.146,-0.155127920590462,0.105749184329404
6.152,-0.154376905151518,0.109881959222533
6.158,-0.153349619279932,0.114061619724792
6.164,-0.152038486730259,0.118254740230065
6.17,-0.150440670363921,0.122427157922328
6.176,-0.148558117582708,0.126544650794356
6.182,-0.146397510949019,0.130573613886865
6.188,-0.143970125086938,0.134481720921398
6.194,-0.141291592919267,0.13823855877426
6.2,-0.138381585649599,0.14181622270881
6.206,-0.135263412572552,0.145189860914422
6.212,-0.131963548224241,0.148338157762403
6.218,-0.128511095783111,0.151243746170686
6.224,-0.124937196874219,0.153893540714096
6.23,-0.121274399089562,0.156278984432978
6.236,-0.117555993456054,0.158396203872
6.242,-0.113815334879751,0.160246068516905
6.248,-0.110085159135921,0.161834152623024
6.254,-0.106396910288566,0.163170599306328
6.26,-0.102780092462983,0.164269888754803
6.266,-0.0992616596669856,0.165150514395944
6.272,-0.095865456832375,0.165834572856133
6.278,-0.0926117244117755,0.166347275467688
6.284,-0.0895166777429394,0.16671639091736
6.29,-0.0865921709886325,0.166971630277242
6.296,-0.083845453778216,0.167143987155257
6.302,-0.0812790267520392,0.167265046883603
6.308,-0.0788906001097648,0.167366279616701
6.314,-0.0766731569977528,0.167478332781414
6.32,-0.0746151211856271,0.167630338559092
6.326,-0.0727006261061602,0.167849251944795
6.332,-0.0709098799496151,0.168159234404836
6.338,-0.0692196192036808,0.168581097221613
6.344,-0.0676036409181562,0.169131817390439
6.35,-0.06603340206353,0.16982413728815
6.356,-0.0644786726933681,0.170666257458203
6.362,-0.0629082283364228,0.171661629683007
6.368,-0.0612905660503875,0.17280885520923
6.374,-0.0595946280392196,0.174101690502807
6.38,-0.0577905165524761,0.175529160393375
6.386,-0.0558501840400918,0.177075775959877
6.392,-0.0537480831810638,0.178721852102051
6.398,-0.0514617624174881,0.180443917421536
6.404,-0.0489723940051711,0.18221520701232
6.41,-0.0462652232380369,0.184006226911249
6.416,-0.0433299294385631,0.185785377470932
6.422,-0.0401608913404851,0.187519621751655
6.428,-0.03675735189002,0.189175184188933
6.434,-0.033123479452867,0.190718264370528
6.44,-0.0292683251902533,0.192115750658148
6.446,-0.0252056781043006,0.193335918646466
6.452,-0.0209538217710026,0.194349100059272
6.458,-0.0165351985541047,0.195128308562603
6.464,-0.0119759889461982,0.195649810098465
6.47,-0.00730561522033556,0.195893626744893
6.476,-0.0025561799085054,0.195843964600084
6.482,0.00223814933360721,0.195489557874327
6.488,0.0070417961309242,0.194823923083498
6.494,0.0118184601538831,0.193845519084838
6.5,0.0165318170650887,0.192557810390784
6.506,0.0210899068718235,0.190817428864602
6.512,0.0254738935621326,0.188807829778576
6.518,0.0296558738213878,0.186555052618522
6.524,0.0336120335370064,0.184088555543399
6.53,0.0373230671739283,0.181440587882791
6.536,0.0407745041893918,0.178645513754042
6.542,0.0439569372675974,0.175739099938229
6.548,0.0468661490637771,0.172757781625092
6.554,0.0495031355362336,0.169737919878385
6.56,0.0518740262188513,0.16671506473861
6.566,0.0539899029666213,0.16372323772241
6.572,0.0558665209596578,0.160794247161587
6.578,0.0575239370182306,0.157957049295256
6.584,0.0589860521642714,0.155237167311313
6.59,0.0602800768288533,0.152656179623951
6.596,0.061435928557088,0.150231287580116
6.602,0.0624855734639125,0.147974971496766
6.608,0.0634623238350039,0.145894742438846
6.614,0.0644001053496517,0.143992995478875
6.62,0.0653327082098316,0.142266968505057
6.626,0.0662930370608798,0.140708808411868
6.632,0.0673123749471931,0.139305744751038
6.638,0.0684196765755397,0.138040368545922
6.644,0.0696409059559892,0.136891011897187
6.65,0.070998432867028,0.135832221769859
6.656,0.0725105017262529,0.134835319252683
6.662,0.0741907852039981,0.133869033534856
6.668,0.0760480333782661,0.132900197995643
6.674,0.0780858273063111,0.131894494165444
6.68,0.0803024439512274,0.130817227947885
6.686,0.0826908367788837,0.129634121434497
6.692,0.0852387340355356,0.128312102982635
6.698,0.0879288540304582,0.126820077907213
6.704,0.0907392339189114,0.125129662308937
6.71,0.0936436659607768,0.123215863065678
6.716,0.0966122325281658,0.12105768807019
6.722,0.0996119287463371,0.118638672138347
6.728,0.102607359449415,0.115947305867168
6.734,0.105561495192735,0.11297735672883
6.74,0.108436470569021,0.109728074423979
6.746,0.111194406869602,0.106204274691599
6.752,0.113798240456475,0.10241629910778
6.758,0.116212537947838,0.0983798510446891
6.764,0.118404279528884,0.094115710888144
6.77,0.120343592413277,0.0896493366141343
6.776,0.122004417578741,0.0850103584197179
6.782,0.123365094499051,0.0802319786447302
6.788,0.124408850447778,0.0753502904477344
6.794,0.125124183304105,0.0704035305320323
6.8,0.12550512915405,0.065431282750098
6.806,0.125551408815439,0.0604736504563044
6.812,0.125268450086987,0.0555704161159671
6.818,0.124667285491831,0.0507602068588122
6.824,0.123764328013909,0.0460796844091486
6.83,0.122581030096541,0.0415627771265076
6.836,0.121143433713621,0.0372399708230726
6.842,0.119481621647827,0.0331376735166181
6.848,0.117629082194253,0.0292776676906359
6.854,0.115622001238925,0.0256766612114034
6.86,0.113498497092628,0.0223459464417465
6.866,0.11129781448753,0.0192911739682729
6.872,0.109059494863085,0.0165122454789109
6.878,0.106857253356728,0.014095062681548
6.884,0.104765828247886,0.0120109056406762
6.89,0.102793728223857,0.0101372675788747
6.896,0.100966460570142,0.00844351652708496
6.902,0.0993043991048178,0.00689590394055939
6.908,0.0978224235255787,0.00545836629747832
6.914,0.0965296799961072,0.0040933642061695
6.92,0.0954294661414446,0.00276274114865289
6.926,0.0945192408000767,0.00142858396360187
6.932,0.0937907567404773,5.40674364701895E-05
6.938,0.0932303118518717,-0.0013957340166748
6.944,0.0928191121760369,-0.00295308366504147
6.95,0.0925337381159716,-0.0046468836983338
6.956,0.0923467031473032,-0.00650205382031475
6.962,0.0922270927883589,-0.00853899898627794
6.968,0.0921412700818229,-0.0107731762183261
6.974,0.0920536327239904,-0.0132147683692871
6.98,0.0919274061160172,-0.0158684705551446
6.986,0.0917254559814476,-0.0187333928797957
6.992,0.0914111039785105,-0.021803080478003
6.998,0.0909489297193397,-0.0250656499863283
7.004,0.0903055429732935,-0.028504038894903
7.01,0.0894503104572171,-0.032096362385838
7.016,0.088356022581708,-0.0358163698190981
7.022,0.0869994866923141,-0.0396339913036468
7.028,0.0853620348890133,-0.0435159628737081
7.034,0.0834299361463938,-0.0474265172829423
7.04,0.0811947045189766,-0.0513281260715872
7.046,0.078653297073178,-0.0551822775280966
7.052,0.075808197796466,-0.058950274440622
7.058,0.072667385632274,-0.0625940350883156
7.064,0.0692441875753334,-0.0660768808527976
7.07,0.0655570197480756,-0.0693642940860228
7.076,0.0616290221048508,-0.0724246304737191
7.082,0.0574875942417048,-0.0752297710408435
7.088,0.053163842107553,-0.0777557002189093
7.094,0.0486919471945795,-0.079982997923156
7.1,0.0441084714057845,-0.0818972353225667
7.106,0.0394516121500913,-0.0834892661797583
7.112,0.0347604232785213,-0.0847554075108197
7.118,0.0300740181449399,-0.0856975060661735
7.124,0.0254307714669324,-0.0863228890616101
7.13,0.0208675366244259,-0.0866442004386323
7.136,0.0164188947376605,-0.0866791260373458
7.142,0.0121164511032137,-0.0864500134881109
7.148,0.00798819359274231,-0.0859833948012527
7.154,0.00405792624771866,-0.085309421623158
7.16,0.000344789820371906,-0.0844612248701351
7.166,-0.00313712107881098,-0.0834742120269472
7.172,-0.00637903617277014,-0.0823853165579992
7.178,-0.00937767761834409,-0.081232214870192
7.184,-0.0121353144372131,-0.0800525268085149
7.19,-0.0146597021988849,-0.0788830159724999
7.196,-0.0169639093033646,-0.0777588060827163
7.202,-0.0190660330600482,-0.0767126292275212
7.208,-0.0209888113814448,-0.0757741211693818
7.214,-0.0227591376492791,-0.0749691779195789
7.22,-0.0244074882805008,-0.0743193865382105
7.226,-0.0259672742047905,-0.0738415416384468
7.232,-0.0274741288792685,-0.0735472575740579
7.238,-0.028965146711577,-0.0734426841162621
7.244,-0.0304780866910601,-0.0735283318680638
7.25,-0.0320505567166176,-0.073799011276234
7.256,-0.0338302280307735,-0.0744190012012031
7.262,-0.0357871874643469,-0.0751629181761606
7.268,-0.0379461168756876,-0.076000217018725
7.274,-0.0403268605909107,-0.0768970423666079
7.28,-0.0429440189997162,-0.0778169657557374
7.286,-0.0458066510794602,-0.0787217698273834
7.292,-0.0489180910511327,-0.079572264041155
7.298,-0.0522758819879324,-0.0803291157954269
7.304,-0.0558718272661742,-0.0809536805811578
7.31,-0.0596921582872609,-0.0814088148973703
7.316,-0.0637178149345333,-0.0816596560115544
7.322,-0.067924832882797,-0.0816743532475521
7.328,-0.0722848300294139,-0.0814247364418863
7.334,-0.0767655823628322,-0.08088690834718
7.34,-0.0813316777775382,-0.0800417491596065
7.346,-0.0859452349043823,-0.078875323098404
7.352,-0.0905666726188493,-0.0773791786034746
7.358,-0.0951555148721304,-0.0755505360431666
7.364,-0.099671214669566,-0.0733923586703326
7.37,-0.104073980535403,-0.0709133051208145
7.376,-0.108325588618147,-0.0681275639005289
7.382,-0.11239016374578,-0.0650545728033292
7.388,-0.116234913223389,-0.0617186284768726
7.394,-0.119830797957225,-0.0581483936887291
7.4,-0.123153126672341,-0.0543763119919708
7.406,-0.126182060407321,-0.0504379414885152
7.412,-0.128903016198688,-0.0463712212034997
7.418,-0.131306960999616,-0.042215685102967
7.424,-0.133390588825632,-0.0380116400471488
7.43,-0.135156376853066,-0.0337993248776384
7.436,-0.136612518483043,-0.0296180684057594
7.442,-0.137772734150892,-0.0255054642503828
7.448,-0.138655963116883,-0.0214965802675068
7.454,-0.13928594230227,-0.0176232197198517
7.46,-0.139690680473684,-0.0139132503517324
7.466,-0.139901838607945,-0.0103900162234542
7.472,-0.139954029250444,-0.00707184536645141
7.478,-0.139884049615593,-0.00397166451239184
7.484,-0.139730064666473,-0.00109672968340575
7.49,-0.139530757624293,0.00155152094938048
7.496,-0.13932446615148,0.00397748802889629
7.502,-0.139148322867317,0.00619130491663451
7.508,-0.139037418850235,0.00820860619358961
7.514,-0.139024008348348,0.0100501751465457
7.52,-0.13913677211046,0.0117414774537645
7.526,-0.139400155523073,0.0133120906090668
7.532,-0.139833796208006,0.0147950410074381
7.538,-0.140452053742252,0.0162260626061414
7.544,-0.141263652193717,0.0176427928412296
7.55,-0.142271443464538,0.019083922825563
7.556,-0.143472297216687,0.0205883199190789
7.562,-0.144857120080605,0.0221941413501502
7.568,-0.146411004543608,0.0239379578414488
7.574,-0.148113504656853,0.0258539059790499
7.58,-0.149939033439657,0.0279728875203144
7.586,-0.151857374069955,0.0303218329210639
7.592,-0.153834294575729,0.0329230449135967
7.598,-0.155832253574222,0.0357936366171664
7.604,-0.157811182673046,0.038945076340564
7.61,-0.159729329480938,0.042382849491544
7.616,-0.161544143904248,0.0461062452938238
7.622,-0.163213189413518,0.050108273541508
7.628,-0.164635636129417,0.0544589986207768
7.634,-0.16573890694457,0.0591118875587671
7.64,-0.166541558616135,0.0639423377176272
7.646,-0.167020064571608,0.0689127920477229
7.652,-0.167156511795603,0.0739827822161111
7.658,-0.166938940823325,0.0791097795313438
7.664,-0.166361558768441,0.0842500826612943
7.67,-0.165424821552014,0.0893597235106803
7.676,-0.164135384729137,0.0943953723670519
7.682,-0.162505924793887,0.0993152235639975
7.688,-0.16055483527314,0.104079843421422
7.694,-0.158305804843814,0.108652963089726
7.7,-0.155787286592989,0.113002200096798
7.706,-0.153031870200383,0.117099693953739
7.712,-0.150075570352565,0.120922642898768
