"Freq [GHz]","re(S(Antenna1_1_1,Antenna1_1_1)) []","im(S(Antenna1_1_1,Antenna1_1_1)) []"
5,0.0140057956424807,0.153805778774366
5.006,0.0165076089831198,0.152625004444835
5.012,0.0190503911239587,0.151398384091912
5.018,0.0216340955049434,0.150114494706839
5.024,0.0242569005797176,0.148761746937693
5.03,0.0269151673177929,0.147328639648243
5.036,0.02960343217617,0.145804025580778
5.042,0.0323144384191658,0.144177383268301
5.048,0.0350392080381886,0.142439089619955
5.054,0.0377671556502031,0.140580686958461
5.06,0.040486244777624,0.138595137798846
5.066,0.0431831857777654,0.136477060334621
5.072,0.0458436734596741,0.134222937456601
5.078,0.0484526610928618,0.131831292245527
5.084,0.0509946662266507,0.12930282323167
5.09,0.0534541024140382,0.1266404933246
5.096,0.0558156297223768,0.1238495672033
5.102,0.0580645158429619,0.12093759305781
5.108,0.0601869987014153,0.117914325945601
5.114,0.0621706408085386,0.114791591558867
5.12,0.0640046652056126,0.111583090885955
5.126,0.0656802627818043,0.108304148075438
5.132,0.067190860963346,0.104971405616358
5.138,0.0685323444001364,0.101602472792167
5.144,0.0697032191904169,0.0982155350929257
5.15,0.0707047134321632,0.0948289338462955
5.156,0.0715408085028375,0.091460726710307
5.162,0.072218197241134,0.0881282407288771
5.168,0.0727461672953541,0.0848476304640749
5.174,0.073136410080042,0.0816334540606417
5.18,0.0734027580595125,0.0784982801452896
5.186,0.073560855396199,0.0754523380021199
5.192,0.0736273071764534,0.0725292879065148
5.198,0.0736296643720281,0.069716200227874
5.204,0.0735877930064736,0.0670038653695878
5.21,0.0735196222020887,0.0643885577656496
5.216,0.0734420910972615,0.0618636100883309
5.222,0.0733706652168495,0.0594196033863655
5.228,0.0733188879836459,0.0570446380360952
5.234,0.0732979811384946,0.0547246789980579
5.24,0.073316506648717,0.0524439664591163
5.246,0.0733801009765279,0.0501854807965827
5.252,0.0734912906011257,0.0479314489388319
5.258,0.0736493953121547,0.0456638777262929
5.264,0.0738505231802483,0.0433650988485393
5.27,0.0740876584023775,0.0410183093817175
5.276,0.0743508403167415,0.0386080918779546
5.282,0.0746274291449544,0.0361208984444243
5.288,0.074902451252299,0.0335454841803467
5.294,0.0751590142648349,0.0308732767891781
5.3,0.0753787801542671,0.0280986710516488
5.306,0.0755424825545037,0.0252192390553356
5.312,0.0756304731706482,0.0222358496614544
5.318,0.0756232811737956,0.0191526933965819
5.324,0.0755021690614239,0.0159772118860246
5.33,0.0752496685361947,0.0127199338395584
5.336,0.0748500805850032,0.00939422248728243
5.342,0.0742899250293389,0.00601594202133246
5.348,0.0735583264209464,0.00260305312420595
5.354,0.0726473251354023,-0.000824850275433135
5.36,0.0715521048526485,-0.00424704908020604
5.366,0.0702711302155502,-0.00764223675035423
5.372,0.0688061912605775,-0.0109890706707786
5.378,0.0671402121487309,-0.0142543677046098
5.384,0.0652881146908667,-0.0174089506311258
5.39,0.0632875625746016,-0.0204457743172409
5.396,0.0611543911320066,-0.0233513653833867
5.402,0.058906041788331,-0.0261149885739123
5.408,0.0565610756950186,-0.0287288338021347
5.414,0.0541386696963202,-0.0311881173222709
5.42,0.0516581096744416,-0.0334910964885003
5.426,0.0491382959750434,-0.0356390002084017
5.432,0.046597274785895,-0.0376358796230315
5.438,0.0440518081391914,-0.0394883858699096
5.444,0.0415169936276741,-0.0412054836861998
5.45,0.0390059430289957,-0.0427981112883781
5.456,0.0365295269573675,-0.0442787981827049
5.462,0.0340961903949803,-0.0456612533708259
5.468,0.0317118416339483,-0.0469599368558464
5.474,0.0293798148723394,-0.0481896272837443
5.48,0.0271009044738892,-0.049364998150501
5.486,0.0248734668660075,-0.050500214197258
5.492,0.0226935841867218,-0.051608558458619
5.498,0.0205552822612127,-0.0527020990274488
5.504,0.0184507942266202,-0.0537914029551369
5.51,0.016370860227823,-0.0548853029153227
5.516,0.0143050530469048,-0.0559907203877042
5.522,0.0122421193590402,-0.057112547235274
5.528,0.0101703264320553,-0.0582535856986559
5.534,0.00807780458082231,-0.0594145451351483
5.54,0.00595287641736974,-0.0605940922390972
5.546,0.00378436495089632,-0.0617889501562576
5.552,0.00156187375429207,-0.0629940408028349
5.558,-0.000723966261224883,-0.0642026638579153
5.564,-0.00308128753793368,-0.0654067053410367
5.57,-0.00551681669367391,-0.0665968684396721
5.576,-0.00803574675221257,-0.0677629192094363
5.582,-0.0106416507928798,-0.0688939400388458
5.588,-0.0133364358269339,-0.0699785842116081
5.594,-0.0161203347378131,-0.0710053255585296
5.6,-0.0189919332654323,-0.0719626979440738
5.606,-0.0219482284446847,-0.0728395202207299
5.612,-0.0249847144273118,-0.0736251031961757
5.618,-0.0280954914753031,-0.0743094360740567
5.624,-0.0312733938539949,-0.0748833507242266
5.63,-0.0345101324960503,-0.0753386629209268
5.636,-0.0377964486434952,-0.0756682904163099
5.642,-0.0411222750040069,-0.0758663482654413
5.648,-0.0444769014937538,-0.0759282222580361
5.654,-0.0478491430989997,-0.0758506216061255
5.66,-0.0512275079005027,-0.0756316121418605
5.666,-0.0546003637871774,-0.0752706313346958
5.672,-0.0579561027632775,-0.0747684862622167
5.678,-0.061283302077617,-0.0741273355308999
5.684,-0.0645708815962521,-0.0733506558341156
5.69,-0.0678082569349181,-0.0724431935627084
5.696,-0.0709854878202986,-0.0714109015885103
5.702,-0.0740934210076498,-0.0702608611011619
5.708,-0.0771238268349283,-0.069001188169637
5.714,-0.0800695281684914,-0.0676409246409846
5.72,-0.0829245201107595,-0.0661899129664176
5.726,-0.0856840784432436,-0.064658654747299
5.732,-0.0883448544073734,-0.0630581530189871
5.738,-0.090904953062571,-0.0613997387399142
5.744,-0.093363992231043,-0.0596948824654974
5.75,-0.095723138872786,-0.0579549928246748
5.756,-0.0979509256983144,-0.0562226203694914
5.762,-0.100095104989655,-0.0544864118212519
5.768,-0.102163403464163,-0.0527542976893772
5.774,-0.104164593222934,-0.0510328927223085
5.78,-0.106108304615436,-0.0493273375480035
5.786,-0.108004812338765,-0.0476411650035849
5.792,-0.109864797823578,-0.0459761961676961
5.798,-0.111699091958184,-0.0443324707401343
5.804,-0.113518403172074,-0.0427082158573242
5.81,-0.115333036780605,-0.0410998566652028
5.816,-0.117152612246773,-0.0395020710010877
5.822,-0.118985785616438,-0.0379078894290994
5.828,-0.120839984729961,-0.0363088406017076
5.834,-0.122721165012273,-0.0346951405456731
5.84,-0.124633593493166,-0.0330559231059525
5.846,-0.126579668353671,-0.0313795073291281
5.852,-0.128559780659348,-0.0296536962412265
5.858,-0.130572224033387,-0.0278661002133835
5.864,-0.132613156862404,-0.0260044770218056
5.87,-0.134676620302824,-0.024057079805073
5.876,-0.136754613811815,-0.0220130034928289
5.882,-0.138837228251666,-0.0198625199005853
5.888,-0.140912834925616,-0.0175973916092726
5.894,-0.142968327111666,-0.0152111550249522
5.9,-0.144989408976495,-0.0126993635592025
5.906,-0.146960925144047,-0.0100597827706801
5.912,-0.148867222735039,-0.00729253047035219
5.918,-0.150692536472787,-0.00440015623387993
5.924,-0.152421386475403,-0.00138765642763211
5.93,-0.154038977678815,0.00173757733320763
5.936,-0.155531589513054,0.00496587640598503
5.942,-0.156886944441698,0.00828547818292359
5.948,-0.158094544374638,0.0116827701130436
5.954,-0.159145964653657,0.0151425889530258
5.96,-0.160035096404918,0.018648567707196
5.966,-0.160758329385467,0.022183521177092
5.972,-0.161314669120854,0.0257298597274169
5.978,-0.161705783947985,0.029270019863734
5.984,-0.161935979630342,0.03278689954839
5.99,-0.162012101295672,0.0362642858849043
5.996,-0.161943364620298,0.0396872628616072
6.002,-0.161741120283173,0.0430425873037883
6.008,-0.161418557712807,0.0463190219876232
6.014,-0.160990356020132,0.0495076160635545
6.02,-0.160472291585718,0.0526019243528083
6.026,-0.159880813135901,0.0555981588747433
6.032,-0.159232596138162,0.0584952678467301
6.038,-0.158544089014106,0.0612949395502778
6.044,-0.157831063938787,0.0640015305751201
6.05,-0.15710818492372,0.0666219201879903
6.056,-0.156388605366332,0.0691652947018193
6.062,-0.155683606442308,0.0716428677260979
6.068,-0.15500228651425,0.0740675440548506
6.074,-0.154351310272822,0.0764535365176763
6.08,-0.15373472458551,0.0788159464849158
6.086,-0.15315384612614,0.0811703196832136
6.092,-0.152607223779293,0.0835321896585445
6.098,-0.152090676704763,0.0859166215017829
6.104,-0.151597406798185,0.0883377683698969
6.11,-0.151118182209965,0.0908084529102492
6.116,-0.150641586630661,0.0933397848848003
6.122,-0.15015432725592,0.0959408252092016
6.128,-0.14964991550162,0.098644487260578
6.134,-0.149100198909229,0.101457608538799
6.14,-0.148475793202805,0.104353237044033
6.146,-0.147760061281462,0.107326306375404
6.152,-0.146937322439518,0.110369090103533
6.158,-0.145993257647932,0.113471407891792
6.164,-0.144915272570259,0.116620891487065
6.17,-0.143692809806921,0.119803302282828
6.176,-0.142317603436708,0.123002891032356
6.182,-0.140783870632019,0.126202789443865
6.188,-0.139088436921938,0.129385422840998
6.194,-0.137230793502266,0.13253293284806
6.2,-0.135213086781599,0.13562759911591
6.206,-0.133040042101552,0.138652249469422
6.212,-0.130718825164241,0.141590648466403
6.218,-0.128258846188111,0.144427855224686
6.224,-0.125671513068219,0.147150542401096
6.23,-0.122969940906062,0.149747269473978
6.236,-0.120168626101054,0.152208704765
6.242,-0.117283093813951,0.154527792122905
6.248,-0.114329527956121,0.156699859617024
6.254,-0.111324393007366,0.158722669081328
6.26,-0.108284056837483,0.160596406789803
6.266,-0.105224423410986,0.162323616913944
6.272,-0.102160583730375,0.163909080677133
6.278,-0.0991064927057755,0.165359645302688
6.284,-0.0960746788019394,0.16668400782736
6.29,-0.0930759923826325,0.167892459753042
6.296,-0.090119397627216,0.168996599169457
6.302,-0.0872118118210392,0.170009017511603
6.308,-0.0843579946617648,0.170942968470701
6.314,-0.0815604891057528,0.171812026760114
6.32,-0.0788196141486271,0.172629744440092
6.326,-0.0761335088231602,0.173409312389795
6.332,-0.0734982256716151,0.174163234227836
6.338,-0.0709078709736808,0.174903019575613
6.344,-0.0683547880961562,0.175638903035439
6.35,-0.06582977955753,0.17637959462715
6.356,-0.0633223626626181,0.177132066720203
6.362,-0.0608210529994228,0.177901381697007
6.368,-0.0583136695715995,0.17869056374423
6.374,-0.0557876549904196,0.179500517279807
6.38,-0.0532304038894761,0.180329993576375
6.386,-0.0506295925880918,0.181175606217877
6.392,-0.0479735030200638,0.182031895055051
6.398,-0.0452513340464881,0.182891437386536
6.404,-0.042453493498171,0.18374500414032
6.41,-0.0395718646310369,0.184581757966249
6.416,-0.0366000411505631,0.185389489256332
6.422,-0.0335335255034851,0.186154885340155
6.428,-0.03036988585202,0.186863827353213
6.434,-0.027108867871867,0.187501708663828
6.44,-0.0237524584282533,0.188053768181148
6.446,-0.0203048991023006,0.188505431454466
6.452,-0.0167726485630026,0.188842652179272
6.458,-0.0131642938351047,0.189052246555603
6.464,-0.00949041162419821,0.189122212941465
6.47,-0.00576338196133556,0.189042029406893
6.476,-0.0019971575115054,0.188802922067084
6.482,0.00179300701540721,0.188398097592327
6.488,0.00559085993482421,0.187822933897498
6.494,0.00937948579138313,0.187075123818838
6.5,0.0131416595480887,0.186154767533784
6.506,0.0168443674758235,0.185011827620602
6.512,0.0204714106361326,0.183709724385576
6.518,0.0240083926883878,0.182259092495522
6.524,0.0274427033400064,0.180672438913399
6.53,0.0307637817899283,0.178963843485791
6.536,0.0339633310203918,0.177148621890442
6.542,0.0370354774985974,0.175242958859529
6.548,0.0399768720657771,0.173263520423792
6.554,0.0427867292212336,0.171227054535885
6.56,0.0454668034658513,0.16914998982161
6.566,0.0480213029436213,0.16704804237341
6.572,0.0504567421736578,0.164935840391587
6.578,0.0527817372302306,0.162826576157256
6.584,0.0550067481982714,0.160731694194313
6.59,0.0571437751348533,0.158660623667951
6.596,0.059206015008288,0.156620562011116
6.602,0.0612074881391125,0.154616315480766
6.608,0.0631626435394039,0.152650200995846
6.614,0.0650859531476517,0.150722011973875
6.62,0.0669915053238316,0.148829049321057
6.626,0.0688926080568798,0.146966216994868
6.632,0.0708014121271931,0.145126179888038
6.638,0.0727285640375396,0.143299580145922
6.644,0.0746828977469892,0.141475306472187
6.65,0.076671173290028,0.139640809583859
6.656,0.0786978691692529,0.137782455703083
6.662,0.0807650339759981,0.135885909007256
6.668,0.0828722011992661,0.133936533110643
6.674,0.0850163694723111,0.131919801189444
6.68,0.0871920488372274,0.129821704087885
6.686,0.0893913718278837,0.127629145808497
6.692,0.0916042664775356,0.125330316118635
6.698,0.0938186867524581,0.122915030616213
6.704,0.0960208943619114,0.120375029474937
6.71,0.0981957846024768,0.117704227182678
6.716,0.100327247740166,0.11489890690219
6.722,0.102398556518437,0.111957854559347
6.728,0.104392769760215,0.108882429348168
6.734,0.106293141640835,0.10567656903783
6.74,0.108083526117021,0.102346730146979
6.746,0.109748766198602,0.0989017647725989
6.752,0.111275058183475,0.0953527374757796
6.758,0.112650281723838,0.0917126871416891
6.764,0.113864287523884,0.087996340140144
6.77,0.114909135619277,0.0842197822753343
6.776,0.115779278539741,0.0804000980342879
6.782,0.116471685081051,0.0765549863663302
6.788,0.116985901991778,0.0727023627527344
6.794,0.117324052449105,0.0688599575547323
6.8,0.11749077181705,0.065044920612098
6.806,0.117493082727439,0.0612734418113044
6.812,0.117340213020987,0.0575603967929671
6.818,0.117043361428831,0.0539190262808122
6.824,0.116615417126909,0.0503606565411486
6.83,0.116070640310541,0.0468944673935076
6.836,0.115424311797101,0.0435273129760726
6.842,0.114692360297327,0.0402635990846181
6.848,0.113890976404253,0.0371052195496359
6.854,0.113036222535925,0.0340515526524034
6.86,0.112143648023628,0.0310995171607465
6.866,0.11122791829853,0.0282436862022729
6.872,0.110302466657085,0.0254764558669109
6.878,0.109405536243728,0.022808491966548
6.884,0.108555283350886,0.0202161297856762
6.89,0.107732837483857,0.0176606086249747
6.896,0.106939787402142,0.015126807375885
6.902,0.106175114551818,0.0125997321868594
6.908,0.105435265072579,0.0100649179414783
6.914,0.104714281021107,0.0075088107071695
6.92,0.104003986709445,0.00491912275795289
6.926,0.103294224898077,0.00228515258960187
6.932,0.102573136619477,-0.00040193672152981
6.938,0.101827477601872,-0.0031488863946748
6.944,0.101042963582237,-0.00596016249504147
6.95,0.100204636386872,-0.0088378314013338
6.956,0.0992972423072032,-0.0117814921673147
6.962,0.0983056142455589,-0.0147882665602779
6.968,0.0972150491378229,-0.0178528462653261
6.974,0.0960116724079903,-0.0209675956102871
6.98,0.0946827815906172,-0.0241227069941446
6.986,0.0932171617934476,-0.0273064051587957
6.992,0.0916053663465105,-0.030505195483003
6.998,0.0898399567353397,-0.0337041506003282
7.004,0.0879156968522935,-0.036887228936603
7.01,0.0858296974982171,-0.040037618100438
7.016,0.083581508174708,-0.0431380956394981
7.022,0.0811731542243141,-0.0461713993026468
7.028,0.0786091185590133,-0.0491205987807081
7.034,0.0758962682913938,-0.0519694608599423
7.04,0.0730437277649766,-0.0547028000373872
7.046,0.070062700547178,-0.0573068069149966
7.052,0.066966244048466,-0.059769347095622
7.058,0.0637690014252739,-0.0620802238823156
7.064,0.0604868963522334,-0.0642313987367976
7.07,0.0571367971068456,-0.0662171643270228
7.076,0.0537361571262508,-0.0680342658727191
7.082,0.0503026397857048,-0.0696819675978435
7.088,0.046853735615553,-0.0711620621769093
7.094,0.0434063804675795,-0.072478822284156
7.1,0.0399765832607845,-0.0736388946085667
7.106,0.0365790718955913,-0.0746511379337583
7.112,0.0332269656845213,-0.0755264081908197
7.118,0.0299314822289399,-0.0762772945941735
7.124,0.0267016860579324,-0.0769178122047101
7.13,0.0235442855704259,-0.0774630573233323
7.136,0.0204634838436605,-0.0779288331501458
7.142,0.0174608877702137,-0.0783312539811109
7.148,0.0145354787387423,-0.0786863369132527
7.154,0.0116836466777187,-0.079009590546158
7.16,0.0088992878803719,-0.0793156104451351
7.166,0.00617396546018902,-0.0796176912334472
7.172,0.00349712981422986,-0.0799274650229992
7.178,0.000856394913855914,-0.080254575467192
7.184,-0.00176213518071307,-0.0806063961335148
7.19,-0.00437349657708488,-0.0809878009874999
7.196,-0.00699346079336464,-0.0814009937137163
7.202,-0.00963810427704821,-0.0818454013005212
7.208,-0.0123233623464448,-0.0823176358663818
7.214,-0.0150645783592791,-0.0828115270785789
7.22,-0.0178760592525008,-0.0833182258402105
7.226,-0.0207706487557905,-0.0838263780884468
7.232,-0.0237593293500685,-0.0843223658230579
7.238,-0.026850863615577,-0.0847906106255621
7.244,-0.0300514848140601,-0.0852139333204638
7.25,-0.0333646455636176,-0.085573961779534
7.256,-0.0368687118057735,-0.0858353198922031
7.262,-0.0404767695103469,-0.0859718387791606
7.268,-0.0441780293056876,-0.0859661333917251
7.274,-0.0479590442339107,-0.0858025240736079
7.28,-0.0518040092037162,-0.0854674343017374
7.286,-0.0556951195934602,-0.0849497362313834
7.292,-0.0596129800691328,-0.084241035251855
7.298,-0.0635370533260324,-0.0833358862524269
7.304,-0.0674461374344342,-0.0822319360481578
7.31,-0.0713188596634609,-0.0809299882653703
7.316,-0.0751341742205333,-0.0794339890095543
7.322,-0.078871851201797,-0.0777509336385521
7.328,-0.0825129442444139,-0.0758906970398863
7.334,-0.0860402249218322,-0.07386579177318
7.34,-0.0894385727355382,-0.0716910603376065
7.346,-0.0926953107533823,-0.069383309531404
7.352,-0.0958004782993493,-0.0669608963744746
7.358,-0.0987470337928304,-0.0644432763579666
7.364,-0.101530982624566,-0.0618505257140326
7.37,-0.104151426939403,-0.0592028501218145
7.376,-0.106610536236147,-0.0565200925585289
7.382,-0.10891343977178,-0.0538212530303292
7.388,-0.111068043779389,-0.0511240325648726
7.394,-0.113084778518225,-0.0484444131957291
7.4,-0.114976281921341,-0.0457962846609708
7.406,-0.116757028323321,-0.0431911273255152
7.412,-0.118442912080188,-0.0406377592744997
7.418,-0.120050797086116,-0.038142153858967
7.424,-0.121598043989732,-0.0357073320841488
7.43,-0.123102027464066,-0.0333333322486384
7.436,-0.124579656058043,-0.0310172572377593
7.442,-0.126046907014892,-0.0287533978293828
7.448,-0.127518387999883,-0.0265334284145068
7.454,-0.12900693686027,-0.0243466696778517
7.46,-0.130523269522684,-0.0221804110827323
7.466,-0.132075684774945,-0.0200202845154542
7.472,-0.133669833171444,-0.0178506791881514
7.478,-0.135308555579293,-0.0156551869104918
7.484,-0.136991795033473,-0.0134170661684057
7.49,-0.138716583706293,-0.0111197130426195
7.496,-0.14047710479348,-0.00874712694910371
7.502,-0.142264827272317,-0.00628435942736549
7.508,-0.144068709626235,-0.00371793472841039
7.514,-0.145875466924348,-0.00103623179645433
7.52,-0.14766989411846,0.00177018169476446
7.526,-0.149435237056173,0.00470827127906682
7.532,-0.151153601634406,0.00778232017743814
7.538,-0.152806390637952,0.0109937812262414
7.544,-0.154374757255717,0.0143411994522296
7.55,-0.155840063961538,0.017820206719563
7.556,-0.157184335456687,0.0214235880690789
7.562,-0.158390694612605,0.0251414176211502
7.568,-0.159443770928608,0.0289612602604488
7.574,-0.160330071776853,0.0328684337490499
7.58,-0.161038307717657,0.0368463245193144
7.586,-0.161559664380954,0.0408767492095639
7.592,-0.161888014746729,0.0449403529712967
7.598,-0.162020067175222,0.0490170348271664
7.604,-0.161955446050746,0.053086389819564
7.61,-0.161696703577938,0.057128157406544
7.616,-0.161249262841248,0.0611226655368238
7.622,-0.160621293860518,0.065051260025508
7.628,-0.159801000942417,0.0688667404267767
7.634,-0.15881551250357,0.0725448529697671
7.64,-0.157708951427135,0.0761029381486272
7.646,-0.156499483151308,0.0795347417027229
7.652,-0.155205628548983,0.0828368377231111
7.658,-0.153845829544925,0.0860086201313438
7.664,-0.152438025024441,0.0890522290677943
7.67,-0.150999246499014,0.0919724151136803
7.676,-0.149545242342137,0.0947763455820519
7.682,-0.148090138586887,0.0974733583099975
7.688,-0.14664614333014,0.100074669433422
7.694,-0.145223300663814,0.102593042507726
7.7,-0.143829298893989,0.105042427045798
7.706,-0.142469336501383,0.107437575088839
7.712,-0.141146048023565,0.109793644715168
