"Freq [GHz]","re(S(Antenna1_1_1,Antenna1_1_1)) []","im(S(Antenna1_1_1,Antenna1_1_1)) []"
1,-0.797770462143523,-0.495912245361728
1.01,-0.817244088881211,-0.456472431817642
1.02,-0.835124199953672,-0.41481183373705
1.03,-0.851165797366261,-0.370861138602626
1.04,-0.86508901416399,-0.32456188811446
1.05,-0.876574804090787,-0.275871949235815
1.06,-0.885260559820523,-0.224772631476282
1.07,-0.890735926277559,-0.171277837731201
1.08,-0.892539227202434,-0.115445682375302
1.09,-0.890155131962143,-0.0573930323918954
1.1,-0.883014467715151,0.00268660026335004
1.11,-0.870497436880391,0.064501503088826
1.12,-0.851941927038127,0.127636493519558
1.13,-0.826659071051243,0.191524366557753
1.14,-0.793958657363483,0.25541528388706
1.15,-0.753187263879626,0.318346524026006
1.16,-0.704107724109525,0.37923696675253
1.17,-0.646504123379247,0.436842049603615
1.18,-0.579651050388603,0.489310254479536
1.19,-0.503727754410737,0.534710829314022
1.2,-0.419370833996737,0.570965625145185
1.21,-0.327768704136773,0.59596842720776
1.22,-0.230722633913325,0.607753018828903
1.23,-0.130648889642879,0.604700280935294
1.24,-0.0304992867670072,0.585760339988834
1.25,0.066410980993737,0.550652239382468
1.26,0.156659283097223,0.499996797005138
1.27,0.237022432792175,0.435343860935861
1.28,0.304782547808148,0.359074830818769
1.29,0.357974348554742,0.274190405775535
1.3,0.395528356429841,0.184021930749627
1.31,0.417290341208473,0.091921633549958
1.32,0.424503553069301,-0.000491834987947979
1.33,0.41785127344233,-0.0897123027373588
1.34,0.398843837817408,-0.1731696450784
1.35,0.369445764105693,-0.249365430909636
1.36,0.33167081977429,-0.317362137060229
1.37,0.287447594200816,-0.376704612213158
1.38,0.238531514190476,-0.427322854481455
1.39,0.186457629364554,-0.469433361244151
1.4,0.132524907501106,-0.503449968577438
1.41,0.0778022639581847,-0.529909572244424
1.42,0.0231478004541877,-0.549414129883332
1.43,-0.0307653125116441,-0.562587903107537
1.44,-0.0834208841386362,-0.570047690409072
1.45,-0.134432570820267,-0.572383427810367
1.46,-0.183519176395177,-0.570146646365537
1.47,-0.230483116987056,-0.563844621722466
1.48,-0.275192219432074,-0.553938471523161
1.49,-0.317564694678555,-0.540843862781459
1.5,-0.357556960299825,-0.524933342792886
1.51,-0.395153921563959,-0.506539590908572
1.52,-0.430361316421171,-0.485959107046491
1.53,-0.463199758482216,-0.463456015298765
1.54,-0.493700155670327,-0.439265778060262
1.55,-0.521900230086404,-0.413598698475292
1.56,-0.547841910914159,-0.386643145247698
1.57,-0.571569413873871,-0.358568471359451
1.58,-0.593127856763285,-0.329527622286589
1.59,-0.612562290899305,-0.29965944409661
1.6,-0.629917053150875,-0.269090710234924
1.61,-0.645235363443164,-0.23793789006248
1.62,-0.658559108809468,-0.206308683589278
1.63,-0.669726385699759,-0.174079066272615
1.64,-0.678726920748978,-0.141388161065885
1.65,-0.685789932153045,-0.108568849648073
1.66,-0.690959071602319,-0.0757106350497664
1.67,-0.694277464337391,-0.0428985948330737
1.68,-0.695787882894849,-0.01021394351662
1.69,-0.695532934397387,0.0222655005834063
1.7,-0.693555253827597,0.0544649321264339
1.71,-0.689897697497135,0.0863122487067374
1.72,-0.684603532215812,0.117737804856735
1.73,-0.67771661675249,0.14867422212919
1.74,-0.669281572939093,0.179056248278818
1.75,-0.659343944386243,0.208820659418992
1.76,-0.64795034124589,0.237906199768583
1.77,-0.635148569813932,0.266253554205927
1.78,-0.620987746034827,0.293805349384895
1.79,-0.605518392204529,0.320506179596931
1.8,-0.588792516319837,0.346302653916556
1.81,-0.570863673678093,0.371143461517571
1.82,-0.551787010455941,0.394979452237957
1.83,-0.531619289077905,0.417763729738208
1.84,-0.51041889531677,0.439451754733104
1.85,-0.488245827128328,0.46000145596242
1.86,-0.46516166534713,0.479373346645603
1.87,-0.441229526428569,0.497530644317638
1.88,-0.416513997558449,0.51443939200668
1.89,-0.391081054514659,0.530068578817986
1.9,-0.364997962788033,0.544390258061779
1.91,-0.338333162575395,0.557379661158289
1.92,-0.311156138354032,0.569015305580934
1.93,-0.283537273864505,0.57927909532403
1.94,-0.255535054127461,0.588073408381199
1.95,-0.227225123820569,0.595220767371524
1.96,-0.198734509612502,0.600965943192512
1.97,-0.170134499256304,0.605309678207739
1.98,-0.14149600504051,0.60825630270715
1.99,-0.112889368722406,0.609813734855248
2,-0.0843841624080163,0.609993466071463
2.01,-0.0560489868328916,0.608810531339242
2.02,-0.027951268555779,0.606283464071665
2.03,-0.000157057617216955,0.602434235317558
2.04,0.0272691728038993,0.597288177236517
2.05,0.0542647231626287,0.590873890951242
2.06,0.0807688592385179,0.583223139026326
2.07,0.106722997218916,0.574370722997047
2.08,0.132070880751735,0.564354346502675
2.09,0.156758748572878,0.553214464763826
2.1,0.180735491418049,0.540994121230849
2.11,0.203952797018054,0.527738772409786
2.12,0.226365282086986,0.51349610196228
2.13,0.247930610341166,0.498315825274549
2.14,0.26860959572005,0.482249485813697
2.15,0.288366290112305,0.465350244617272
2.16,0.307168055040318,0.447672664360409
2.17,0.324985616930067,0.42927248945841
2.18,0.341793105708833,0.41020642369844
2.19,0.357568076663165,0.390531906889946
2.2,0.372291515612086,0.370306892024564
2.21,0.385947827628482,0.349589624387304
2.22,0.398524809648343,0.328438424042435
2.23,0.410013607481025,0.306911473037886
2.24,0.420408657812955,0.285066608606272
2.25,0.42970761595206,0.262961123567294
2.26,0.437890012473311,0.240944666612778
2.27,0.445023828228229,0.218773891125679
2.28,0.451114351977427,0.196498991349543
2.29,0.456169309443453,0.174169099590987
2.3,0.460198752560453,0.151832164705435
2.31,0.463214942463342,0.129534841143072
2.32,0.465232227245543,0.107322388832568
2.33,0.466266915521429,0.0852385840997929
2.34,0.46633714684212,0.0633256417089931
2.35,0.465462759958548,0.041624147990761
2.36,0.463665159917003,0.0201730049628391
2.37,0.460967184936878,-0.00099061476694134
2.38,0.457392973949834,-0.0218313025956632
2.39,0.45296783565139,-0.0423154383807552
2.4,0.44771811984987,-0.062411205162158
2.41,0.441671091824972,-0.0820885946534074
2.42,0.434854810342784,-0.101319404006909
2.43,0.427298009930091,-0.120077224439878
2.44,0.419029987906025,-0.138337422317432
2.45,0.410080496619528,-0.15607711330996
2.46,0.400479641265467,-0.173275130289345
2.47,0.390257783588306,-0.18991198559304
2.48,0.37944545171159,-0.205969828324139
2.49,0.368073256259809,-0.221432397349087
2.5,0.356171812899792,-0.236284970611084
2.51,0.343771671348143,-0.250514311415266
2.52,0.330903250843659,-0.264108612280447
2.53,0.317596782052317,-0.277057436957279
2.54,0.303882255287655,-0.289351661160531
2.55,0.28978937493502,-0.30098341256745
2.56,0.275347519885569,-0.31194601057117
2.57,0.26056276339409,-0.322369214355536
2.58,0.245453856766577,-0.33214882318578
2.59,0.230054611452722,-0.341232106371729
2.6,0.214394747220449,-0.349613672389944
2.61,0.198503791326349,-0.357289237152771
2.62,0.182411051249936,-0.364255589803959
2.63,0.166145590244629,-0.370510559325589
2.64,0.149736205474266,-0.376052982098726
2.65,0.133211408546331,-0.380882670527685
2.66,0.116599408206464,-0.38500038284531
2.67,0.0999280950180718,-0.38840779416257
2.68,0.0832250278086004,-0.391107468831144
2.69,0.0665174217042248,-0.393102834154047
2.7,0.0498321375739909,-0.394398155476371
2.71,0.0331956726966364,-0.394998512668085
2.72,0.0166341525152765,-0.394909777998272
2.73,0.000173323299585772,-0.39413859540005
2.74,-0.0161614543970898,-0.392692361105339
2.75,-0.0323452116353069,-0.390579205631357
2.76,-0.0483533764574271,-0.387807977087989
2.77,-0.0641617788247123,-0.384388225792464
2.78,-0.0797466552459776,-0.380330190139528
2.79,-0.0950846531731107,-0.375644783721018
2.8,-0.110152835260299,-0.370343583650105
2.81,-0.12492868356552,-0.364438820067639
2.82,-0.139390103773409,-0.357943366815561
2.83,-0.153515429509946,-0.350870733244383
2.84,-0.167283426822902,-0.343235057153896
2.85,-0.18067329890228,-0.335051098846561
2.86,-0.193664691108186,-0.326334236287122
2.87,-0.206237696392825,-0.317100461376861
2.88,-0.218346631574793,-0.307286255040169
2.89,-0.229954175456493,-0.296916593658698
2.9,-0.241063002229099,-0.286094097612969
2.91,-0.251656541903412,-0.274839590643678
2.92,-0.261718909496055,-0.263174363656853
2.93,-0.271234902254622,-0.251120162766158
2.94,-0.280189997032546,-0.238699179491698
2.95,-0.288570348038387,-0.225934043183419
2.96,-0.296362785238885,-0.212847815707948
2.97,-0.303554813690103,-0.199463988442437
2.98,-0.310134614110128,-0.185806481569008
2.99,-0.316091045018681,-0.171899645663079
3,-0.321413646808193,-0.157768265520201
3.01,-0.32609264810395,-0.143437566143198
3.02,-0.330118974821158,-0.128933220758847
3.03,-0.333484262316588,-0.114281360693969
3.04,-0.336180871065969,-0.0995085868964218
3.05,-0.338201906295677,-0.0846419828064207
3.06,-0.339541242001416,-0.0697091282481552
3.07,-0.340193549793454,-0.0547381139258375
3.08,-0.340154332991254,-0.03975755602143
3.09,-0.339419966362684,-0.0247966103585169
3.1,-0.337987741893035,-0.00988498544587516
3.11,-0.335855920907166,0.00494704631999596
3.12,-0.333023792829799,0.0196686401165674
3.13,-0.329491740781711,0.0342483738035795
3.14,-0.325261314134716,0.0486542475233564
3.15,-0.320335308037511,0.0628536892231755
3.16,-0.314717849802157,0.0768135668182763
3.17,-0.308414491885827,0.0905002087593661
3.18,-0.301432311053069,0.103879433877884
3.19,-0.293771227767968,0.116874210770804
3.2,-0.28543687724486,0.129364341753823
3.21,-0.276475359938421,0.141442669602716
3.22,-0.266900552708213,0.153075254292277
3.23,-0.256728286794347,0.164227932265559
3.24,-0.245976468658399,0.174866422857887
3.25,-0.234665198329249,0.184956453515702
3.26,-0.222816882852194,0.194463904801406
3.27,-0.210456342196476,0.20335497554574
3.28,-0.197610904717304,0.211596368518757
3.29,-0.184310489165102,0.219155496464624
3.3,-0.170587669848042,0.226000707904797
3.31,-0.156477721769414,0.232101531686334
3.32,-0.142018642255448,0.237428938680676
3.33,-0.127251145772438,0.241955618503442
3.34,-0.112218628777498,0.24565626851003
3.35,-0.0969671015957237,0.248507891768415
3.36,-0.0815450848351179,0.250490100075779
3.37,-0.0660034681731443,0.251585417578803
3.38,-0.0503953299351975,0.251779580027313
3.39,-0.034775716750696,0.251061824285278
3.4,-0.0192013831570446,0.249425162398889
3.41,-0.0037304919698884,0.246866634324526
3.42,0.0115777227609508,0.243387533377212
3.43,0.0266633274627436,0.238993598556561
3.44,0.0414660917971363,0.233695168217185
3.45,0.0559259176457648,0.227507289986609
3.46,0.0699832888534103,0.22044978249955
3.47,0.0835797353745581,0.21254724535117
3.48,0.0966583047803593,0.203829014524326
3.49,0.109164033570131,0.19432906182568
3.5,0.121044410690726,0.184085837908806
3.51,0.1319965867176,0.173140390654987
3.52,0.142222165311093,0.161565098565325
3.53,0.151680100585788,0.149411093132761
3.54,0.160333489660972,0.136732750963627
3.55,0.168149881131459,0.123587285973714
3.56,0.175101534211257,0.11003430787645
3.57,0.181165624550106,0.0961353542000679
3.58,0.18632439390093,0.0819534033841967
3.59,0.190565242056492,0.0675523769006556
3.6,0.193880760737193,0.0529966383046336
3.61,0.19626871031647,0.0383504969666161
3.62,0.197731941438228,0.0236777240068252
3.63,0.198278264608153,0.00904108711476794
3.64,0.197920271765532,-0.00549808944492589
3.65,0.196675114572898,-0.0198803344302291
3.66,0.194569833704142,-0.0339327921883478
3.67,0.19165777984244,-0.0475203157308199
3.68,0.187970484379374,-0.0607844059450762
3.69,0.183541192620874,-0.0736791874810225
3.7,0.178405956266693,-0.0861621964260464
3.71,0.172603264053382,-0.0981945357272506
3.72,0.166173669878081,-0.109740988257755
3.73,0.159159423433969,-0.120770089181452
3.74,0.151604107684068,-0.131254159890172
3.75,0.143552287181202,-0.141169306191831
3.76,0.135049170489489,-0.150495383649374
3.77,0.126140289606052,-0.159215933392098
3.78,0.116871198277245,-0.167318091679172
3.79,0.107287191235416,-0.174792476611807
3.8,0.0974330452008018,-0.181633055347817
3.81,0.0873527823966382,-0.187836995050285
3.82,0.0774348695391827,-0.193461278257716
3.83,0.0674881955708962,-0.198519121526333
3.84,0.0574335837453971,-0.203004433852777
3.85,0.0473054780658435,-0.20692539874775
3.86,0.0371366912018615,-0.210292170670663
3.87,0.026958321590493,-0.213116681827911
3.88,0.0167996894898279,-0.215412451324114
3.89,0.00668829075525865,-0.21719439790386
3.9,-0.003350232937006,-0.218478657857707
3.91,-0.0132921088714146,-0.219282408821673
3.92,-0.0231154344248118,-0.219623700533669
3.93,-0.0328001657774645,-0.219521293113693
3.94,-0.0423280956208103,-0.218994503357244
3.95,-0.0516828210063095,-0.218063059363344
3.96,-0.0608497024654232,-0.216746963919064
3.97,-0.0698158156219726,-0.215066366470617
3.98,-0.078569896172402,-0.213041443935797
3.99,-0.0871022792857817,-0.210692290252387
4,-0.0954048342429222,-0.20803881448081
4.01,-0.103470895142008,-0.20510064742527
4.02,-0.111295188387298,-0.201897056474475
4.03,-0.118873757637348,-0.19844686845948
4.04,-0.126203886809441,-0.194768400260756
4.05,-0.133284021702898,-0.190879396998211
4.06,-0.140113690688664,-0.186796977335402
4.07,-0.146693425005271,-0.182537585691489
4.08,-0.153024678921291,-0.178116951200806
4.09,-0.15910975023763,-0.173550052899331
4.1,-0.164951701396725,-0.16885109096928
4.11,-0.170554281516736,-0.164033463816661
4.12,-0.175921849571804,-0.159109750541729
4.13,-0.181283432673213,-0.154236512858064
4.14,-0.186672061213373,-0.149387089012388
4.15,-0.191875228664884,-0.144411443303718
4.16,-0.196894763440002,-0.139315731196933
4.17,-0.201732505591548,-0.134105571961935
4.18,-0.20639026082424,-0.12878607553737
4.19,-0.210869758035507,-0.12336187181098
4.2,-0.215172610286629,-0.11783714204522
4.21,-0.219300279358564,-0.112215652221526
4.22,-0.223254043891627,-0.106500787980519
4.23,-0.227034970954303,-0.10069559091626
4.24,-0.230643891243607,-0.0948027959656074
4.25,-0.234081377697479,-0.0888248696485872
4.26,-0.237347727568551,-0.0827640489356978
4.27,-0.240442947858139,-0.0766223804964414
4.28,-0.243366744169401,-0.0704017601402632
4.29,-0.246118512689167,-0.0641039722455233
4.3,-0.248697335518873,-0.0577307289140354
4.31,-0.251101978936327,-0.051283708740292
4.32,-0.253330894831551,-0.0447645949914187
4.33,-0.255382224961673,-0.0381751130063283
4.34,-0.25725380805174,-0.0315170666374571
4.35,-0.258943189610348,-0.024792373612879
4.36,-0.260447634351046,-0.0180030997005829
4.37,-0.261764141062677,-0.0111514913802961
4.38,-0.262889459833932,-0.00424000712139701
4.39,-0.263820111499657,0.00272865309165646
4.4,-0.264552409249586,0.00975151988244787
4.41,-0.265082482043343,0.0168253285381194
4.42,-0.265406299978714,0.0239464950391557
4.43,-0.265519701254215,0.0311110940736332
4.44,-0.26541594173707,0.038429078724631
4.45,-0.26505272341163,0.0461241345382748
4.46,-0.264413273925203,0.0538451151287849
4.47,-0.263493423822076,0.0615821619760451
4.48,-0.262289344295286,0.069325013260459
4.49,-0.260797579944374,0.0770630169492975
4.5,-0.259015080781964,0.0847851462282886
4.51,-0.256939233277562,0.0924800173018916
4.52,-0.254567890460394,0.100135909295483
4.53,-0.251899400680504,0.107740786412573
4.54,-0.248932635198607,0.115282322040173
4.55,-0.245667014230445,0.122747924875478
4.56,-0.242102531452489,0.130124766917202
4.57,-0.23823977683694,0.137399813175082
4.58,-0.234079957674941,0.144559853051375
4.59,-0.229624917757832,0.151591533228456
4.6,-0.224877154587133,0.158481392007031
4.61,-0.219839834434683,0.165215894859865
4.62,-0.214516805415074,0.171781471176388
4.63,-0.208912608233144,0.17816455204301
4.64,-0.203032484759836,0.184351608861474
4.65,-0.196882384250231,0.190329192722112
4.66,-0.190468967227974,0.196083974401285
4.67,-0.183799606970691,0.201602784787648
4.68,-0.176882388651258,0.206872655642641
4.69,-0.169726105930053,0.21188086051873
4.7,-0.16234025522347,0.21661495571054
4.71,-0.154735027464116,0.221062821057095
4.72,-0.146921297508176,0.225212700564192
4.73,-0.138910611025405,0.229053242465224
4.74,-0.13071516910724,0.232573538905204
4.75,-0.122347810448368,0.235763164791232
4.76,-0.113429168367,0.238331798994132
4.77,-0.104398742218909,0.240505943364435
4.78,-0.0952747730400721,0.242279608436319
4.79,-0.0860758403925176,0.243647687563523
4.8,-0.0768208171576724,0.244605976121603
4.81,-0.0675288233011902,0.24515118834127
4.82,-0.0582191786728958,0.245280971517818
4.83,-0.0489113551150895,0.244993917721953
4.84,-0.0396249278820607,0.244289572877532
4.85,-0.030379526570239,0.243168443251938
4.86,-0.0211947857869563,0.241631999274962
4.87,-0.0120902955783526,0.23968267671215
4.88,-0.0030855518499769,0.237323875128676
4.89,0.00580009310883312,0.234559953809795
4.9,0.0145474798311999,0.231396224923921
4.91,0.0231376904834677,0.227838944124308
4.92,0.0315520971218466,0.223895298575198
4.93,0.0397724092397923,0.219573392368149
4.94,0.0477807205584369,0.214882229544036
4.95,0.0555595547298528,0.209831694516008
4.96,0.063091910105871,0.204432530238347
4.97,0.0703613031516087,0.198696313985873
4.98,0.0773518105862513,0.192635430868146
4.99,0.0840481100550403,0.186263045242295
5,0.0904355192267387,0.179593070007831
5.01,0.0965000332411883,0.17264013389633
5.02,0.102228360311852,0.165419546898265
5.03,0.107607955528468,0.157947263928761
5.04,0.112627052655172,0.150239846723367
5.05,0.117274693919569,0.142314424304322
5.06,0.121540757668363,0.134188651867097
5.07,0.125047178905219,0.12578394284629
5.08,0.128020772686497,0.117232837456196
5.09,0.130579773370469,0.108594314620648
5.1,0.13272235276549,0.0998881401098932
5.11,0.134447636022406,0.0911340451768241
5.12,0.135755693056225,0.0823516799486231
5.13,0.136647527601727,0.0735605676634992
5.14,0.137125064037315,0.0647800598665504
5.15,0.137191132100864,0.0560292926749652
5.16,0.136849449430801,0.0473271442061703
5.17,0.136104602154972,0.0386921933441157
5.18,0.134962023549084,0.0301426797477109
5.19,0.13342797090571,0.0216964655079672
5.2,0.131509500653882,0.0133709981446599
5.21,0.129214441898298,0.00518327537665783
5.22,0.126551368386009,-0.00285018849659163
5.23,0.123529569187281,-0.010713394485501
5.24,0.120159017965974,-0.0183908889363057
5.25,0.116450341143367,-0.0258677917765932
5.26,0.112414785027881,-0.0331298228447818
5.27,0.108064181901495,-0.0401633263381941
5.28,0.103410915371993,-0.0469552932445117
5.29,0.0984678849683696,-0.0534933819614127
5.3,0.0932484701418493,-0.0597659367890854
5.31,0.0877664937490421,-0.0657620046000516
5.32,0.0820361852187,-0.0714713494503026
5.33,0.0760721433974857,-0.0768844653051668
5.34,0.0698892992520009,-0.0819925867925279
5.35,0.0635028785101557,-0.0867876980850361
5.36,0.0569283643437308,-0.0912625398917594
5.37,0.0501814601797937,-0.0954106146082612
5.38,0.0433899626953758,-0.0990418191224647
5.39,0.0365993293696588,-0.102172780901692
5.4,0.0297213992127554,-0.104993339234112
5.41,0.0227695799461032,-0.107502841515338
5.42,0.0157571410175161,-0.109701178008207
5.43,0.0086971945420838,-0.111588766850688
5.44,0.00160267748743143,-0.113166538533589
5.45,-0.00551366498166878,-0.114435920136084
5.46,-0.0126392950255976,-0.115398819243162
5.47,-0.0197618964763837,-0.116057607794941
5.48,-0.0268693881063933,-0.11641510584325
5.49,-0.0339499358075708,-0.1164745652562
5.5,-0.0409919638195802,-0.116239653586441
5.51,-0.0479841649847629,-0.11571443802358
5.52,-0.0549155100869204,-0.114903369565861
5.53,-0.0617752563595228,-0.113811267400606
5.54,-0.0685529552669988,-0.112443303651208
5.55,-0.0752384595502185,-0.110804988381756
5.56,-0.0818219296841367,-0.108902154973487
5.57,-0.0882938397417577,-0.106740945892378
5.58,-0.0946449827941218,-0.10432779882009
5.59,-0.100866475950834,-0.101669433175371
5.6,-0.106949764989785,-0.0987728370180245
5.61,-0.112886628758131,-0.0956452543085779
5.62,-0.118669183419309,-0.0922941725155274
5.63,-0.124289886442819,-0.0887273105134088
5.64,-0.129741540654921,-0.0849526067801498
5.65,-0.135017298148982,-0.0809782077862528
5.66,-0.140110664254376,-0.0768124565974247
5.67,-0.145015501552374,-0.0724638815032234
5.68,-0.149726033976546,-0.0679411848312093
5.69,-0.154215575343964,-0.0633078263550665
