"Freq [GHz]","re(S(Antenna1_1_1,Antenna1_1_1)) []","im(S(Antenna1_1_1,Antenna1_1_1)) []"
1,-0.797792897954223,-0.496070340657658
1.01,-0.817312773802911,-0.456654344796812
1.02,-0.835247657310172,-0.41501275810831
1.03,-0.851352309419161,-0.371075240458026
1.04,-0.86534652182859,-0.32478230330776
1.05,-0.876910804795887,-0.276090789872015
1.06,-0.885682004286223,-0.224981001746882
1.07,-0.891249115016959,-0.171465859272201
1.08,-0.893149707561534,-0.115602529253302
1.09,-0.890867596532543,-0.0575069757688954
1.1,-0.883832654963151,0.00262813782035004
1.11,-0.871424034837791,0.064511883730826
1.12,-0.852978480893027,0.127729790853558
1.13,-0.827805895484423,0.191715283208753
1.14,-0.795214754442984,0.25571906020606
1.15,-0.754550247323526,0.318778838298006
1.16,-0.705473683992125,0.37989897328453
1.17,-0.647659178031347,0.437859492208615
1.18,-0.580530963854603,0.490646487404536
1.19,-0.504271614688737,0.536322037664022
1.2,-0.419521746273737,0.572801054546085
1.21,-0.327474469723773,0.59797067633291
1.22,-0.229936409478325,0.609858393910303
1.23,-0.129329821404879,0.606839210919694
1.24,-0.0286131143740072,0.587857850578834
1.25,0.068891356016737,0.552628483752468
1.26,0.159753269312223,0.501767640573138
1.27,0.240741266007175,0.436821517146861
1.28,0.309128857978148,0.360168544499769
1.29,0.362941780728742,0.274807180243535
1.3,0.401101249740841,0.184067294489627
1.31,0.423443469604553,0.091300441909958
1.32,0.430513111449301,-0.00175758176794798
1.33,0.42344148975033,-0.0915510647873588
1.34,0.403971979429408,-0.1755274370784
1.35,0.374074209079733,-0.252185099761636
1.36,0.33576730449929,-0.320583797829229
1.37,0.290985425181816,-0.380266103787158
1.38,0.241489742412476,-0.431160212241455
1.39,0.188821185884554,-0.473481303605151
1.4,0.134284699194106,-0.507642394331438
1.41,0.0789552285391847,-0.534180065515425
1.42,0.0236969201941877,-0.553696469420332
1.43,-0.0308110387386441,-0.566816572611937
1.44,-0.0840465105586362,-0.574158386561972
1.45,-0.135617316034267,-0.576313562655367
1.46,-0.185236575808177,-0.573835840716537
1.47,-0.232701215669056,-0.567235186312266
1.48,-0.277873804489074,-0.556975872633161
1.49,-0.320667565894555,-0.543477169197459
1.5,-0.361034237620825,-0.527115651009886
1.51,-0.398954387702959,-0.508228425604572
1.52,-0.434429792670171,-0.487116794015491
1.53,-0.467477511571216,-0.464050024130765
1.54,-0.498125333299027,-0.439269032069262
1.55,-0.526408322576804,-0.412989849523292
1.56,-0.55236623622316,-0.385406811325698
1.57,-0.576041623042871,-0.356695434992451
1.58,-0.597478456730285,-0.327014988067589
1.59,-0.616721181459005,-0.29651075386561
1.6,-0.633814074723875,-0.265316014699924
1.61,-0.648800852215164,-0.23355377586248
1.62,-0.661724455732468,-0.201338255174278
1.63,-0.672390200681759,-0.168714589528615
1.64,-0.680827508562978,-0.135838695034884
1.65,-0.687316463602045,-0.102886001781073
1.66,-0.691905043936319,-0.0699465814197664
1.67,-0.694640730625391,-0.0371057341890737
1.68,-0.695570654447849,-0.00444454971941997
1.69,-0.694741756142387,0.0279596256826063
1.7,-0.692200952706597,0.0600328033064339
1.71,-0.687995304075135,0.0917040374207374
1.72,-0.682172175894812,0.122905172665735
1.73,-0.67477939509549,0.15357064549619
1.74,-0.665865395784093,0.183637332755818
1.75,-0.655479353571243,0.213044441296292
1.76,-0.64367130691689,0.241733433317583
1.77,-0.630492264417932,0.269647982734927
1.78,-0.615994297243827,0.296733958383895
1.79,-0.600230616145529,0.322939430368931
1.8,-0.583255632599837,0.348214696179556
1.81,-0.565125003818093,0.372512323572571
1.82,-0.545895661441941,0.395787207428957
1.83,-0.525625823850905,0.417996638046208
1.84,-0.504374992087969,0.439100378494104
1.85,-0.482203929512828,0.45906074883142
1.86,-0.45917462534573,0.477842715082603
1.87,-0.435350242373569,0.495413981020638
1.88,-0.410795049160449,0.51174508088168
1.89,-0.385574337193659,0.526809471224986
1.9,-0.359754323490033,0.540583620248779
1.91,-0.333402039292595,0.553047092952289
1.92,-0.306585205545432,0.564182630605934
1.93,-0.279372095984505,0.57397622309503
1.94,-0.251861149722461,0.582367833246199
1.95,-0.224195977407569,0.589266094411524
1.96,-0.196363057680502,0.594825342640512
1.97,-0.168428078506304,0.599046764718739
1.98,-0.14045635334151,0.60193467036715
1.99,-0.112512663030406,0.603496494105248
2,-0.0846610934000163,0.603742785411963
2.01,-0.0569648698158916,0.602687186643142
2.02,-0.029486189984779,0.600346398293565
2.03,-0.00228605634821695,0.596740131325858
2.04,0.0245758906008993,0.591891046441517
2.05,0.0510415367106287,0.585824680303242
2.06,0.0770544549395179,0.578569358870327
2.07,0.102560061195916,0.570156098151047
2.08,0.127505763960735,0.560618492803775
2.09,0.151841106497878,0.549992593179326
2.1,0.175517900509049,0.538316771496849
2.11,0.198490350169054,0.525631577973786
2.12,0.220715165612986,0.51197958784528
2.13,0.242151665000166,0.497405240287549
2.14,0.26276186445505,0.481954670350697
2.15,0.282510555283305,0.465675535072272
2.16,0.301365367983918,0.448616834990409
2.17,0.319296822753567,0.43082873229441
2.18,0.336278366275163,0.41236236691144
2.19,0.352286394748865,0.393269671774946
2.2,0.367300263246186,0.373603188544564
2.21,0.381302281603482,0.353415885006304
2.22,0.394277697196343,0.332760975331435
2.23,0.406214665045025,0.311691744325886
2.24,0.417104205828755,0.290261376722272
2.25,0.42694015245666,0.268522792494294
2.26,0.435799852529711,0.246627858361778
2.27,0.443609922223229,0.224509498245679
2.28,0.450369377658427,0.202218789121543
2.29,0.456079788899453,0.179806272060987
2.3,0.460745210970453,0.157321819175435
2.31,0.464372107604342,0.134814507926072
2.32,0.466969268518543,0.112332503162368
2.33,0.468547721035429,0.0899229471957929
2.34,0.46912063686112,0.0676318580908931
2.35,0.468703234804548,0.045504036291051
2.36,0.467312680226003,0.0235829796142391
2.37,0.464967981962878,0.00191080657695866
2.38,0.461689887436834,-0.0194718120607632
2.39,0.45750077662339,-0.0405257136964552
2.4,0.45242455550887,-0.061213296456758
2.41,0.446486549617972,-0.0814985642049074
2.42,0.439713398130784,-0.101347164293609
2.43,0.432132949082291,-0.120726418400678
2.44,0.423774156051925,-0.139605346813432
2.45,0.414666976718328,-0.15795468654196
2.46,0.404842273603467,-0.175746903655145
2.47,0.394331717267306,-0.19295620024074
2.48,0.38316769217589,-0.209558516385839
2.49,0.371383205417009,-0.225531527576587
2.5,0.359011798396372,-0.240854637899384
2.51,0.346087461605723,-0.255508969420496
2.52,0.332644552522769,-0.269477348099347
2.53,0.318717716667837,-0.282744286575079
2.54,0.304341811816245,-0.295295964146031
2.55,0.28955183534098,-0.30712020423625
2.56,0.274382854640169,-0.31820644962547
2.57,0.25887027666189,-0.328522897423236
2.58,0.243056251121777,-0.33807167867978
2.59,0.226977767491522,-0.346854951142729
2.6,0.210670648057749,-0.354869830533944
2.61,0.194170302749349,-0.362115039000771
2.62,0.177511663240936,-0.368590852886959
2.63,0.160729121278629,-0.374299048435589
2.64,0.143856471220266,-0.379242845678726
2.65,0.126926856785331,-0.383426850751685
2.66,0.109972721986464,-0.38685699687421
2.67,0.0930257662270718,-0.38954048422347
2.68,0.0761169035346004,-0.391485718914944
2.69,0.0592762258962248,-0.392702251318447
2.7,0.0425329706729909,-0.393200713912471
2.71,0.0259154920286364,-0.392992758889495
2.72,0.0094512363542765,-0.392090995718872
2.73,-0.00683327836441423,-0.39050892887225
2.74,-0.0229124793080898,-0.388260895916839
2.75,-0.0387617517373069,-0.385362006180357
2.76,-0.0543574481634271,-0.381828080196989
2.77,-0.0696768938077123,-0.377675590130464
2.78,-0.0846983884589776,-0.372921601400528
2.79,-0.0994012047991107,-0.367583715704018
2.8,-0.113765583306299,-0.361680015649105
2.81,-0.127772723838988,-0.355229011214639
2.82,-0.141404774019609,-0.348249588252561
2.83,-0.154644814562946,-0.340760959233383
2.84,-0.167476841695902,-0.332782616462896
2.85,-0.17988574682628,-0.324334287973561
2.86,-0.191857293660186,-0.315435896305122
2.87,-0.203378092960825,-0.306107520374861
2.88,-0.214454331865993,-0.296413223520169
2.89,-0.225084303966993,-0.286372104228698
2.9,-0.235241717488009,-0.275958976304969
2.91,-0.244916297294612,-0.265192667223678
2.92,-0.254098304419855,-0.254092002601853
2.93,-0.262778499491622,-0.242675805212158
2.94,-0.270948107104546,-0.230962898532698
2.95,-0.278598781549387,-0.218972114832419
2.96,-0.285722574309885,-0.206722307771148
2.97,-0.292311903779103,-0.194232369467337
2.98,-0.298359527643128,-0.181521251941108
2.99,-0.303858518412681,-0.168607992828079
3,-0.308802242581193,-0.155511745189201
3.01,-0.31318434392195,-0.142251811220198
3.02,-0.316998731417159,-0.128847679612847
3.03,-0.320239572365588,-0.115319066243969
3.04,-0.322901291166969,-0.101685957845422
3.05,-0.324978574311677,-0.0879686582164207
3.06,-0.326466382107416,-0.0741878364671552
3.07,-0.327359967621454,-0.0603645767428375
3.08,-0.327654903337254,-0.04652042875443
3.09,-0.327347115972684,-0.0326774583844169
3.1,-0.326432929860035,-0.0188582975544752
3.11,-0.324909119259166,-0.00508619241702504
3.12,-0.322772969875799,0.00861495111456736
3.13,-0.320022349805711,0.0222205256105795
3.14,-0.316655789996716,0.0357051853313564
3.15,-0.312672574229611,0.0490428156681755
3.16,-0.308072838458377,0.0622065101882763
3.17,-0.302857679208927,0.0751685566983661
3.18,-0.297029270556069,0.0879004338248843
3.19,-0.290572505875968,0.100374088660804
3.2,-0.28345385701486,0.112556271420823
3.21,-0.275734809652421,0.124408676063716
3.22,-0.267424014683213,0.135899501642277
3.23,-0.258531915867347,0.146996402031559
3.24,-0.249070890119399,0.157666580602887
3.25,-0.239055386115249,0.167876904918702
3.26,-0.228502058772194,0.177594042338406
3.27,-0.217429896861476,0.18678461713074
3.28,-0.205860340812304,0.195415389413757
3.29,-0.193817387528102,0.203453455806624
3.3,-0.181327678881042,0.210866471278797
3.31,-0.168420570473414,0.217622891180334
3.32,-0.155128177174648,0.223692231899676
3.33,-0.141485392034138,0.229045348024442
3.34,-0.127529875278498,0.23365472330903
3.35,-0.113302010370724,0.237494772123415
3.36,-0.0988448244441179,0.240542147487779
3.37,-0.0842038709131443,0.242776051227203
3.38,-0.0694270726241975,0.244178541284313
3.39,-0.054564524613696,0.244734830801278
3.4,-0.0396682563470446,0.244433573237889
3.41,-0.0247919541548884,0.243267127616526
3.42,-0.00999064554404918,0.241231797920212
3.43,0.00467965195674362,0.238328040761561
3.44,0.0191623137981363,0.234560635740185
3.45,0.0334005186627648,0.229938813357609
3.46,0.0473376804934103,0.22447633599555
3.47,0.0609178960235581,0.21819152826917
3.48,0.0740864008743593,0.211107254038326
3.49,0.086790026805131,0.20325083841468
3.5,0.0989776523807256,0.194653934327806
3.51,0.1104538311976,0.185539500600987
3.52,0.121341350444093,0.175781154125325
3.53,0.131599878171788,0.165420281853761
3.54,0.141192559536972,0.154501358274627
3.55,0.150086308148459,0.143071582500514
3.56,0.158252051204257,0.13118048321595
3.57,0.165664924395106,0.118879498400068
3.58,0.17230441387243,0.106221537241197
3.59,0.178154443893992,0.0932605319136556
3.6,0.183203409828193,0.0800509869256335
3.61,0.18744415743447,0.0666475335856161
3.62,0.190873910542228,0.0531044967468252
3.63,0.193494150339153,0.0394754804427679
3.64,0.195310450092532,0.0258129783130741
3.65,0.196332270182898,0.0121680138897709
3.66,0.196679423854142,-0.00140366051834775
3.67,0.19644281689244,-0.0148766841108199
3.68,0.195462740931374,-0.0282294465650762
3.69,0.193757803931874,-0.0414199743610224
3.7,0.191349047899693,-0.0544086793860464
3.71,0.188259650622382,-0.0671584833972506
3.72,0.184514627250081,-0.0796349048577548
3.73,0.180140536372969,-0.0918061102914515
3.74,0.175165194675068,-0.103642932370172
3.75,0.169617403733002,-0.115118857555831
3.76,0.163526691918489,-0.126209986409374
3.77,0.156923073770052,-0.136894969863098
3.78,0.149836828654245,-0.147154924771172
3.79,0.142298299970416,-0.156973332264807
3.8,0.134337715649802,-0.166335922134817
3.81,0.125985030248638,-0.175230546527285
3.82,0.117154929219183,-0.183923516399716
3.83,0.107909566590896,-0.192203284957333
3.84,0.0983115207653971,-0.199963982622777
3.85,0.0883911653458435,-0.20719596809775
3.86,0.0781785089318615,-0.213891273910664
3.87,0.067703132480493,-0.220043501886911
3.88,0.0569941396898279,-0.225647722056114
3.89,0.0460801188652586,-0.23070037633086
3.9,0.034989114892994,-0.235199187557707
3.91,0.0237486099685854,-0.239143074665673
3.92,0.0123855117851882,-0.242532074284669
3.93,0.000926147742535483,-0.245367269083493
3.94,-0.0106037358608103,-0.247650722890244
3.95,-0.0221789709063095,-0.249385422540344
3.96,-0.0337749617584232,-0.250575226264064
3.97,-0.0453676778579726,-0.251224818348617
3.98,-0.056933645262402,-0.251339669705797
3.99,-0.0684499380787817,-0.250926003922387
4,-0.0798941703354222,-0.24999076834081
4.01,-0.0912444887700075,-0.24854160962527
4.02,-0.102479567167298,-0.246586853364475
4.03,-0.113578602478348,-0.24413548700948
4.04,-0.12452131305644,-0.241197145870756
4.05,-0.135287939235898,-0.237782101308211
4.06,-0.145859246369664,-0.233901250865402
4.07,-0.156216530408271,-0.229566109671489
4.08,-0.166341626053291,-0.224788802700806
4.09,-0.17621691743763,-0.219582057419331
4.1,-0.185825351246725,-0.21395919634928
4.11,-0.195150452166636,-0.207934129186661
4.12,-0.204176340497204,-0.201521344081729
4.13,-0.212863530908213,-0.194550594328064
4.14,-0.221160504794373,-0.187045466762388
4.15,-0.229066449985884,-0.179214027423718
4.16,-0.236569909040002,-0.171077556416933
4.17,-0.243660517223548,-0.162657654011935
4.18,-0.25032901021524,-0.15397619158537
4.19,-0.256567230015507,-0.14505526155698
4.2,-0.262368128906629,-0.13591712671722
4.21,-0.267725771288564,-0.126584168856526
4.22,-0.272635333301627,-0.117078836849719
4.23,-0.277093100084303,-0.10742359435126
4.24,-0.281096460463607,-0.0976408672216074
4.25,-0.284643899197479,-0.0877529908135872
4.26,-0.287734986458551,-0.0777821573956978
4.27,-0.290370364678139,-0.0677503637624414
4.28,-0.292551732539401,-0.0576793593052632
4.29,-0.294281826269167,-0.0475905947045233
4.3,-0.295564398088873,-0.0375051714530354
4.31,-0.296404191936327,-0.027443792405092
4.32,-0.296806916341551,-0.0174267135484187
4.33,-0.296779214691673,-0.00747369720732834
4.34,-0.29632863285174,0.00239603313954288
4.35,-0.295463584140348,0.012163836217121
4.36,-0.294193311991046,0.0218116943274171
4.37,-0.292527850122677,0.0313222525347039
4.38,-0.290477980643932,0.040678855510603
4.39,-0.288055189949657,0.0498655818616565
4.4,-0.285271622828586,0.0588672758324479
4.41,-0.282140034774343,0.0676695761581194
4.42,-0.278673742689714,0.0762589420491557
4.43,-0.274886574333215,0.0846226761536332
4.44,-0.27077495416707,0.092693453394631
4.45,-0.26633777115263,0.100346175638275
4.46,-0.261655647808203,0.107737821038785
4.47,-0.256743741593076,0.114862490556045
4.48,-0.251617167182286,0.121715142500459
4.49,-0.246290948911874,0.128291572609298
4.5,-0.240779975142763,0.134588391478289
4.51,-0.235098954676562,0.140602999361892
4.52,-0.229262375390394,0.146333558765483
4.53,-0.223284465215504,0.151778964652573
4.54,-0.217179155601607,0.156938812750173
4.55,-0.210960047565445,0.161813365955478
4.56,-0.204640380438489,0.166403519047202
4.57,-0.19823300339094,0.170710761985082
4.58,-0.191750349822941,0.174737141846375
4.59,-0.185204414660832,0.178485223801456
4.6,-0.178606734627133,0.181958051111031
4.61,-0.171968371509683,0.185159104544865
4.62,-0.165299898435074,0.188092261320388
4.63,-0.158611389163144,0.19076175380801
4.64,-0.151912410419836,0.193172128210474
4.65,-0.145212017140231,0.195328203427112
4.66,-0.138518750707974,0.197235030289385
4.67,-0.131840640110691,0.198897851395348
4.68,-0.125185205811258,0.200322061713861
4.69,-0.118559466450053,0.20151317017013
4.7,-0.11196994817347,0.20247676237854
4.71,-0.105422696464116,0.203218464713095
4.72,-0.0989232904431756,0.203743909869192
4.73,-0.0924768594224046,0.204058704092224
4.74,-0.0860881016362395,0.204168396208204
4.75,-0.0797613049733675,0.204078448601232
4.76,-0.0735904049589998,0.203911161615132
4.77,-0.0674688807259092,0.203564610145435
4.78,-0.0613992200030721,0.203041517769319
4.79,-0.0553838244195176,0.202344389489523
4.8,-0.0494250388396724,0.201475513496603
4.81,-0.0435251800971902,0.20043696538427
4.82,-0.0376865649548958,0.199230614760818
4.83,-0.0319115371180895,0.197858134157953
4.84,-0.0262024931350607,0.196321010178532
4.85,-0.020561907033839,0.194620556739938
4.86,-0.0149923535414563,0.192757930344962
4.87,-0.0094965297521526,0.19073414721715
4.88,-0.0040772751064769,0.188550102206676
4.89,0.00126241042883312,0.186206589302795
4.9,0.00651935010219987,0.183704323613921
4.91,0.0116901761194677,0.181043964671308
4.92,0.0167713174998466,0.178226140879198
4.93,0.0217589900927923,0.175251474967149
4.94,0.0266491888434369,0.172120610258036
4.95,0.0314376823418528,0.168834237595008
4.96,0.036120009704871,0.165393122741347
4.97,0.0406914798056087,0.161798134079873
4.98,0.0451471728842513,0.158050270441146
4.99,0.0494819445140403,0.154150688871295
5,0.0536904319387387,0.150100732172531
5.01,0.0577670627431883,0.14590195603843
5.02,0.0617060658188516,0.141556155606365
5.03,0.0655014845884675,0.137065391265961
5.04,0.0691471924261724,0.132432013552367
5.05,0.0726369101985688,0.127658686965322
5.06,0.0759642258513632,0.122748412561097
5.07,0.0791661165842195,0.11764477333329
5.08,0.0821941364104974,0.112383845773196
5.09,0.085024499597469,0.106990248836648
5.1,0.0876498141074899,0.101470372812893
5.11,0.0900628623554063,0.0958310866615241
5.12,0.0922566341482248,0.0900797343306231
5.13,0.0942243595297274,0.0842241287924992
5.14,0.0959595413846153,0.0782725438255504
5.15,0.0974559876410525,0.0722337035579652
5.16,0.098707842937701,0.0661167697961703
5.17,0.0997096195939722,0.0599313271941157
5.18,0.100456227748084,0.0536873663007109
5.19,0.10094300453071,0.0473952645529672
5.2,0.101165742125882,0.0410657652796599
5.21,0.101120714609298,0.0347099547866578
5.22,0.100804703428009,0.0283392376204084
5.23,0.100215021414281,0.021965310088499
5.24,0.0993495352179737,0.0156001321346943
5.25,0.0982066860633668,0.00925589768440683
5.26,0.0967855087298808,0.0029450035542182
5.27,0.0950856486684951,-0.00331998294499406
5.28,0.0931073771739935,-0.00952635760552174
5.29,0.0908516045573696,-0.0156613139874127
5.3,0.0883198912258493,-0.0217119790295854
5.31,0.0855144566390421,-0.0276654494750516
5.32,0.0824381860867,-0.0335088289773026
5.33,0.0790946352524857,-0.0392292657631668
5.34,0.0754880325180009,-0.0448139906975279
5.35,0.0716232790121557,-0.0502503556380361
5.36,0.0675059463697308,-0.0555258719247594
5.37,0.0631422721947937,-0.0606282488792612
5.38,0.0585187367303758,-0.0655013076724647
5.39,0.0536526857696588,-0.0701278278316923
5.4,0.0485766647177554,-0.0745398200761116
5.41,0.0433001827991032,-0.0787276303913379
5.42,0.0378332233845161,-0.0826820531192066
5.43,0.0321862212400838,-0.0863943552586876
5.44,0.0263700385609614,-0.0898562995465895
5.45,0.0203959398614312,-0.0930601662570838
5.46,0.0142755657904024,-0.0959987736711625
5.47,0.00802090594061626,-0.0986654971849414
5.48,0.00164427072960672,-0.10105428700525
5.49,-0.00484173758757083,-0.1031596844052
5.5,-0.0114242546965802,-0.104976836502441
5.51,-0.0180901847167629,-0.10650150953158
5.52,-0.0248262313559204,-0.107730100594861
5.53,-0.0316189296405228,-0.108659647842605
5.54,-0.0384546781639987,-0.109287839088208
5.55,-0.0453197717732185,-0.109613018817756
5.56,-0.0522004346421367,-0.109634193589487
5.57,-0.0590828536447577,-0.109351035789578
5.58,-0.0659532119711218,-0.10876388574809
5.59,-0.0727977229158342,-0.107873752172371
5.6,-0.0796026637697848,-0.106682310919024
5.61,-0.0863544097351315,-0.105191902052378
5.62,-0.0930394678133086,-0.103405525202227
5.63,-0.0996445105658191,-0.101326833201709
5.64,-0.106156409693921,-0.0989601239881498
5.65,-0.112562269344982,-0.0963103307642528
5.66,-0.118849459073376,-0.0933830104064247
5.67,-0.125005646364374,-0.0901843301132234
5.68,-0.131018828639546,-0.0867210523002093
5.69,-0.136860903998964,-0.0830159758520665
