"Freq [GHz]","re(S(Antenna1_1_1,Antenna1_1_1)) []","im(S(Antenna1_1_1,Antenna1_1_1)) []"
1,0.367322827053975,0.0232022295005673
1.004,0.360639261355071,0.00455085255136582
1.008,0.353200691158122,-0.0135460643180711
1.012,0.345043968873621,-0.0310587892782424
1.016,0.336206067315731,-0.0479598173091086
1.02,0.326723985447224,-0.0642236120613129
1.024,0.316634712380314,-0.0798263533229622
1.028,0.305975246945609,-0.0947457001898677
1.032,0.294782668497557,-0.108960579454902
1.036,0.283094253163584,-0.122451007883965
1.04,0.27094762839038,-0.135197955962844
1.044,0.258380957497832,-0.14718325944551
1.048,0.245433144976488,-0.158389583583011
1.052,0.232144052589837,-0.168800443348198
1.056,0.218554715855609,-0.178400281279753
1.06,0.204707550304377,-0.187174602858372
1.064,0.19060886558418,-0.195122401609384
1.068,0.176271629860634,-0.202220539108938
1.072,0.161807467376471,-0.208427750553672
1.076,0.147272248296826,-0.213734588344298
1.08,0.132724066924711,-0.218135291842047
1.084,0.118222975626122,-0.221628224649518
1.088,0.103830643898061,-0.224216288678952
1.092,0.0896099453441968,-0.225907303045
1.096,0.0756244771402737,-0.226714336295618
1.1,0.0619380183517324,-0.226655981155488
1.104,0.0486139350845843,-0.225756561968771
1.108,0.0357145419345544,-0.224046266197891
1.112,0.0233004305002402,-0.221561192796247
1.116,0.011429776787933,-0.218343311837567
1.12,0.000157640156879344,-0.214440331597618
1.124,-0.0104647329839854,-0.209905471080708
1.128,-0.0202874204021964,-0.204691437112213
1.132,-0.0293030425145856,-0.198965259609209
1.136,-0.0375124414932988,-0.192841797432241
1.14,-0.0448952939501388,-0.186398884756731
1.144,-0.0514392246651433,-0.179715684549484
1.148,-0.0571399095507386,-0.172871768662334
1.152,-0.0620010606991941,-0.165946190970414
1.156,-0.0660342935725474,-0.159016569573256
1.16,-0.0692588786385177,-0.152158193923748
1.164,-0.0717013819399445,-0.145443172247988
1.168,-0.0733952011644994,-0.138939633823304
1.172,-0.0743800057491177,-0.132710999596977
1.176,-0.0747010913095261,-0.126815333304176
1.18,-0.0744086602550232,-0.121304783630144
1.184,-0.0735570417643356,-0.116225126257071
1.188,-0.0722038653461508,-0.111615412610291
1.192,-0.0704092029774316,-0.107507730155421
1.196,-0.0682346952805377,-0.103927076899415
1.2,-0.0657426773562662,-0.100891350607751
1.204,-0.0629953197562857,-0.0984114510752883
1.208,-0.0600537996196638,-0.096491491699882
1.212,-0.0569775162972619,-0.0951291145533648
1.216,-0.053823364731005,-0.0943159012946398
1.22,-0.0506450787037487,-0.094037870521637
1.224,-0.0474926544966877,-0.094276050645393
1.228,-0.044411863867556,-0.0950071160819384
1.232,-0.0414438635562451,-0.0962040734877464
1.236,-0.0386249064632867,-0.0978369840172734
1.24,-0.0359861575797837,-0.0998737070241774
1.244,-0.0335536160210481,-0.102280650472545
1.248,-0.0313481420651767,-0.105023513316924
1.252,-0.0295062051353552,-0.107899963811726
1.256,-0.0279699729797285,-0.110830309906796
1.26,-0.0265930099882401,-0.113950474078664
1.264,-0.0253694214284566,-0.117250282381146
1.268,-0.0242932778112553,-0.120723266165791
1.272,-0.0233593241832011,-0.12436649894483
1.276,-0.0225636464878196,-0.128180324790033
1.28,-0.0219042799170858,-0.132167986701723
1.284,-0.0213817456779611,-0.136335165511839
1.288,-0.0209995042854163,-0.140689441286525
1.292,-0.020764315547224,-0.145239690936914
1.296,-0.0206864972227965,-0.14999543676656
1.3,-0.0207800770248606,-0.154966161576734
1.304,-0.021062834332164,-0.160160606445641
1.308,-0.0215562308871799,-0.165586067545466
1.312,-0.0222852316175717,-0.171247708206117
1.316,-0.0232780192426519,-0.177147901993099
1.32,-0.0245656083125044,-0.183285621880928
1.324,-0.0261813665249468,-0.189655889516347
1.328,-0.0281604527763799,-0.196249297359768
1.332,-0.0305391832601597,-0.203051614916726
1.336,-0.0333543382179146,-0.210043488674586
1.34,-0.0366424231406354,-0.217200243370172
1.344,-0.0404388991129418,-0.224491790236882
1.348,-0.0447773976028596,-0.231882645997519
1.352,-0.0496889352944836,-0.239332063792071
1.356,-0.0552011446381898,-0.246794275676028
1.36,-0.061337535475561,-0.254218843491195
1.364,-0.0681168025737155,-0.261551113585722
1.368,-0.0755521931885017,-0.268732768233958
1.372,-0.0836509474048011,-0.275702465239492
1.376,-0.0925177078039754,-0.282422272889697
1.38,-0.102366879747228,-0.288809872956741
1.384,-0.1128652397877,-0.294679250603046
1.388,-0.123970830670588,-0.299965197849822
1.392,-0.135634678931784,-0.30460718362499
1.396,-0.147801415964178,-0.308550160134744
1.4,-0.160409994242014,-0.311745280459899
1.404,-0.173394485625151,-0.314150516321767
1.408,-0.186684947708468,-0.315731166798266
1.412,-0.200208342972013,-0.31646025080398
1.416,-0.213889495014306,-0.316318778194742
1.42,-0.227652065565675,-0.31529589649532
1.424,-0.241419535951937,-0.31338891249441
1.428,-0.25511617677721,-0.310603189943579
1.432,-0.268667990064475,-0.306951926771018
1.436,-0.282003608748693,-0.302455817236128
1.44,-0.295055139366727,-0.297142606226103
1.444,-0.307758934959783,-0.291046544697869
1.448,-0.320056286577655,-0.284207756737584
1.452,-0.33189402318319,-0.276671530132304
1.456,-0.343225011816638,-0.268487543361463
1.46,-0.354008551061014,-0.259709042868946
1.464,-0.36421065345224,-0.250391985089994
1.468,-0.373804213798723,-0.240594158070944
1.472,-0.382769062755299,-0.230374297660942
1.476,-0.391091906717253,-0.219791213124985
1.48,-0.398766156983615,-0.208902936623351
1.484,-0.405791653166174,-0.197765910446988
1.488,-0.412174287266673,-0.186434224996755
1.492,-0.417925536430538,-0.17495891948665
1.496,-0.423061914130966,-0.163387356198252
1.5,-0.427604350281171,-0.151762677520322
1.504,-0.431467328671618,-0.140405371437147
1.508,-0.434862469036754,-0.12908983842561
1.512,-0.437822865950062,-0.117830102752551
1.516,-0.440380726508651,-0.106634454833511
1.52,-0.44256657614435,-0.0955057699769911
1.524,-0.444408524514827,-0.0844419268544311
1.528,-0.445931603258731,-0.0734363163019379
1.532,-0.447157185946406,-0.0624784291429003
1.536,-0.448102498917727,-0.0515545110507142
1.54,-0.448780230086189,-0.0406482713935883
1.544,-0.449198240791128,-0.0297416324115178
1.548,-0.449359384332934,-0.0188155046786579
1.552,-0.449261432410946,-0.00785057462736956
1.556,-0.448897109552326,0.00317191000757617
1.56,-0.448254233169277,0.0142693706807338
1.564,-0.447315955760209,0.0254571578162574
1.568,-0.446061103627703,0.0367478524934085
1.572,-0.44446460548296,0.0481506217386187
1.576,-0.442498002614681,0.0596706382214099
1.58,-0.440130031303718,0.07130857351503
1.584,-0.437327267042095,0.0830601734885796
1.588,-0.434054819376996,0.0949159220012331
1.592,-0.430277065502123,0.106860798575696
1.596,-0.425958410305407,0.118874133352496
1.6,-0.421064060335805,0.130929561509777
1.604,-0.415560799113045,0.142995077682078
1.608,-0.409417751334586,0.155033189285655
1.612,-0.402607123885717,0.167001166146363
1.616,-0.395104912027769,0.178851382628298
1.62,-0.386891559895481,0.190531746712554
1.624,-0.377952565082975,0.201986209714685
1.628,-0.368048984560048,0.213440658003317
1.632,-0.35725303301538,0.224569201458873
1.636,-0.345649217588594,0.23518828326758
1.64,-0.33326669732748,0.245220160245358
1.644,-0.320143276950658,0.254589762793458
1.648,-0.30632503098721,0.263225698043819
1.652,-0.291865812615158,0.271061192828297
1.656,-0.276826656852315,0.278034963757621
1.66,-0.261275088734813,0.284092003209176
1.664,-0.245284348502769,0.289184271351561
1.668,-0.228932546450206,0.293271286268808
1.672,-0.212301760928272,0.296320605600361
1.676,-0.195477093397336,0.298308195194019
1.68,-0.178545694652855,0.299218681616123
1.684,-0.161595776409521,0.299045487526459
1.688,-0.144715622251522,0.297790850106448
1.692,-0.127992611600325,0.295465724792245
1.696,-0.111512269832876,0.292089577883568
1.7,-0.0953573569746629,0.287690072938973
1.704,-0.0796070066185736,0.282302657423343
1.708,-0.064335925681747,0.2759700571168
1.712,-0.0496136645384766,0.268741686886393
1.716,-0.0355039660555008,0.26067298733106
1.72,-0.0220642006749893,0.251824697606768
1.724,-0.00934489339046146,0.242262075342332
1.728,0.00261065271972444,0.232054075022366
1.732,0.0137666332431081,0.22127249652518
1.736,0.0240949175096333,0.209991115703755
1.74,0.0335751215958659,0.198284808870622
1.744,0.0421945799571217,0.186228682982381
1.748,0.0499482178013041,0.173897223016341
1.752,0.0565896417900273,0.161655835884415
1.756,0.0622434002068422,0.149658926110358
1.76,0.0672272474277119,0.137685420448397
1.764,0.0715767368634619,0.125768202858161
1.768,0.0753279884789474,0.113934246569408
1.772,0.0785169112950891,0.102204822815476
1.776,0.0811784756669411,0.0905958007971235
1.78,0.0833460450731609,0.0791180310194166
1.784,0.0850507760033554,0.0677778026559849
1.788,0.086321093431494,0.0565773651553866
1.792,0.0871822477890722,0.045515503623065
1.796,0.0876559585597539,0.0345881569400539
1.8,0.0877601476019951,0.023789067281242
1.804,0.0875087646188948,0.0131104495153763
1.808,0.0869117054178504,0.00254366891199049
1.812,0.0859748223589321,-0.00792008435652567
1.816,0.0847000252096455,-0.01828913516019
1.82,0.0830854692578003,-0.0285706887103464
1.824,0.0811258262178844,-0.038770231588244
1.828,0.0788126326157809,-0.0488909782614208
1.832,0.0761347088586665,-0.0589333721872236
1.836,0.0730786416421003,-0.0688946494904877
1.84,0.0696293210868517,-0.0787684726064364
1.844,0.0657705234907364,-0.0885446399037505
1.848,0.0614855298221501,-0.0982088763507573
1.852,0.0567577695784744,-0.107742709023388
1.856,0.051571479277022,-0.117123429968339
1.86,0.0459123646236797,-0.126324147804808
1.864,0.0397682553160293,-0.13531392787039
1.868,0.0331297414399032,-0.144058019629536
1.872,0.0259907808665758,-0.1525181687262
1.876,0.0181957259868537,-0.160736221241341
1.88,0.00939554287419702,-0.16873734019477
1.884,5.29316262387405E-05,-0.176159567891303
1.888,-0.00978999487029542,-0.182948469440394
1.892,-0.0200847968261827,-0.189053367834204
1.896,-0.0307771258856105,-0.194428086243139
1.9,-0.0418072279226051,-0.1990316375767
1.904,-0.0531105232019366,-0.202828852120257
1.908,-0.0646182564095232,-0.205790934911575
1.912,-0.0762582076466916,-0.207895945543343
1.916,-0.0879554552384295,-0.209129193942851
1.92,-0.0996331801687266,-0.209483547105779
1.924,-0.11121350177829,-0.208959642555596
1.928,-0.122618333806534,-0.207566005919013
1.932,-0.133770249745329,-0.205319070848266
1.936,-0.144593346369013,-0.202243101144388
1.94,-0.155014094363288,-0.198370015905206
1.944,-0.164962165194337,-0.193739120008699
1.948,-0.174371223672478,-0.188396743087079
1.952,-0.183179676202216,-0.182395791900222
1.956,-0.191331365183156,-0.175795221228857
1.96,-0.198776200889029,-0.168659430435661
1.964,-0.205470722847222,-0.161057592875827
1.968,-0.211378583698608,-0.153062926705832
1.972,-0.216470949546067,-0.144751916190474
1.976,-0.22072681178247,-0.136203493158602
1.98,-0.224133206593847,-0.127498188816071
1.984,-0.22668533948635,-0.118717266429401
1.988,-0.22838661331701,-0.109941845615031
1.992,-0.229248559578587,-0.101252029035862
1.996,-0.229290673868329,-0.0927260423129728
2,-0.228540157699653,-0.084439397693906
2.004,-0.226636630401017,-0.0769589080050832
2.008,-0.224142492142994,-0.0699463390317437
2.012,-0.221119926653318,-0.0634412797852358
2.016,-0.217633272463864,-0.0574757399057676
2.02,-0.213748126901834,-0.0520741036151327
2.024,-0.209530462607706,-0.0472531869297186
2.028,-0.205045768177715,-0.043022395159529
2.032,-0.200358224037949,-0.0393839762141845
2.036,-0.195529923966103,-0.0363333643118844
2.04,-0.190620152048104,-0.0338596073321196
2.044,-0.185684723705619,-0.0319458702271668
2.048,-0.180775398788574,-0.0305700058555483
2.052,-0.175939373387963,-0.029705183898981
2.056,-0.171218855968003,-0.0293205679366813
2.06,-0.166650732250777,-0.0293820300805703
2.064,-0.162266321930636,-0.0298528923360596
2.068,-0.158091229109281,-0.030694683569048
2.072,-0.154145287046937,-0.0318679008818689
2.076,-0.150442596431325,-0.0333327642982951
2.08,-0.146991655274781,-0.0350499537925531
2.084,-0.143795577171043,-0.03698131819204
2.088,-0.140852393566215,-0.0390905457572134
2.092,-0.138155434554279,-0.0413437869904677
2.096,-0.135693781762179,-0.0437102210226782
2.1,-0.133452785759319,-0.0461625574823862
2.104,-0.131414639887883,-0.0486774669325956
2.108,-0.129559001447333,-0.0512359338797729
2.112,-0.127863650686858,-0.0538235273232131
2.116,-0.126305177566776,-0.0564305851387855
2.12,-0.124859685894665,-0.0590523094981331
2.124,-0.12350350413793,-0.0616887719531779
2.128,-0.121738485088687,-0.0639208003572623
2.132,-0.119747114535782,-0.0661809054515863
2.136,-0.117679683413984,-0.0686640391901094
2.14,-0.115552479330208,-0.0714052401746316
2.144,-0.113387779711011,-0.0744381259519767
2.148,-0.111213675003831,-0.0777940632530459
2.152,-0.109063787590796,-0.0815013642726885
2.156,-0.106976890177578,-0.0855845213759578
2.16,-0.104996428900986,-0.0900634920169069
2.164,-0.103169957800319,-0.0949530449660981
2.168,-0.101548492382522,-0.100262178114392
2.172,-0.10018579125563,-0.105993617094586
2.176,-0.0991375756624867,-0.112143402977402
2.18,-0.0984606977395972,-0.118700575985919
2.184,-0.0982122690209164,-0.125646961138264
2.188,-0.0984487612197477,-0.132957060067556
2.192,-0.099225091900633,-0.140598052266976
2.196,-0.100593707866448,-0.148529907332852
2.2,-0.102603679275628,-0.156705608306609
2.204,-0.105299817472469,-0.165071485082586
2.208,-0.108721829411296,-0.173567654976805
2.212,-0.112903521192471,-0.182128566454578
2.216,-0.117872062866774,-0.190683640354455
2.22,-0.12364732589861,-0.199158001878584
2.224,-0.130241304216722,-0.207473294921948
2.228,-0.137657628549214,-0.215548569536227
2.232,-0.145891183009127,-0.223301231752616
2.236,-0.154927831652164,-0.230648044254257
2.24,-0.164744261324332,-0.237506165268896
2.244,-0.175307945948971,-0.243794212355538
2.248,-0.186577235864237,-0.249433337026208
2.252,-0.198676086337493,-0.254018950923388
2.256,-0.211422070386178,-0.257421144508702
2.26,-0.22452137139912,-0.259909410654129
2.264,-0.237890184953732,-0.261456978133942
2.268,-0.251442837238977,-0.262045955884915
2.272,-0.265092788614384,-0.261667453798118
2.276,-0.278753643772902,-0.260321587835546
2.28,-0.292340155153141,-0.258017369198772
2.284,-0.305769206322315,-0.254772478978442
2.288,-0.318960762199377,-0.250612930915893
2.292,-0.331838773367799,-0.245572626685391
2.296,-0.344332022051546,-0.239692809360595
2.3,-0.356374898363847,-0.233021422265404
2.304,-0.367908095781671,-0.225612381650218
2.308,-0.3788792161521,-0.217524772967727
2.312,-0.389243275572968,-0.208821981628984
2.316,-0.398963103681582,-0.199570770056901
2.32,-0.408009630219512,-0.189840313902099
2.324,-0.416362054592655,-0.179701210823718
2.328,-0.424007895206001,-0.169224475886426
2.332,-0.430942917392944,-0.158480537947222
2.336,-0.437170940361487,-0.147538251599241
2.34,-0.442703525225533,-0.136463939129959
2.344,-0.447559548090102,-0.125320476828923
2.348,-0.451764663595045,-0.114166439485482
2.352,-0.455350666357734,-0.103055316163459
2.356,-0.458354759031306,-0.092034809656212
2.36,-0.460818737354938,-0.0811462309414395
2.364,-0.462788103912978,-0.0704239984618862
2.368,-0.464311123545778,-0.0598952512004484
2.372,-0.465437834450168,-0.0495795823452077
2.376,-0.466278324366077,-0.039541461991312
2.38,-0.467033020552766,-0.0298526150216481
2.384,-0.467583683024637,-0.0203228290564435
2.388,-0.467964957355671,-0.0109340867927162
2.392,-0.468207067608941,-0.00166339026741379
2.396,-0.468335181545013,0.00751657261834483
2.4,-0.468368864498354,0.0166366841936885
2.404,-0.468321631146623,0.025730587025126
2.408,-0.468200603125038,0.0348338200582183
2.412,-0.468006278816504,0.0439829141320763
2.416,-0.467732420187674,0.0532144608934526
2.42,-0.467366059681345,0.0625641696558148
2.424,-0.466887628426236,0.0720659271356996
2.428,-0.466271205326034,0.081750875186996
2.432,-0.465484884500217,0.0916465214685891
2.436,-0.464491256979353,0.101775897827966
2.44,-0.463303091882936,0.112235348609149
2.444,-0.461825996057121,0.12302200782807
2.448,-0.459967873775495,0.134092693043743
2.452,-0.457673478877222,0.145439185768471
2.456,-0.45488693320789,0.157045362555112
2.46,-0.451552765669282,0.168887055183387
2.464,-0.447616969506512,0.180932042510264
2.468,-0.443028061478565,0.193140176100963
2.472,-0.437738126292927,0.205463639656709
2.476,-0.431703829701697,0.217847340272338
2.48,-0.42488738406224,0.23022942764079
2.484,-0.417257450369222,0.242541934999383
2.488,-0.408789961919659,0.254711534009435
2.492,-0.399468855433117,0.266660393810626
2.496,-0.38928669687526,0.27830713267364
2.5,-0.378245190637584,0.289567849279459
2.504,-0.365912403389676,0.300413494928951
2.508,-0.352742852163886,0.310591259040883
2.512,-0.338787737806671,0.320015421397773
2.516,-0.324108156397466,0.328605612848211
2.52,-0.308774433736136,0.336288001831891
2.524,-0.292865316255429,0.342996392899338
2.528,-0.276467030253362,0.348673219876802
2.532,-0.259672223174986,0.353270417904248
2.536,-0.242578802742659,0.356750160445057
2.54,-0.225288691228222,0.359085449112711
2.544,-0.207906513667435,0.36026054691746
2.548,-0.19053823986136,0.360271247336297
2.552,-0.173289800805816,0.359124974464579
2.556,-0.156265700717615,0.356840712139776
2.56,-0.139567645901712,0.353448762280259
2.564,-0.123293211622521,0.34899033552824
2.568,-0.107534567688144,0.343516980020115
2.572,-0.0923772823810279,0.33708985614992
2.576,-0.0778992236427207,0.329778868316361
2.58,-0.0641695747266409,0.321661666164121
2.584,-0.0512479799181978,0.312822530520883
2.588,-0.0391838339787356,0.303351160709347
2.592,-0.0280157269935028,0.293341381707019
2.596,-0.0177710537093488,0.28288979092726
2.6,-0.0084657940588343,0.27209436537066
2.604,-0.00010446919671505,0.261053050942134
2.608,0.00731972581576982,0.249862355576568
2.612,0.0138246137021816,0.238615968655988
2.616,0.0194385552215806,0.227403428370523
2.62,0.0241998046301311,0.216308858349131
2.624,0.0281557097321299,0.20540979403519
2.628,0.0312555405439266,0.195549365546235
2.632,0.0338603071563797,0.186295540977858
2.636,0.0361089674890719,0.177401579859549
2.64,0.0380701208600569,0.168861146583687
2.644,0.0398078796597366,0.160658356626127
2.648,0.0413806394674092,0.15276863458532
2.652,0.0428399819926276,0.14515972485378
2.656,0.0442297290608986,0.13779283623907
2.66,0.0455851638423733,0.130623899544726
2.664,0.0469324321959694,0.123604915230922
2.668,0.0482881345115288,0.116685366896063
2.672,0.0496591150761958,0.109813675110233
2.676,0.0510424526045243,0.102938665430891
2.68,0.0524256523804309,0.0960110241000333
2.684,0.0537870371689335,0.0889847150701976
2.688,0.0550963304131297,0.0818183323207064
2.692,0.0563154221847236,0.0744763626638897
2.696,0.0573993052839837,0.0669303353125395
2.7,0.058297165448589,0.0591598361658807
2.704,0.0589536075621862,0.0511533672198477
2.708,0.0593099965376252,0.0429090334204934
2.712,0.0593058899075697,0.0344350425421344
2.716,0.0588805370224362,0.0257500062172015
2.72,0.0579744183759489,0.0168830339248878
2.724,0.0565307976412377,0.00787361490151355
2.728,0.0544972581245571,-0.00122871339333721
2.732,0.0518271956036936,-0.0103649080668675
2.736,0.0484812394232888,-0.0194671686881477
2.74,0.0444285748943788,-0.0284598810612667
2.744,0.0396481409584645,-0.0372607434707305
2.748,0.0341296790559064,-0.0457820592716354
2.752,0.0273130838756631,-0.0538898434961378
2.756,0.0192383473765948,-0.0612781181025238
2.76,0.0105456636171589,-0.0678312771627476
2.764,0.00132510872643962,-0.0734718155143942
2.768,-0.00832306778963056,-0.0781330355032701
2.772,-0.018289829063744,-0.0817603412000078
2.776,-0.0284588962707087,-0.0843123505842687
2.78,-0.0387084292520158,-0.0857618061919266
2.784,-0.0489128163399081,-0.0860962686318367
2.788,-0.0589445449737075,-0.0853185800353585
2.792,-0.0686761238934786,-0.0834470887959085
2.796,-0.0779820262121576,-0.0805156300618063
2.8,-0.0867406225391419,-0.0765732609977147
2.804,-0.0948360731946248,-0.0716837530513434
2.808,-0.102160149127395,-0.0659248480156378
2.812,-0.108613952106379,-0.0593872878047629
