"Freq [GHz]","re(S(Antenna1_1_1,Antenna1_1_1)) []","im(S(Antenna1_1_1,Antenna1_1_1)) []"
1,0.365044592611975,0.0208644417457673
1.004,0.358140442192071,0.00262872483376582
1.008,0.350552053574122,-0.0150470826340711
1.012,0.342311999900621,-0.0321446520832424
1.016,0.333451224538731,-0.0486463683051086
1.02,0.323999316772324,-0.0645348159283129
1.024,0.313984880745224,-0.0797923498629622
1.028,0.303435979575109,-0.0944007641808677
1.032,0.292380634530257,-0.108341070408902
1.036,0.280847357724334,-0.121593392504965
1.04,0.26886569603338,-0.134136981889844
1.044,0.256466763857832,-0.14595035195651
1.048,0.243683742909488,-0.157011527638011
1.052,0.230552328437837,-0.167298401899198
1.056,0.217111103112609,-0.176789187633753
1.06,0.203401822142377,-0.185462950376372
1.064,0.18943499273818,-0.193314962328984
1.068,0.175230838404634,-0.200316114346038
1.072,0.160902655136471,-0.206416924374772
1.076,0.146513134685826,-0.211606979220298
1.08,0.132127457666711,-0.215881492631048
1.084,0.117812588924122,-0.219241782449518
1.088,0.103636495203061,-0.221695635827952
1.092,0.0896673046711967,-0.223257551105
1.096,0.0759724293472737,-0.223948848486618
1.1,0.0626176723972324,-0.223797645255488
1.104,0.0496663425308043,-0.222838694977771
1.108,0.0371783973838544,-0.221113093851891
1.112,0.0252096368262402,-0.218667860891247
1.116,0.013810965617933,-0.215555401947568
1.12,0.00302774279787934,-0.211832870560618
1.124,-0.00710076728698537,-0.207561441241708
1.128,-0.0164785385331964,-0.202774397843213
1.132,-0.0251158759125856,-0.197585165637209
1.136,-0.0330209080602988,-0.192076138662941
1.14,-0.0401889205151388,-0.186314798968041
1.144,-0.0466216082101434,-0.180366930193784
1.148,-0.0523266149737386,-0.174295946785334
1.152,-0.0573169988421941,-0.168162317207414
1.156,-0.0616106407195474,-0.162023089116256
1.16,-0.0652296146685177,-0.155931521295748
1.164,-0.0681995382499445,-0.149936824035988
1.168,-0.0705489210089994,-0.144084006562304
1.172,-0.0723085283180177,-0.138413827158977
1.176,-0.0735107765020261,-0.132962838960176
1.18,-0.0741891734238232,-0.127763521985144
1.184,-0.0743778166403356,-0.122844489905071
1.188,-0.0741109588851508,-0.118230758460291
1.192,-0.0734226480584316,-0.113944061204421
1.196,-0.0723464462385377,-0.110003197564415
1.2,-0.0709152294802662,-0.106424397931151
1.204,-0.0691610674712857,-0.103221690757388
1.208,-0.0671151795596638,-0.100407257272782
1.212,-0.0648079612572619,-0.0979917605658648
1.216,-0.062269073191005,-0.0959846372326398
1.22,-0.0595275826767487,-0.094394341606837
1.224,-0.0566121466066877,-0.093228534648393
1.228,-0.053551223291556,-0.0924942118399384
1.232,-0.0503733002572451,-0.0921977668077464
1.236,-0.0471071247927867,-0.0923449898432734
1.24,-0.0437819242452837,-0.0929410029001774
1.244,-0.0404276037218381,-0.0939901349435448
1.248,-0.0370749098578767,-0.0954957436949242
1.252,-0.0337483799501552,-0.0974431585267258
1.256,-0.0304744657452285,-0.0998404638877965
1.26,-0.0272948489189401,-0.102706920200664
1.264,-0.0242477288344566,-0.106039881789146
1.268,-0.0213720428372553,-0.109833510321891
1.272,-0.0187071011342011,-0.11407855773673
1.276,-0.0162921818878196,-0.118762207617433
1.28,-0.0141660972900858,-0.123867980939993
1.284,-0.0123667421119611,-0.129375710104739
1.288,-0.0109306366034163,-0.135261583095825
1.292,-0.00989247562642403,-0.141498257536114
1.296,-0.00928469553599649,-0.14805504238386
1.3,-0.00913706966986056,-0.154898143117434
1.304,-0.00947634229886405,-0.161990964523741
1.308,-0.0103259096421799,-0.169294463690966
1.312,-0.0117055550743717,-0.176767544552817
1.316,-0.0136312439973319,-0.184367484363299
1.32,-0.0161149820854144,-0.192050381821928
1.324,-0.0191647387787468,-0.199771616236947
1.328,-0.0227844360679799,-0.207486307095768
1.332,-0.0269740008280597,-0.215149763715126
1.336,-0.0317294772802146,-0.222717915241586
1.34,-0.0370431946305354,-0.230147712137472
1.344,-0.0429039836041418,-0.237397491393582
1.348,-0.0492974344831596,-0.244427299009119
1.352,-0.0562061884133836,-0.251199164730171
1.356,-0.0636102531691898,-0.257677325590428
1.36,-0.071487334278661,-0.263828396402985
1.364,-0.0798131724091155,-0.269621486956302
1.368,-0.0885618781892017,-0.275028267223698
1.372,-0.0977062561791011,-0.280022983356052
1.376,-0.107218456229275,-0.284587659556327
1.38,-0.117074080357128,-0.288712802541551
1.384,-0.1272455145118,-0.292363736421706
1.388,-0.137703531582788,-0.295522720374227
1.392,-0.148418449914684,-0.29817395943823
1.396,-0.159360235381678,-0.300303529498194
1.4,-0.170498583873714,-0.301899305849359
1.404,-0.181802987027251,-0.302950898590567
1.408,-0.193242784482968,-0.303449597347366
1.412,-0.204787206242813,-0.303388327036881
1.416,-0.216405408825306,-0.302761615571042
1.42,-0.228066508890775,-0.30156557359592
1.424,-0.239739617824837,-0.29979788559691
1.428,-0.25139388044991,-0.297457811004779
1.432,-0.262998520590775,-0.294546193323218
1.436,-0.274522895676503,-0.291065474799528
1.44,-0.285936561938137,-0.287019713779303
1.444,-0.297209351082813,-0.282414601639869
1.448,-0.308311458623055,-0.277257476095784
1.452,-0.31921354333409,-0.271557327702104
1.456,-0.329886836634838,-0.265324796558163
1.46,-0.340303260058214,-0.258572156514546
1.464,-0.35043554842474,-0.251313284605794
1.468,-0.360257375871123,-0.243563613949744
1.472,-0.369743481531499,-0.235340068952842
1.476,-0.378869791444653,-0.226660982317035
1.48,-0.387613533154415,-0.217545994036541
1.484,-0.395953339513074,-0.208015933270788
1.488,-0.403869338356773,-0.198092684668655
1.492,-0.411343225026338,-0.18779904136305
1.496,-0.418358315117666,-0.177158547439152
1.5,-0.424899575365971,-0.166195333181522
1.504,-0.430936204360018,-0.154956128808347
1.508,-0.436480844560554,-0.14344849623691
1.512,-0.441524420602772,-0.131695705341951
1.516,-0.446059060203281,-0.119720756336911
1.52,-0.45007797102535,-0.107546303329291
1.524,-0.453575309885627,-0.0951946009017311
1.528,-0.456546048197131,-0.0826874748632379
1.532,-0.458985837729506,-0.0700463176485003
1.536,-0.460890880839127,-0.0572921081570142
1.54,-0.462257809272289,-0.0444454551204883
1.544,-0.463083575483028,-0.0315266624023178
1.548,-0.463365360118234,-0.0185558139805879
1.552,-0.463100498940046,-0.00555287576319956
1.556,-0.462286431962826,0.00746218914617617
1.56,-0.460920677008877,0.0204692955567338
1.564,-0.459000829247809,0.0334481058459574
1.568,-0.456524587585303,0.0463778985693084
1.572,-0.45348980804386,0.0592374405495187
1.576,-0.449894583533581,0.0720048669689099
1.58,-0.445737348683518,0.08465757386513
1.584,-0.441017007692954,0.0971721271841796
1.588,-0.435733082511396,0.109524192193233
1.592,-0.429885878056323,0.121688486593696
1.596,-0.423476660671907,0.133638760126596
1.6,-0.416507845610705,0.145347802836077
1.604,-0.408983189014345,0.156787483471178
1.608,-0.400907979667686,0.167928818779355
1.612,-0.392289225729717,0.178742073695563
1.616,-0.383135831680769,0.189196891682398
1.62,-0.373458760897481,0.199262453740364
1.624,-0.363271179530975,0.208907663914485
1.628,-0.352557611085048,0.218107961334917
1.632,-0.34135511995538,0.226816570277973
1.636,-0.329696959120594,0.23499892472748
1.64,-0.31760903011138,0.242625503986558
1.644,-0.305119636174158,0.249668313719458
1.648,-0.29225934058361,0.256101124329819
1.652,-0.279060797862658,0.261899688032298
1.656,-0.265558561773015,0.267041931346621
1.66,-0.251788874339013,0.271508120419176
1.664,-0.237789440442069,0.275280997369561
1.668,-0.223599192658606,0.278345886628108
1.672,-0.209258051019072,0.280690771021661
1.676,-0.194806682238136,0.282306338117819
1.68,-0.180286262710855,0.283185998068723
1.684,-0.165738249206521,0.283325874835259
1.688,-0.151204160726522,0.282724773249688
1.692,-0.136725374439325,0.281384124846945
1.696,-0.122342938002876,0.279307915756268
1.7,-0.108097399925663,0.276502600195373
1.704,-0.0940286589375736,0.272977003234443
1.708,-0.080175832684947,0.2687422165028
1.712,-0.0665771453737766,0.263811490398393
1.716,-0.0532698334125008,0.25820012613906
1.72,-0.0402900675202193,0.251925370662768
1.724,-0.0276728892981615,0.245006316991332
1.728,-0.0154521598685756,0.237463812161366
1.732,-0.00366051788679187,0.22932037431218
1.736,0.00767065595603328,0.220600119938755
1.74,0.0185112709078659,0.211328701716622
1.744,0.0288325575481217,0.201533256735881
1.748,0.0386071014263041,0.191242364385541
1.752,0.0478383602660273,0.180504868227315
1.756,0.0565094869278422,0.169337829255358
1.76,0.0645667312007119,0.157748687616797
1.764,0.0719837695574619,0.145770327641261
1.768,0.0787357521789475,0.133437919213808
1.772,0.0847995718530891,0.120788906950476
1.776,0.0901541440129411,0.107862960761123
1.78,0.0947806917926609,0.0947018854754166
1.784,0.0986630296214554,0.0813494882559849
1.788,0.101787838730494,0.0678514035193866
1.792,0.104144927927042,0.054254876214065
1.796,0.105727473179854,0.0406085052900539
1.8,0.106532229887995,0.026961950241242
1.804,0.106559712194095,0.0133656044883763
1.808,0.10581433432785,-0.000129759748009511
1.812,0.104304509712932,-0.0134733697474257
1.816,0.102042704399646,-0.02661484778979
1.82,0.0990454423348003,-0.0395046174563464
1.824,0.0953332609208844,-0.052094313988614
1.828,0.0909306163417809,-0.0643371918179208
1.832,0.0858657391406665,-0.0761885223654236
1.836,0.0801704415421003,-0.0876059753512877
1.84,0.0738798789268517,-0.0985499771424364
1.844,0.0670322688286864,-0.108984040086751
1.848,0.0596685715975501,-0.118875057319757
1.852,0.0518321376088744,-0.128193558214388
1.856,0.043568326550322,-0.136913920336339
1.86,0.0349241047825697,-0.145014534660808
1.864,0.0259476271748293,-0.15247792163539
1.868,0.0166878100508032,-0.159290796622536
1.872,0.00719390199377575,-0.1654440841872
1.876,-0.00247527588514628,-0.170918368918341
1.88,-0.012241434303803,-0.17569172273477
1.884,-0.0220819134627613,-0.179818106591303
1.888,-0.0319537605602954,-0.183307301412994
1.892,-0.0418161305071827,-0.186171932572404
1.896,-0.0516304627346105,-0.188427142501059
1.9,-0.0613606105936051,-0.1900902560886
1.904,-0.0709729239859366,-0.191180445511557
1.908,-0.0804362868305232,-0.191718400848275
1.912,-0.0897221117426916,-0.191726012430343
1.916,-0.0988042951194295,-0.191226070368851
1.92,-0.107659136436727,-0.190241986097779
1.924,-0.11626522615679,-0.188797540097596
1.928,-0.124603307091234,-0.186916659233013
1.932,-0.132656114389429,-0.184623226353266
1.936,-0.140408199571514,-0.181940924019388
1.94,-0.147845744110088,-0.178893113390206
1.944,-0.154956368068437,-0.175502748508699
1.948,-0.161728939183478,-0.171792325449079
1.952,-0.168153387563216,-0.167783865031222
1.956,-0.174220530839156,-0.163498927117857
1.96,-0.179921914235029,-0.158958653877461
1.964,-0.185249669504222,-0.154183838825427
1.968,-0.190196396157608,-0.149195017972632
1.972,-0.194755067801067,-0.144012579014374
1.976,-0.19891896578047,-0.138656884176202
1.98,-0.202681641620847,-0.133148402120571
1.984,-0.20603690912235,-0.127507844194401
1.988,-0.20897886625801,-0.121756300269031
1.992,-0.211501946346587,-0.115915369479862
1.996,-0.213600997347329,-0.110007281340973
2,-0.215271387478953,-0.104055002912906
2.004,-0.216536313125517,-0.0980211059380832
2.008,-0.217347483215284,-0.0919848249527437
2.012,-0.217701543490118,-0.0859756195492358
2.016,-0.217597002159364,-0.0800240588607675
2.02,-0.217034438840834,-0.0741616867481327
2.024,-0.216016699775706,-0.0684208549087186
2.028,-0.214549074910715,-0.062834525831529
2.032,-0.212639452743949,-0.0574360481111845
2.036,-0.210298449216103,-0.0522589071137844
2.04,-0.207539507354104,-0.0473364544521196
2.044,-0.204378964845619,-0.0427016201094668
2.048,-0.200836087251574,-0.0383866113828483
2.052,-0.196933065112963,-0.034422603065181
2.056,-0.192694973775003,-0.0308394234768813
2.06,-0.188149695339777,-0.0276652410698703
2.064,-0.183327802758636,-0.0249262563730596
2.068,-0.178262406658281,-0.022646404016048
2.072,-0.172988966100937,-0.0208470694728689
2.076,-0.167545065005525,-0.0195468250112951
2.08,-0.161970156546281,-0.0187611890795531
2.084,-0.156305278334443,-0.01850241309704
2.088,-0.150592741668515,-0.0187792992392134
2.092,-0.144875798582579,-0.0195970524174677
2.096,-0.139198290805179,-0.0209571691826782
2.1,-0.133604285075319,-0.0228573657853862
2.104,-0.128137699538883,-0.0252915470775956
2.108,-0.122841926156333,-0.0282498173597729
2.112,-0.117759454204858,-0.0317185336742131
2.116,-0.112931500006776,-0.0356804014131855
2.12,-0.108397648036665,-0.0401146114677331
2.124,-0.10419550845893,-0.0449970175133779
2.128,-0.100431745607687,-0.0502904825177623
2.132,-0.0970868900547823,-0.0559483999872863
2.136,-0.0941614789559843,-0.0619393320051094
2.14,-0.091677253404208,-0.0682305640186316
2.144,-0.089653129133011,-0.0747883209949767
2.148,-0.0881051854208306,-0.0815780389360459
2.152,-0.0870466824842957,-0.0885646288586885
2.156,-0.0864881057997777,-0.0957127300469578
2.16,-0.0864372353591465,-0.102986949622907
2.164,-0.0868992375729195,-0.110352085760098
2.168,-0.0878767771828223,-0.117773332190392
2.172,-0.0893701462846296,-0.125216462009586
2.176,-0.0913774073304867,-0.132647989209402
2.18,-0.0938945467945972,-0.140035306798919
2.184,-0.0969156360919164,-0.147346800816264
2.188,-0.100432996248178,-0.154551940067956
2.192,-0.104437362877633,-0.161621341870576
2.196,-0.108918048077448,-0.168526814601752
2.2,-0.113863096026628,-0.175241378332509
2.204,-0.119259429302469,-0.181739265275486
2.208,-0.125092983228296,-0.187995902207905
2.212,-0.131348825934471,-0.193987877405578
2.216,-0.138011262235774,-0.199692894948455
2.22,-0.14506391989861,-0.205089719510584
2.224,-0.152489817398722,-0.210158114931948
2.228,-0.160271412778214,-0.214878779958227
2.232,-0.168390633797127,-0.219233284574616
2.236,-0.176828890098504,-0.223204010242257
2.24,-0.185567068659432,-0.226774097231896
2.244,-0.194585514298871,-0.229927401968538
2.248,-0.203863997483237,-0.232648466979208
2.252,-0.213415746879493,-0.234946522898388
2.256,-0.223228273687178,-0.236792673417702
2.26,-0.23324480746912,-0.238142723996129
2.264,-0.243437875904732,-0.238982459638942
2.268,-0.253778956149977,-0.239299262242615
2.272,-0.264238567712384,-0.239082214838918
2.276,-0.274786379026902,-0.23832220093862
2.28,-0.285391327587141,-0.237011996948672
2.284,-0.296021753199315,-0.235146355594242
2.288,-0.306645543583377,-0.232722078303893
2.292,-0.317230291244799,-0.22973807458439
2.296,-0.327743460186546,-0.226195406550595
2.3,-0.338152560783847,-0.222097316917404
2.304,-0.348425330809671,-0.217449239032218
2.308,-0.3585299203941,-0.212258787766727
2.312,-0.368435078490068,-0.206535730382984
2.316,-0.378110338243702,-0.200291936880901
2.32,-0.387526198579212,-0.193541309650099
2.324,-0.396654299247355,-0.186299692673718
2.328,-0.405467586596501,-0.178584760910426
2.332,-0.413940467392944,-0.170415890891222
2.336,-0.422048948142487,-0.161814013942241
2.34,-0.429770757555533,-0.152801453841959
2.344,-0.437085450033102,-0.143401751021823
2.348,-0.443974488341045,-0.133639475795282
2.352,-0.450421304000734,-0.123540033293159
2.356,-0.456411334264306,-0.113129463061862
2.36,-0.461932034986238,-0.102434236409139
2.364,-0.466972869117978,-0.0914810546986862
2.368,-0.471525271007778,-0.0802966518314484
2.372,-0.475582587130168,-0.0689076041312077
2.376,-0.479137667905077,-0.057347876563312
2.38,-0.482188159298766,-0.0456598731856481
2.384,-0.484742990316637,-0.0338449009084435
2.388,-0.486802150538171,-0.0219254661787162
2.392,-0.488366625749041,-0.00992320027941379
2.396,-0.489438240984573,0.00214117565134483
2.4,-0.490019503842354,0.0142478631766885
2.404,-0.490113451081623,0.026377977006126
2.408,-0.489723501463438,0.0385135140602183
2.412,-0.488853317662504,0.0506373022430763
2.416,-0.487506679913674,0.0627329304204526
2.42,-0.485687373827345,0.0747846614038148
2.424,-0.483399094560236,0.0867773300877996
2.428,-0.480645369204034,0.098696229125096
2.432,-0.477429498936217,0.110526984783889
2.436,-0.473754522108353,0.122255425785156
2.44,-0.469630474837936,0.133868486129249
2.444,-0.465056361107121,0.14535410156197
2.448,-0.460029396780495,0.156697684417143
2.452,-0.454551068651222,0.167884235581471
2.456,-0.44862280369789,0.178898205703112
2.46,-0.442246075591282,0.189723395905387
2.464,-0.435422527437512,0.200342874100264
2.468,-0.428154108628265,0.210738908966963
2.472,-0.420443223390627,0.220892923376709
2.476,-0.412292888492497,0.230785468734338
2.48,-0.40370689736024,0.24039622135379
2.484,-0.394689987786722,0.249704001658383
2.488,-0.385248010331659,0.258686816632435
2.492,-0.375388094501117,0.267321925607626
2.496,-0.36511880981126,0.27558592910064
2.5,-0.354450318904584,0.283454880115459
2.504,-0.343378113020676,0.290928425187951
2.508,-0.331926334062886,0.297953011373283
2.512,-0.320111795900671,0.304502832483873
2.516,-0.307953554824467,0.310552384092511
2.52,-0.295472949917136,0.316076690461371
2.524,-0.282693618826429,0.321051538498938
2.528,-0.269641488298362,0.325453716062802
2.532,-0.256344739054986,0.329261251901948
2.536,-0.242833744924659,0.332453654533057
2.54,-0.229140986362222,0.335012147368711
2.544,-0.215300938755435,0.33691989746946
2.548,-0.20134993616546,0.338162235332297
2.552,-0.187326011360316,0.338726863232579
2.556,-0.173268713244415,0.338604049707776
2.56,-0.159218902979563,0.337786807879259
2.564,-0.145218530309621,0.33627105542424
2.568,-0.131310391797444,0.334055754137115
2.572,-0.117537872873928,0.33114302715892
2.576,-0.103944675790721,0.327538252097361
2.58,-0.090574535753641,0.323250128447001
2.584,-0.0774709276841978,0.318290717884883
2.588,-0.0646767662497356,0.312675456237347
2.592,-0.0522341019365028,0.306423136142319
2.596,-0.0401838161283488,0.29955585967036
2.6,-0.0285653182518343,0.29209896047906
2.604,-0.017416248193715,0.284080895347334
2.608,-0.00677218727223019,0.275533105299268
2.612,0.00333361890918158,0.266489846876488
2.616,0.0128705223725806,0.256987994505523
2.62,0.0218107161121311,0.247066815313131
2.624,0.0301294556634299,0.23676771815719
2.628,0.0377719869089266,0.226164127904235
2.632,0.0447522905837797,0.215290505759858
2.636,0.0510702270678719,0.204182194900549
2.64,0.0567166235988569,0.192883641136687
2.644,0.0616856064300366,0.181439623548127
2.648,0.0659745991877092,0.16989497858432
2.652,0.0695842944944276,0.15829432674778
2.656,0.0725185991958986,0.14668180497407
2.66,0.0747845539693733,0.135100807773726
2.664,0.0763922285229694,0.123593740164922
2.668,0.0773545940445288,0.112201785239063
2.672,0.0776873749791958,0.100964688993033
2.676,0.0774088825895243,0.0899205647473915
2.68,0.0765398331094309,0.0791057191068333
2.684,0.0751031535829335,0.0685545009777976
2.688,0.0731237786681297,0.0582991746805064
2.692,0.0706284418417236,0.0483698176729897
2.696,0.0676454644559837,0.0387942428605395
2.7,0.064204546048589,0.0295979449178807
2.704,0.0603365591601862,0.0208040695258477
2.708,0.0560733516786252,0.0124334038924934
2.712,0.0514475593665697,0.00450438650713441
2.716,0.0464924308842362,-0.00296686635679847
2.72,0.0412416670816489,-0.00996652017911219
2.724,0.0357292758631377,-0.0164829708024864
2.728,0.0299894433444571,-0.0225067852843372
2.732,0.0240564214522936,-0.0280306382248675
2.736,0.0179644315452888,-0.0330492467041477
2.74,0.0117475830693788,-0.0375593068502667
2.744,0.00543980575246451,-0.0415594347787305
2.748,-0.000925206646093565,-0.0450501142951354
2.752,-0.00734114987133691,-0.0480499058311378
2.756,-0.0137811450784052,-0.0505515974962238
2.76,-0.0201848635908411,-0.0525397278971476
2.764,-0.0265166658375604,-0.0540208363604942
2.768,-0.0327411653836306,-0.0550038096502701
2.772,-0.038823371211744,-0.0554999230571078
2.776,-0.0447288433737087,-0.0555228752072687
2.78,-0.0504238621920158,-0.0550888138769266
2.784,-0.0558756107269081,-0.0542163499728367
2.788,-0.0610523697027075,-0.0529265568143585
2.792,-0.0659237235348786,-0.0512429518869085
2.796,-0.0704607756051576,-0.0491914584308063
2.8,-0.0746363704030419,-0.0468003444157147
2.804,-0.0784253197125248,-0.0441001368373434
2.808,-0.0818046295957954,-0.0411235096346378
2.812,-0.0847537245898793,-0.0379051440557629
