"Freq [GHz]","re(S(Antenna1_1_1,Antenna1_1_1)) []","im(S(Antenna1_1_1,Antenna1_1_1)) []"
1,0.379187921182975,0.0216559086398673
1.004,0.372127604000071,0.00103671187736582
1.008,0.364000901341122,-0.0189479902350711
1.012,0.354860325092621,-0.0382211039012424
1.016,0.344765467878731,-0.0567106573621086
1.02,0.333782395799324,-0.0743505335743129
1.024,0.321982962840224,-0.0910811206479622
1.028,0.309444058859109,-0.106849871939868
1.032,0.296246803767557,-0.121611769541902
1.036,0.282475700993584,-0.135329686648965
1.04,0.26821776349028,-0.147974646128844
1.044,0.253561625499432,-0.15952597435751
1.048,0.238596653010488,-0.169971351076011
1.052,0.223412065358837,-0.179306757583198
1.056,0.208096079724609,-0.187536327081753
1.06,0.192735089494377,-0.194672102247371
1.064,0.17744802429418,-0.200680398232984
1.068,0.162362898634634,-0.205570925247938
1.072,0.147504161592471,-0.209479291008672
1.076,0.132937333296826,-0.212450458730298
1.08,0.118722047225711,-0.214533839401748
1.084,0.104911777662122,-0.215782554699218
1.088,0.0915536576680605,-0.216252691522952
1.092,0.0786883859221967,-0.216002558861
1.096,0.0663502195922737,-0.215091957150618
1.1,0.0545670493494324,-0.213581469682488
1.104,0.0433605516612843,-0.211531784887771
1.108,0.0327464126665544,-0.209003057559891
1.112,0.0227346171542402,-0.206054316194247
1.116,0.013329795564933,-0.202742922747567
1.12,0.00453162137987934,-0.199124090149618
1.124,-0.00366474913978537,-0.195250461952708
1.128,-0.0112643989101964,-0.191347602775213
1.132,-0.0183351529405856,-0.187341510323209
1.136,-0.0248997511032988,-0.183205874904241
1.14,-0.0309727890681388,-0.178969359893241
1.144,-0.0365691231301433,-0.174657653083484
1.148,-0.0417034764477386,-0.170293704446334
1.152,-0.0463900962531941,-0.165898009414414
1.156,-0.0506424668995474,-0.161488929759256
1.16,-0.0544730825685177,-0.157083043666748
1.164,-0.0578932823119445,-0.152695516202678
1.168,-0.0609131489614994,-0.148340481169304
1.172,-0.0635414722471177,-0.144031425218977
1.176,-0.0657857752751261,-0.139781565178176
1.18,-0.0676524023423232,-0.135604209710144
1.184,-0.0691466648883356,-0.131513096812071
1.188,-0.0702730413111508,-0.127522699131291
1.192,-0.0710354252774315,-0.123648489713421
1.196,-0.0714374162615377,-0.119907161591415
1.2,-0.0714826451262662,-0.116316795517751
1.204,-0.0711751268579857,-0.112896971127288
1.208,-0.0705196319637638,-0.109668817997882
1.212,-0.0695220675582619,-0.106655004181365
1.216,-0.068189858913005,-0.10387966113084
1.22,-0.0665323220977487,-0.101368245154837
1.224,-0.0645610184156877,-0.0991473369123931
1.228,-0.062290081584556,-0.0972443817109384
1.232,-0.0597365090112451,-0.0956873746717464
1.236,-0.0569204091512867,-0.0945044960132734
1.24,-0.0538651976797837,-0.0937237028221774
1.244,-0.0505977361430481,-0.0933722846905448
1.248,-0.0471484078181767,-0.0934763914669242
1.252,-0.0433826551173552,-0.0940511526547258
1.256,-0.0393398266067285,-0.0951832694277965
1.26,-0.0352429969129401,-0.0969216703946637
1.264,-0.0311513839124566,-0.0992787758551456
1.268,-0.0271261461502553,-0.102260985433791
1.272,-0.0232296904932011,-0.10586841710183
1.276,-0.0195249485798196,-0.110094733958033
1.28,-0.0160746337890858,-0.114927062109723
1.284,-0.0129404908019611,-0.120346001366839
1.288,-0.0101825498423163,-0.126325728820525
1.292,-0.00785839760822402,-0.132834193787914
1.296,-0.00602247647079649,-0.13983340097256
1.3,-0.00472542298986056,-0.147279777238134
1.304,-0.00401345596616405,-0.155124615965641
1.308,-0.00392782334117987,-0.163314591698466
1.312,-0.00450431608857175,-0.171792336685117
1.316,-0.00577285604065191,-0.180497069978099
1.32,-0.0077571631955044,-0.189365269005928
1.324,-0.0104745066729468,-0.198331372993347
1.328,-0.0139355419693799,-0.207328507260368
1.332,-0.0181442357261597,-0.216289217309326
1.336,-0.0230978777299145,-0.225146201670586
1.34,-0.0287871784548354,-0.233833032761172
1.344,-0.0351964491319418,-0.242284855453882
1.348,-0.0423038600478596,-0.250439053678519
1.352,-0.0500817716804836,-0.258235876160071
1.356,-0.0584971322631898,-0.265619013268028
1.36,-0.067511934534561,-0.272536117990195
1.364,-0.0770837237327155,-0.278939265098722
1.368,-0.0871661483825017,-0.284785343711958
1.372,-0.0977095450359011,-0.290036379659492
1.376,-0.108652908089975,-0.294591858838697
1.38,-0.119883125482228,-0.298297657935261
1.384,-0.1313480835387,-0.301350174656046
1.388,-0.142996084730588,-0.303744777989822
1.392,-0.154776873192784,-0.30548155017799
1.396,-0.166642079742178,-0.306564959065744
1.4,-0.178545615708014,-0.307003489937898
1.404,-0.190444012393151,-0.306809243881767
1.408,-0.202296703825468,-0.305997509848266
1.412,-0.214066251374013,-0.304586317636981
1.416,-0.225718509654306,-0.302595978986492
1.42,-0.237222733947475,-0.30004862377232
1.424,-0.248551630128937,-0.29696773813041
1.428,-0.25968134884021,-0.293377710985579
1.432,-0.270591426254475,-0.289303395120018
1.436,-0.281264674425693,-0.284769688495128
1.44,-0.291687024709727,-0.279801141067103
1.444,-0.301847328256783,-0.274421591843869
1.448,-0.311737117933655,-0.268653840404584
1.452,-0.32135033643219,-0.262519356532304
1.456,-0.330683035561638,-0.256038031053463
1.46,-0.339733051985314,-0.249227970403946
1.464,-0.34849966478624,-0.242105336824395
1.468,-0.356983240413723,-0.234684235532944
1.472,-0.365184870572299,-0.226976649593942
1.476,-0.373106008643253,-0.218992422658985
1.48,-0.380748110181615,-0.210739289115351
1.484,-0.388112282937174,-0.202222950673988
1.488,-0.395198951678673,-0.193447197803755
1.492,-0.402007542942538,-0.18441407391865
1.496,-0.408536194544966,-0.175124079671252
1.5,-0.414781494413171,-0.165576414206322
1.504,-0.420909490437718,-0.155809438818447
1.508,-0.426749636582754,-0.14573769659461
1.512,-0.432284899290062,-0.135357204084551
1.516,-0.437495914066651,-0.124665153427511
1.52,-0.44236110200535,-0.113660284404991
1.524,-0.446856834712827,-0.102343241643431
1.528,-0.450957645669731,-0.0907169111739379
1.532,-0.454636485424406,-0.0787867307969004
1.536,-0.457865017333727,-0.0665609690107142
1.54,-0.460613950011189,-0.0540509676465883
1.544,-0.462853402015128,-0.0412713438065178
1.548,-0.464553293859734,-0.0282401472307579
1.552,-0.465683761920946,-0.0149789697803696
1.556,-0.466215588441326,-0.00151300440642383
1.56,-0.466120641519277,0.0121289483837338
1.564,-0.465372318726209,0.0259145277862574
1.568,-0.463945987841703,0.0398079141664084
1.572,-0.46181941814396,0.0537699844126187
1.576,-0.458973195716681,0.0677585200954099
1.58,-0.455391116378718,0.08172846651003
1.584,-0.451060550053094,0.0956322399595796
1.588,-0.445972770740996,0.109420079843233
1.592,-0.440123246639823,0.123040441410196
1.596,-0.433511885563407,0.136440424396496
1.6,-0.426143231148805,0.149566232136777
1.604,-0.418026606444045,0.162363655233078
1.608,-0.409176201706586,0.174778573413655
1.612,-0.399611104351717,0.186757468860363
1.616,-0.389355269762769,0.198247944044298
1.62,-0.378437432425481,0.209199236938554
1.624,-0.366890957860975,0.219562726454685
1.628,-0.354566820556048,0.229138603736317
1.632,-0.34167890924338,0.237933550129873
1.636,-0.328351892498894,0.24596146824518
1.64,-0.31464413822548,0.253198899550358
1.644,-0.300615122155658,0.259628064206458
1.648,-0.28632478288321,0.265236869925819
1.652,-0.271832886615158,0.270018842314298
1.656,-0.257198411490315,0.273972978859621
1.66,-0.242478960868813,0.277103530063176
1.664,-0.227730214502769,0.279419712393561
1.668,-0.213005425796206,0.280935358802808
1.672,-0.198354972449272,0.281668513577361
1.676,-0.183825966959136,0.281640979150499
1.68,-0.169461932354855,0.280877823262123
1.684,-0.155302547222521,0.279406855436459
1.688,-0.141383463186522,0.277258082217448
1.692,-0.127736196428325,0.274463150836245
1.696,-0.114388093820876,0.271054791163568
1.7,-0.101362372790663,0.267066265668973
1.704,-0.0886782327975736,0.262530836943343
1.708,-0.076351035226747,0.2574812619778
1.712,-0.0643925472004766,0.251949321780393
1.716,-0.0528112438079008,0.24596539432106
1.72,-0.0416126623059893,0.239558077939768
1.724,-0.0307998009554615,0.232753871554332
1.728,-0.0203735544462756,0.225576916785366
1.732,-0.0103331772918919,0.21804880628018
1.736,-0.000676766088366716,0.210188461153755
1.74,0.00859824871586585,0.202012079440622
1.744,0.0174946111171217,0.193533156163381
1.748,0.0260147573603041,0.184762574419341
1.752,0.0343936592930273,0.175879043343415
1.756,0.0426926748418422,0.166796696908358
1.76,0.0506780089877119,0.157307118213797
1.764,0.0583211388214619,0.147402370104161
1.768,0.0655897153559475,0.137077521684408
1.772,0.0724479619730891,0.126331299417476
1.776,0.0788571640589411,0.115166681465123
1.78,0.0847762415831609,0.103591423589417
1.784,0.0901623950633554,0.0916185060459849
1.788,0.094971814187494,0.0792664922103866
1.792,0.0991604370470722,0.066559791279065
1.796,0.102684747327754,0.0535288186610539
1.8,0.105502595926295,0.040210049695242
1.804,0.107574033082895,0.0266459638373763
1.808,0.10886213683285,0.0128848781589905
1.812,0.109333823555932,-0.00101932886652567
1.816,0.108960626548646,-0.01500760104319
1.82,0.1077194289578,-0.0290161911703464
1.824,0.105593137997884,-0.042977244962244
1.828,0.102571288075781,-0.0568194746204208
1.832,0.0986505616396665,-0.0704689130642236
1.836,0.0938352173411003,-0.0838497384284877
1.84,0.0881374168408517,-0.0968851571875364
1.844,0.0815774426716864,-0.109498333229751
1.848,0.0741838012991501,-0.121613349262757
1.852,0.0659932072964744,-0.133156186238388
1.856,0.057050445987022,-0.144055705963339
1.86,0.0474081142736797,-0.154244621764808
1.864,0.0371262405560293,-0.16366044198039
1.868,0.0262717871299032,-0.172246371239536
1.872,0.0149180400625758,-0.1799521547162
1.876,0.00310626281985372,-0.186599183986341
1.88,-0.00906671241380298,-0.19186152498277
1.884,-0.0213439564855613,-0.196128225526303
1.888,-0.0336340407902954,-0.199409363196894
1.892,-0.0458481544641827,-0.201724409149204
1.896,-0.0579011498006105,-0.203101786473139
1.9,-0.0697125210526051,-0.2035783072047
1.904,-0.0812073023219366,-0.203198497370257
1.908,-0.0923168715295233,-0.202013821521575
1.912,-0.102979648886692,-0.200081819020343
1.916,-0.113141680080429,-0.197465166448851
1.92,-0.122757096018727,-0.194230681051779
1.924,-0.13178844310729,-0.190448281314496
1.928,-0.140206879882534,-0.186189921330013
1.932,-0.147992238257329,-0.181528516001266
1.936,-0.155132949352013,-0.176536874270388
1.94,-0.161625836405288,-0.171286657388206
1.944,-0.167475779309337,-0.165847378858699
1.948,-0.172695257226478,-0.160285461987079
1.952,-0.177303777970216,-0.154663370010222
1.956,-0.181327204443156,-0.149038822628857
1.96,-0.184796990332029,-0.143464111328661
1.964,-0.187749338622022,-0.137985524275827
1.968,-0.190224297838608,-0.132642889692832
1.972,-0.192264812008067,-0.127469244699874
1.976,-0.19391574108247,-0.122490634592602
1.98,-0.195222869161847,-0.117726045120071
1.984,-0.19623191804635,-0.113187468278401
1.988,-0.19698758364701,-0.108880099775031
1.992,-0.197532612438587,-0.104802663966862
1.996,-0.197906934488329,-0.100947860091973
2,-0.198146868769653,-0.097302921191906
2.004,-0.198780235445017,-0.0939859805550832
2.008,-0.199365538097994,-0.0907093526216437
2.012,-0.199899415273318,-0.0874445183452358
2.016,-0.200372343826064,-0.0841647990907676
2.02,-0.200769034815834,-0.0808463064741327
2.024,-0.201068959739706,-0.0774688244797186
2.028,-0.201246996739715,-0.074016606859529
2.032,-0.201274184212949,-0.0704790744241845
2.036,-0.201118567129103,-0.0668513985118844
2.04,-0.200746120117104,-0.0631349589321196
2.044,-0.200121729436619,-0.0593376670571668
2.048,-0.199210215205274,-0.0554741471005483
2.052,-0.197977374297963,-0.051565770771981
2.056,-0.196391023882003,-0.0476405439366813
2.06,-0.194422025453777,-0.0437328455608703
2.064,-0.192045269460636,-0.0398830228330596
2.068,-0.189240601169281,-0.036136848260048
2.072,-0.185993669296937,-0.0325448475328689
2.076,-0.182296680381325,-0.0291615090842951
2.08,-0.178149043004781,-0.0260443886635532
2.084,-0.173557888371043,-0.02325312415004
2.088,-0.168538455276215,-0.0208483776482134
2.092,-0.163114330342279,-0.0188907233694677
2.096,-0.157317536404179,-0.0174395009626782
2.1,-0.151188464980319,-0.0165516548003862
2.104,-0.144775651327883,-0.0162805802025956
2.108,-0.138135393314333,-0.0166749976297729
2.112,-0.131331218319858,-0.0177778758232131
2.116,-0.124433204926776,-0.0196254238287855
2.12,-0.117517169030665,-0.0222461713981331
2.124,-0.11066372633993,-0.0256601553831779
2.128,-0.103905243223887,-0.0303794332372623
2.132,-0.0975153643257823,-0.0360753609915863
2.136,-0.0916201734369843,-0.0425422600821094
2.14,-0.086301613814208,-0.0497283546536316
2.144,-0.0816351658910111,-0.0575728186199767
2.148,-0.0776888057138306,-0.0660066592100459
2.152,-0.0745220876307957,-0.0749537228166885
2.156,-0.0721853656875777,-0.0843318053679578
2.16,-0.0707191655609865,-0.0940538483299069
2.164,-0.0701537163803195,-0.104029199591098
2.168,-0.0705086490025223,-0.114164917890392
2.172,-0.0717928642356296,-0.124367098579586
2.176,-0.0740045718154867,-0.134542198406402
2.18,-0.0771314978455972,-0.144598337130919
2.184,-0.0811512554479164,-0.154446554356264
2.188,-0.0860318709031777,-0.164002000887556
2.192,-0.091732454482633,-0.173185045206976
2.196,-0.0982040031684475,-0.181922277332852
2.2,-0.105390320028628,-0.190147394186609
2.204,-0.113229033174469,-0.197801952802586
2.208,-0.121652695705296,-0.204835980266805
2.212,-0.130589946724471,-0.211208431674578
2.216,-0.139966712695774,-0.216887490154455
2.22,-0.14970742786461,-0.221850706123584
2.224,-0.159736252380722,-0.226084975246948
2.228,-0.169978266979214,-0.229586357881227
2.232,-0.180360623719127,-0.232359745275616
2.236,-0.190813633252164,-0.234418380467257
2.24,-0.201271770434332,-0.235783244310896
2.244,-0.211674581578971,-0.236482319293538
2.248,-0.221967478774237,-0.236549745844208
2.252,-0.231860180827493,-0.236118578964488
2.256,-0.241355658916178,-0.235322526419702
2.26,-0.25069535847912,-0.234133885060129
2.264,-0.259873029862732,-0.232585520362942
2.268,-0.268887333356977,-0.230708212878915
2.272,-0.277741348282384,-0.228530029408118
2.276,-0.286442007931902,-0.226075776665546
2.28,-0.294999472869141,-0.223366545728772
2.284,-0.303426455888315,-0.220419353538442
2.288,-0.311737512472377,-0.217246886185893
2.292,-0.319948311021199,-0.213857346565391
2.296,-0.328074897174546,-0.210254407090595
2.3,-0.336132966398847,-0.206437266395404
2.304,-0.344137158613671,-0.202400807090218
2.308,-0.3521003880061,-0.198135849582727
2.312,-0.360033220320968,-0.193629495899984
2.316,-0.367943308861582,-0.188865555375901
2.32,-0.375834899259512,-0.183825043017099
2.324,-0.383708411572656,-0.178486740246718
2.328,-0.391560106956001,-0.172827806546426
2.332,-0.399381844372944,-0.166824429929222
2.336,-0.407160931171487,-0.160452503604141
2.34,-0.414880069715533,-0.153688315840959
2.344,-0.422517400510102,-0.146509240033923
2.348,-0.430046640376045,-0.138894412038482
2.352,-0.437437312843734,-0.130825382276459
2.356,-0.444655066106306,-0.122286730631212
2.36,-0.451662072447238,-0.113266632961439
2.364,-0.458417501789978,-0.103757368971886
2.368,-0.464878060565778,-0.0937557624004484
2.372,-0.470998586212168,-0.0832635455352077
2.376,-0.476718754316677,-0.072244744091312
2.38,-0.481937305339866,-0.0606370645016481
2.384,-0.486636385721637,-0.0485994198364435
2.388,-0.490775028071671,-0.0361620935627162
2.392,-0.494314881832941,-0.0233598770974138
2.396,-0.497220746907013,-0.0102317476126552
2.4,-0.499461060869354,0.00317951838068847
2.404,-0.501008332146623,0.016827788937126
2.408,-0.501839512465038,0.0306640701892183
2.412,-0.501936303066504,0.0446370410570763
2.416,-0.501285390267674,0.0586936200324526
2.42,-0.499878607131345,0.0727795545078148
2.424,-0.497713019616236,0.0868400228526996
2.428,-0.494790936356034,0.100820239338996
2.432,-0.491119842860217,0.114666052062589
2.436,-0.486712262249353,0.128324524261966
2.44,-0.481544184113936,0.141722620427149
2.444,-0.475662377624121,0.15480736535607
2.448,-0.469122102190495,0.167544699353743
2.452,-0.461955693078222,0.179894247908471
2.456,-0.45419842842489,0.191819559675112
2.46,-0.445888005252282,0.203288346073387
2.464,-0.437063995695312,0.214272649750264
2.468,-0.427767293008565,0.224748940350963
2.472,-0.418039556984927,0.234698137506709
2.476,-0.407922668291697,0.244105562132338
2.48,-0.397458200975239,0.25296081822079
2.484,-0.386686921958222,0.261257608845383
2.488,-0.375648325792659,0.268993490690435
2.492,-0.364380212216117,0.276169572876626
2.496,-0.35291831325526,0.28279016655764
2.5,-0.341295975647584,0.288862392606459
2.504,-0.329703607509676,0.294289605860951
2.508,-0.318032456813886,0.299232004471183
2.512,-0.306299154346671,0.303706026172773
2.516,-0.294516862557467,0.307727704488211
2.52,-0.282695498496136,0.311312149149891
2.524,-0.270842026698429,0.314473068846338
2.528,-0.258960815475362,0.317222345221802
2.532,-0.247054048616986,0.319569666065248
2.536,-0.235122183974659,0.321522224552057
2.54,-0.223164449288222,0.323084490162711
2.544,-0.211179365092435,0.32425805557746
2.548,-0.19916528403336,0.325041562606297
2.552,-0.187120935626216,0.325430708434579
2.556,-0.175045965388615,0.325418332519776
2.56,-0.162941457345712,0.324994582510259
2.564,-0.150810429180521,0.32414715640824
2.568,-0.138658289766144,0.322861616786115
2.572,-0.126493249421028,0.321121771267921
2.576,-0.114326674058721,0.318910112697361
2.58,-0.102173375366641,0.316208310787001
2.584,-0.0900518302081978,0.312997746409883
2.588,-0.0779843237887357,0.309260078654347
2.592,-0.0659970122635028,0.304977834131519
2.596,-0.0541199021893488,0.30013500753126
2.6,-0.0423867453688343,0.29471766207866
2.604,-0.030834849406715,0.288714518456134
2.608,-0.0195048057842302,0.282117520834568
2.612,-0.00844013862281842,0.274922368952988
2.616,0.00231312107158056,0.267129005689523
2.62,0.0127069295521311,0.258742050249131
2.624,0.0226917854954299,0.24977116795519
2.628,0.0323648048409266,0.240012439616235
2.632,0.0415094706063797,0.229594677337858
2.636,0.0500107792964719,0.218625421419549
2.64,0.0578155210250569,0.207152417783687
2.644,0.0648749725277366,0.195229611216127
2.648,0.0711456484574092,0.18291662239532
2.652,0.0765899833146276,0.17027813400478
2.656,0.0811769331038986,0.15738319574607
2.66,0.0848824872003733,0.144304459145726
2.664,0.0876900824669694,0.131117354405922
2.668,0.0895909133415288,0.117899222259063
2.672,0.0905841333361958,0.104728414481233
2.676,0.0906769453645243,0.0916833771348915
2.68,0.0898845799204309,0.0788417307341333
2.684,0.0882301622789335,0.0662793614361976
2.688,0.0857444714931297,0.0540695369997064
2.692,0.0824655956377236,0.0422820606798897
2.696,0.0784384896409837,0.0309824754245395
2.7,0.073714443206589,0.0202313297338807
2.704,0.0683504678051862,0.0100835153848477
2.708,0.0624086128576252,0.000587685881493395
2.712,0.0559552220745697,-0.00821423692786559
2.716,0.0490601417504362,-0.0162874621327985
2.72,0.0417958932336489,-0.0236046307251122
2.724,0.0342368221592377,-0.0301460153584864
2.728,0.0264582370825571,-0.0358996180233372
2.732,0.0185355500416936,-0.0408611659768675
2.736,0.0105434312632888,-0.0450340080811477
2.74,0.00255498971037885,-0.0484289149522667
2.744,-0.00535900947353549,-0.0510637878277305
2.748,-0.0131308804140936,-0.0529632822331354
2.752,-0.0205624924243369,-0.0540847938221378
2.756,-0.0275709935234052,-0.0545176936545238
2.76,-0.0342392996928411,-0.0543987852317476
2.764,-0.0405319506435604,-0.0537771538744942
2.768,-0.0464194743196306,-0.0527035264492701
2.772,-0.051878352783744,-0.0512295622220078
2.776,-0.0568909056017087,-0.0494071702682687
2.78,-0.0614450962840158,-0.0472878627679266
2.784,-0.0655342683529081,-0.0449221525668367
2.788,-0.0691568184737075,-0.0423590023623585
2.792,-0.0723158147824786,-0.0396453317679085
2.796,-0.0750185690831576,-0.0368255873238063
2.8,-0.0772761720121419,-0.0339413793477147
2.804,-0.0791030004911248,-0.0310311883013434
2.808,-0.0805162068775954,-0.0281301420756378
2.812,-0.0815351991743792,-0.0252698645147629
