"Freq [GHz]","re(S(Antenna1_1_1,Antenna1_1_1)) []","im(S(Antenna1_1_1,Antenna1_1_1)) []"
1,0.373204711761975,0.0266936979575673
1.004,0.367134219673071,0.00692982344736582
1.008,0.360105796542122,-0.0123801682830711
1.012,0.352140921857621,-0.0311707200812424
1.016,0.343267334838732,-0.0493763271751086
1.02,0.333519219898324,-0.0669323028033129
1.024,0.322937283890224,-0.0837755807135622
1.028,0.311568719832109,-0.0998455381948676
1.032,0.299467054276557,-0.115084822682902
1.036,0.286691878076584,-0.129440164725965
1.04,0.27330846288238,-0.142863160253844
1.044,0.259387268156832,-0.15531100557351
1.048,0.245003345958488,-0.166747169443011
1.052,0.230235652906837,-0.177141987738198
1.056,0.215166280821609,-0.186473167788753
1.06,0.199879619267377,-0.194726191242372
1.064,0.18444430094891,-0.201853854537984
1.068,0.168957262764634,-0.207822868567938
1.072,0.153544514224471,-0.212713232423672
1.076,0.138291243723826,-0.216550529347298
1.08,0.123278894009711,-0.219368409490047
1.084,0.108584271343122,-0.221208030450518
1.088,0.0942787429520605,-0.222117389935952
1.092,0.0804275363061967,-0.222150564793
1.096,0.0670891514592737,-0.221366872344618
1.1,0.0543148952124324,-0.219829971304688
1.104,0.0421485431932843,-0.217606920472971
1.108,0.0306261332215544,-0.214767213967891
1.112,0.0197758905532402,-0.211381811869247
1.116,0.00961828288093303,-0.207522184882568
1.12,0.000166200304879344,-0.203259390973618
1.124,-0.00857474700898537,-0.198663200862708
1.128,-0.0165048457601964,-0.193890593999213
1.132,-0.0237316452155856,-0.188977492280209
1.136,-0.0303128369732988,-0.183952015398241
1.14,-0.0362718562545388,-0.178862000225241
1.144,-0.0416347124361434,-0.173750124927484
1.148,-0.0464291641847386,-0.168653919938334
1.152,-0.0506839333271941,-0.163605899647414
1.156,-0.0544279743385474,-0.158633805125256
1.16,-0.0576898144265177,-0.153760945954748
1.164,-0.0604969770239445,-0.149006627295988
1.168,-0.0628754991014994,-0.144386646742304
1.172,-0.0648495501061177,-0.139913844332977
1.176,-0.0664411576201261,-0.135598688341876
1.18,-0.0676700420863232,-0.131449879109144
1.184,-0.0685535601783356,-0.127474953252071
1.188,-0.0691067537101508,-0.123680871101291
1.192,-0.0693424984454316,-0.120074571071421
1.196,-0.0692717447695377,-0.116663475925415
1.2,-0.0689038401082662,-0.113455937481751
1.204,-0.0682469210692857,-0.110461608146288
1.208,-0.0673083618186638,-0.107691729808882
1.212,-0.0660952639952619,-0.105159332864365
1.216,-0.064614972652105,-0.10287934061284
1.22,-0.0628756023267487,-0.100868576740837
1.224,-0.0608865572796877,-0.099145676140393
1.228,-0.058659030277556,-0.0977309017389384
1.232,-0.0562064650682451,-0.0966458724467464
1.236,-0.0535449686892867,-0.0959132094932734
1.24,-0.0506936611787837,-0.0955561104611774
1.244,-0.0476749519120481,-0.0955978620855448
1.248,-0.0445147336651767,-0.0960613043629242
1.252,-0.0411287643243552,-0.0969016047207258
1.256,-0.0375292928977285,-0.0981887540892964
1.26,-0.0338715006299401,-0.100026973441664
1.264,-0.0302096774284566,-0.102432739027146
1.268,-0.0266009924692553,-0.105416581436791
1.272,-0.0231047035842011,-0.10898266642583
1.276,-0.0197813139398196,-0.113128494158033
1.28,-0.0166916944130858,-0.117844722461723
1.284,-0.0138961904609611,-0.123115116814839
1.288,-0.0114537323194163,-0.128916626953525
1.292,-0.00942096687982403,-0.135219587228914
1.296,-0.00785142881429649,-0.14198803515856
1.3,-0.00679476724786056,-0.149180140201134
1.304,-0.00629604278816405,-0.156748732509641
1.308,-0.00639510783917987,-0.164641919522466
1.312,-0.00712608106157175,-0.172803776599117
1.316,-0.00851692455665191,-0.181175096640099
1.32,-0.0105891299285044,-0.189694182741928
1.324,-0.0133575169129468,-0.198297667399347
1.328,-0.0168301457273799,-0.206921341633768
1.332,-0.0210083418581597,-0.215500977672926
1.336,-0.0258868296149145,-0.223973129397986
1.34,-0.0314539685708354,-0.232275895709172
1.344,-0.0376920849889418,-0.240349633217882
1.348,-0.0445778885398596,-0.248137606175519
1.352,-0.0520829631264836,-0.255586563290071
1.356,-0.0601743193741898,-0.262647233005028
1.36,-0.068814995513561,-0.269274730871195
1.364,-0.0779646927497155,-0.275428874756722
1.368,-0.0875804310385017,-0.281074405801958
1.372,-0.0976172112535011,-0.286181115173492
1.376,-0.108031378399075,-0.290679912357697
1.38,-0.118753072175228,-0.294466563768261
1.384,-0.1297123761667,-0.297666234974046
1.388,-0.140866650122588,-0.300275942722822
1.392,-0.152175290357784,-0.30229608066999
1.396,-0.163599961792178,-0.303729953713744
1.4,-0.175104752283014,-0.304583307534899
1.404,-0.186656252136151,-0.304863864902767
1.408,-0.198223563293468,-0.304580879439266
1.412,-0.209778244108013,-0.30374471643668
1.416,-0.221294196840306,-0.302366469050042
1.42,-0.232747505967475,-0.30045761677812
1.424,-0.244116236132937,-0.29802973164641
1.428,-0.25538019902921,-0.295094235934579
1.432,-0.266520698729475,-0.291662213704018
1.436,-0.277520264936693,-0.287744276845128
1.44,-0.288362383359727,-0.283350484824103
1.444,-0.299031231915783,-0.278490315954869
1.448,-0.309511430772655,-0.273172686688584
1.452,-0.31978781337049,-0.267406014338304
1.456,-0.329845224544438,-0.261198317657463
1.46,-0.339668350729214,-0.254557348974946
1.464,-0.34924158602834,-0.247490750992395
1.468,-0.358548936656723,-0.240006231038944
1.472,-0.367573964994299,-0.232111745428942
1.476,-0.376299773234253,-0.223815686642985
1.48,-0.384709025406615,-0.215127066332351
1.484,-0.392784005444174,-0.206055687603988
1.488,-0.400506707929673,-0.196612300669755
1.492,-0.407858957307538,-0.18680873671265
1.496,-0.414822550588966,-0.176658015711252
1.5,-0.421379418056171,-0.166174424961422
1.504,-0.427571946188718,-0.155401848818547
1.508,-0.433325447880754,-0.14431552544689
1.512,-0.438621362512062,-0.132934121928751
1.516,-0.443442200986651,-0.121277748498211
1.52,-0.44777170573635,-0.109367817180991
1.524,-0.451594981393827,-0.0972268793704311
1.528,-0.454898593434731,-0.0848784483219379
1.532,-0.457670633236406,-0.0723468128569003
1.536,-0.459900749102727,-0.0596568486377142
1.54,-0.461580143966189,-0.0468338333075883
1.544,-0.462701541527128,-0.0339032714965178
1.548,-0.463259123637534,-0.0208907352347579
1.552,-0.463248442624146,-0.00782172471136956
1.556,-0.462666313068726,0.00527844643757617
1.56,-0.461510688194377,0.0183847380237338
1.564,-0.459780526519439,0.0314724400352574
1.568,-0.457475654763703,0.0445171979124084
1.572,-0.45459663313706,0.0574950061516187
1.576,-0.451144629114781,0.0703821710864099
1.58,-0.447121305586718,0.08315524480203
1.584,-0.442528728880094,0.0957909331175796
1.588,-0.437369301611996,0.108265981530233
1.592,-0.431645724610823,0.120557043874696
1.596,-0.425360991319407,0.132640539149496
1.6,-0.418518417152805,0.144492502548777
1.604,-0.411121705224045,0.156088437177078
1.608,-0.403175048769586,0.167403173132655
1.612,-0.394683269481717,0.178410740772663
1.616,-0.385651989766769,0.189084264805698
1.62,-0.376087835897481,0.199395885595554
1.624,-0.365998667886975,0.209316713580685
1.628,-0.355308422225048,0.218843073588317
1.632,-0.34407470669338,0.227905038758873
1.636,-0.332340994333594,0.23645612294918
1.64,-0.32012704678648,0.244461034288358
1.644,-0.307455859638658,0.251884458178458
1.648,-0.29435384573421,0.258691431934819
1.652,-0.280850966921158,0.264847759446298
1.656,-0.266980807295315,0.270320458001621
1.66,-0.252780582301913,0.275078228323176
1.664,-0.238291079428189,0.279091937986561
1.668,-0.223556527800206,0.282335107736808
1.672,-0.208624395601272,0.284784389799361
1.676,-0.193545115933136,0.286420027116019
1.68,-0.178371743444855,0.287226282542123
1.684,-0.163159545715521,0.287191827390459
1.688,-0.147965535011522,0.286310079313448
1.692,-0.132847947555325,0.284579480377245
1.696,-0.117865678807876,0.282003707226568
1.7,-0.103077684495663,0.278591806565973
1.704,-0.0885423581385736,0.274358250575943
1.708,-0.074316896627747,0.2693229085349
1.712,-0.0604566659524766,0.263510932609393
1.716,-0.0470145795055008,0.25695255757306
1.72,-0.0340405014109893,0.249682816048768
1.724,-0.0215806870874615,0.241741172709332
1.728,-0.00967727278727555,0.233171082675366
1.732,0.00163217496910813,0.22401948105118
1.736,0.0123150401046333,0.214336212175755
1.74,0.0223439591848659,0.204173408602622
1.744,0.0316970378721217,0.193584831111381
1.748,0.0403579761051041,0.182625182083341
1.752,0.0482823153300273,0.171526336205415
1.756,0.0555340013148422,0.160359133667358
1.76,0.0621744379277119,0.148990600599397
1.764,0.0682115429874619,0.137453535859161
1.768,0.0736547746059475,0.125777699641408
1.772,0.0785145701280891,0.113989785368476
1.776,0.0828017942159411,0.102113482312123
1.78,0.0865272100411609,0.0901696265114166
1.784,0.0897009870723554,0.0781764354479849
1.788,0.092332258127494,0.0661498199665866
1.792,0.0944287373410722,0.054103765046065
1.796,0.0959964093197539,0.0420507693190539
1.8,0.0970392982059951,0.030002331759242
1.804,0.0975593235468948,0.0179694726853763
1.808,0.0975562479268504,0.00596327526299049
1.812,0.0970277191839321,-0.00600456702552567
1.816,0.0959694078646455,-0.01792121182119
1.82,0.0943752382798003,-0.0297721531903464
1.824,0.0922377093238844,-0.041540745458244
1.828,0.0895482989816809,-0.0532077795414208
1.832,0.0862979443686665,-0.0647511250772236
1.836,0.0824775871841003,-0.0761454499104877
1.84,0.0780787726808517,-0.0873620276064364
1.844,0.0730942887406864,-0.0983686412467505
1.848,0.0675188303391501,-0.109129590217757
1.852,0.0613496737364744,-0.119605804272388
1.856,0.054587344067022,-0.129755066845339
1.86,0.0472362597536797,-0.139532347251808
1.864,0.0393053370460293,-0.14889023886039
1.868,0.0308085387199032,-0.157779497933736
1.872,0.0217653513765758,-0.1661496754152
1.876,0.0120880929368537,-0.173915185056341
1.88,0.00160625031419702,-0.18088112844677
1.884,-0.00927090275376126,-0.187062865238303
1.888,-0.0204766073212954,-0.192424061433894
1.892,-0.0319396816181827,-0.196935144589204
1.896,-0.0435853238666105,-0.200573889193139
1.9,-0.0553359934836051,-0.2033258964347
1.904,-0.0671123559899366,-0.205184957910257
1.908,-0.0788342756308233,-0.206153295051575
1.912,-0.0904218386446916,-0.206241668083343
1.916,-0.101796389373429,-0.205469350922851
1.92,-0.112881561006727,-0.203863970735779
1.924,-0.12360428268029,-0.201461213535596
1.928,-0.133895744952534,-0.198304399561013
1.932,-0.143692306287329,-0.194443934574266
1.936,-0.152936324132013,-0.189936645879388
1.94,-0.161576895515288,-0.184845013601206
1.944,-0.169570493519337,-0.179236310093699
1.948,-0.176881487942478,-0.173181661970079
1.952,-0.183482540492216,-0.166755050785222
1.956,-0.189354867013156,-0.160032269604857
1.96,-0.194488361749029,-0.153089853592661
1.964,-0.198881581117222,-0.146004003304827
1.968,-0.202541586898608,-0.138849519612832
1.972,-0.205483651604067,-0.131698768979874
1.976,-0.20773083096647,-0.124620697492602
1.98,-0.209313411148847,-0.117679910900071
1.984,-0.21026824056235,-0.110935837298401
1.988,-0.210637958259079,-0.104441986945031
1.992,-0.210470132816587,-0.0982453227158617
1.996,-0.209816327329329,-0.0923857520929728
2,-0.208731107487653,-0.086895749723906
2.004,-0.207488915693017,-0.0822414467650832
2.008,-0.206043507347994,-0.0779360033317437
2.012,-0.204439115583318,-0.0739671001012358
2.016,-0.202715240406064,-0.0703172677807676
2.02,-0.200906057975834,-0.0669647545921327
2.024,-0.199039964219706,-0.0638844605797186
2.028,-0.197139260049715,-0.061048919305229
2.032,-0.195219982947949,-0.0584293067181845
2.036,-0.193291886606103,-0.0559964566318844
2.04,-0.191358567728104,-0.0537218621951196
2.044,-0.189417736285619,-0.0515786431041668
2.048,-0.187461622678574,-0.0495424590405483
2.052,-0.185477512854963,-0.047592350861981
2.056,-0.183448399944003,-0.0457114925566813
2.06,-0.181353738666777,-0.0438878385708703
2.064,-0.179170287058636,-0.0421146532130596
2.068,-0.176873018160161,-0.040390911100048
2.072,-0.174436083090937,-0.0387215599048689
2.076,-0.171833805886325,-0.0371176393882951
2.08,-0.169041689790781,-0.0355962534825532
2.084,-0.166037414450043,-0.03418039463204
2.088,-0.162801803496215,-0.0328986229472134
2.092,-0.159319742472279,-0.0317846048624677
2.096,-0.155581027924179,-0.0308765192136782
2.1,-0.151581129500319,-0.0302163408243862
2.104,-0.147321848667883,-0.0298490142645956
2.108,-0.142811859144333,-0.0298215325341729
2.112,-0.138067116539858,-0.0301819373142131
2.116,-0.133111126686776,-0.0309782590667855
2.12,-0.127975065094665,-0.0322574165261331
2.124,-0.12269774209793,-0.0340640960731779
2.128,-0.116933564138687,-0.0367701289972623
2.132,-0.111104610115782,-0.0403058761215863
2.136,-0.105438459574984,-0.0445859832221094
2.14,-0.100020527555208,-0.0496069376636316
2.144,-0.094936495675011,-0.0553547713299767
2.148,-0.0902709645988306,-0.0618050368700459
2.152,-0.0861061117387957,-0.0689229610166885
2.156,-0.0825203774365777,-0.0766637726179578
2.16,-0.0795872023709865,-0.0849732003269069
2.164,-0.0773738380393195,-0.0937881316560981
2.168,-0.0759402508525223,-0.103037422474392
2.172,-0.0753381388356296,-0.112642843424586
2.176,-0.0756100777654867,-0.122520147232402
2.18,-0.0767888117355972,-0.132580239175919
2.184,-0.0788967000379164,-0.142730430653264
2.188,-0.0819453302631777,-0.152875754937656
2.192,-0.085935304002633,-0.162920322808976
2.196,-0.0908561990784476,-0.172768695207852
2.2,-0.096686708896628,-0.182327249776609
2.204,-0.103394956672469,-0.191505518273586
2.208,-0.110938979191296,-0.200217472346805
2.212,-0.119267371952471,-0.208382736064578
2.216,-0.128320084850774,-0.215927704824455
2.22,-0.13802935487761,-0.222786551963584
2.224,-0.148320760144722,-0.228902106036948
2.228,-0.159114377423314,-0.234226584331227
2.232,-0.170326023655127,-0.238722170165616
2.236,-0.181868560477164,-0.242361424479257
2.24,-0.193653239734332,-0.245127524761896
2.244,-0.205591067238971,-0.247014327565538
2.248,-0.217594161714237,-0.248026253386208
2.252,-0.229306230157493,-0.248081559813388
2.256,-0.240614431476179,-0.247312837359702
2.26,-0.25172579945912,-0.245891516184129
2.264,-0.262598301962732,-0.243861881886942
2.268,-0.273197090836977,-0.241270901701915
2.272,-0.283494629522384,-0.238167201334118
2.276,-0.293470683216902,-0.234600045769546
2.28,-0.303112174327141,-0.230618341885772
2.284,-0.312412908199315,-0.226269680170442
2.288,-0.321373176009377,-0.221599431945893
2.292,-0.329999244117799,-0.21664991742539
2.296,-0.338302740674546,-0.211459658470595
2.3,-0.346299952317847,-0.206062728545404
2.304,-0.354011044880671,-0.200488210150218
2.308,-0.3614592235391,-0.194759768582727
2.312,-0.368669848582148,-0.188895348429984
2.316,-0.375669523740582,-0.182906996967901
2.32,-0.382485174352512,-0.176800816797099
2.324,-0.389143132735655,-0.170577047181718
2.328,-0.395668247932001,-0.164230271811426
2.332,-0.402083036462944,-0.157749748177222
2.336,-0.408406889991487,-0.151119851632241
2.34,-0.414655354655532,-0.144320625402959
2.344,-0.420839495610101,-0.137328425632923
2.348,-0.426965358776045,-0.130116649159482
2.352,-0.433033539873734,-0.122656530049359
2.356,-0.439038869227306,-0.114917989798212
2.36,-0.444970218372238,-0.106870525092439
2.364,-0.450810432619978,-0.0984841163418862
2.368,-0.456536391334778,-0.0897301398154484
2.372,-0.462119195430168,-0.0805822660652077
2.376,-0.467541543806077,-0.070965331371312
2.38,-0.472763705894766,-0.0607471603816481
2.384,-0.477668325596637,-0.0500719329264434
2.388,-0.482207017199671,-0.0389415420927162
2.392,-0.486330127140941,-0.0273638979674138
2.396,-0.489987537521313,-0.0153531251426552
2.4,-0.493129491428354,-0.00292965105731153
2.404,-0.495707425288623,0.00987981673412596
2.408,-0.497674793382038,0.0230424242572183
2.412,-0.498987869783504,0.0365194139420763
2.416,-0.499606513377674,0.0502664723634526
2.42,-0.499494882281345,0.0642341773558148
2.424,-0.498622084836236,0.0783685366886996
2.428,-0.496962755596034,0.092611609189996
2.432,-0.494497545820217,0.106902197582589
2.436,-0.491213519819353,0.121176601028966
2.44,-0.487046479476936,0.135376881351149
2.444,-0.482019067448121,0.14941411341407
2.448,-0.476177490822495,0.163212995801743
2.452,-0.469540927413222,0.176708785247471
2.456,-0.46213518527789,0.189839177515112
2.46,-0.453992331097282,0.202545090243387
2.464,-0.445150220435512,0.214771387790264
2.468,-0.435651938741565,0.226467535650963
2.472,-0.425545163550927,0.237588173016709
2.476,-0.414881459780697,0.248093594142338
2.48,-0.40371552117134,0.25795013008079
2.484,-0.392104371894222,0.267130425081383
2.488,-0.380106543069659,0.275613603174435
2.492,-0.367781239330117,0.283385322864626
2.496,-0.35518751074626,0.29043771996964
2.5,-0.342383445257584,0.296769240497459
2.504,-0.329534915199676,0.302142540154951
2.508,-0.316647212563886,0.306842924952883
2.512,-0.303763820966671,0.310896970933773
2.516,-0.290922715557467,0.314334531192211
2.52,-0.278156099426136,0.317187850499891
2.524,-0.265490271015429,0.319490660187338
2.528,-0.252945623837362,0.321277271928802
2.532,-0.240536776463986,0.322581689068248
2.536,-0.228272828925659,0.323436753640057
2.54,-0.216157738626222,0.323873346491711
2.544,-0.204190806828435,0.32391965681746
2.548,-0.19236726440236,0.323600535896297
2.552,-0.180678943773816,0.322936948304579
2.556,-0.169115022082615,0.321945531589776
2.56,-0.157662819279712,0.320638273530259
2.564,-0.146308633755321,0.31902231355824
2.568,-0.135038597303144,0.317099872350115
2.572,-0.123839530850028,0.314868311203921
2.576,-0.112699782307721,0.312320320057361
2.58,-0.101610028247641,0.309444230306001
2.584,-0.0905640217681978,0.306224446394883
2.588,-0.0795592699487356,0.302641987158347
2.592,-0.0685976257335028,0.298675126221019
2.596,-0.0576857805693488,0.29430011832026
2.6,-0.0468356463488343,0.28949199672166
2.604,-0.036064617056715,0.284225425445744
2.608,-0.0253957032742302,0.278475588774568
2.612,-0.0148575347778184,0.272219099668988
2.616,-0.00448422957241944,0.265434908246523
2.62,0.00568487013313107,0.258105191375131
2.624,0.0156055913994299,0.25021620466519
2.628,0.0255593416209266,0.241529846156235
2.632,0.0351958693903797,0.232101515287858
2.636,0.0443214350530719,0.222014522069549
2.64,0.0528629951240569,0.211300297773687
2.644,0.0607501710047366,0.199999813516127
2.648,0.0679165284624092,0.18816323217532
2.652,0.0743007996366276,0.17584938986378
2.656,0.0798480251088986,0.16312511672907
2.66,0.0845105952503733,0.150064409959726
2.664,0.0882491721059694,0.136747474614922
2.668,0.0910334755115288,0.123259649901063
2.672,0.0928429197161958,0.109690240809233
2.676,0.0936670898545243,0.0961312764678915
2.68,0.0935060504304309,0.0826762175540333
2.684,0.0923704815389335,0.0694186360270976
2.688,0.0902816411531297,0.0564508905077064
2.692,0.0872711557247236,0.0438628205078897
2.696,0.0833806437539837,0.0317404820495395
2.7,0.078661180448589,0.0201649461558807
2.704,0.0731726139941862,0.00921118029984771
2.708,0.0669827466446252,-0.0010529689195066
2.712,0.0601663960325697,-0.0105676756578656
2.716,0.0528043538964362,-0.0192819033527985
2.72,0.0449822610559489,-0.0271540306251122
2.724,0.0367894185892377,-0.0341523258484864
2.728,0.0283175559365571,-0.0402552646033372
2.732,0.0196595770686936,-0.0454516869468675
2.736,0.0109083058572888,-0.0497407944281477
2.74,0.00215525139837885,-0.0531319893812667
2.744,-0.00651058666153549,-0.0556445618587305
2.748,-0.0150038538540936,-0.0573072319711354
2.752,-0.0230537599743369,-0.0580241326051378
2.756,-0.0305413627234052,-0.0579197026585238
2.76,-0.0375912764328411,-0.0572140198527476
2.764,-0.0441643511035604,-0.0559721404293942
2.768,-0.0502298610896306,-0.0542607595121701
2.772,-0.055765393833744,-0.0521471504750078
2.776,-0.0607566076707087,-0.0496981523722687
2.78,-0.0651968688220158,-0.0469792211249266
2.784,-0.0690867792579081,-0.0440535584028367
2.788,-0.0724336088837075,-0.0409813302583585
2.792,-0.0752506464694786,-0.0378189854259085
2.796,-0.0775564848901576,-0.0346186811118063
2.8,-0.0793742567701419,-0.0314278216477148
2.804,-0.0807308368826248,-0.0282887135013434
2.808,-0.0816560277223954,-0.0252383372456378
2.812,-0.0821817443273792,-0.0223082356547629
