"Freq [GHz]","re(S(Tx_p1,Tx_p1)) []","im(S(Tx_p1,Tx_p1)) []"
1,-0.1185787349,0.05719940573
1.01,-0.1147599808,0.06409491624
1.02,-0.1105312303,0.07074419562
1.03,-0.1059083337,0.07712197056
1.04,-0.1009087535,0.08320402427
1.05,-0.09555149032,0.08896730071
1.06,-0.08985700212,0.0943900035
1.07,-0.08384711687,0.09945168898
1.08,-0.0775449398,0.1041333532
1.09,-0.07097475497,0.1084175122
1.1,-0.06416192191,0.1122882756
1.11,-0.05713276781,0.1157314131
1.12,-0.04991447569,0.1187344129
1.13,-0.04253496908,0.1212865336
1.14,-0.03502279379,0.1233788471
1.15,-0.02740699725,0.1250042741
1.16,-0.01971700591,0.1261576113
1.17,-0.01198250145,0.1268355505
1.18,-0.004233296126,0.1270366893
1.19,0.00350079206,0.1267615331
1.2,0.01119006386,0.1260124899
1.21,0.01880506238,0.1247938557
1.22,0.02631669522,0.1231117925
1.23,0.03369635473,0.1209742979
1.24,0.04091603566,0.1183911678
1.25,0.04794844993,0.1153739498
1.26,0.05476713783,0.1119358912
1.27,0.06134657529,0.1080918782
1.28,0.06766227677,0.1038583694
1.29,0.07369089321,0.09925332248
1.3,0.07941030483,0.09429611439
1.31,0.08479970825,0.08900745636
1.32,0.0898396976,0.08340930322
1.33,0.09451233936,0.07752475786
1.34,0.09880124054,0.07137797125
1.35,0.10269161,0.0649940384
1.36,0.1061703128,0.05839889075
1.37,0.109225917,0.05161918559
1.38,0.1118487329,0.04468219282
1.39,0.1140308453,0.03761567972
1.4,0.1157661375,0.03044779419
1.41,0.1170503074,0.02320694694
1.42,0.1178808765,0.01592169317
1.43,0.1182571901,0.008620614374
1.44,0.1181804113,0.001332200514
1.45,0.1176535054,-0.005915266616
1.46,0.1166812183,-0.01309382855
1.47,0.1152700468,-0.02017596327
1.48,0.113428202,-0.02713469578
1.49,0.111165565,-0.03394370574
1.5,0.1084936366,-0.04057743161
1.51,0.1054254801,-0.04701117105
1.52,0.1019756579,-0.05322117688
1.53,0.09816016219,-0.05918474856
1.54,0.09399633989,-0.06488031853
1.55,0.0895028127,-0.07028753323
1.56,0.0846993921,-0.07538732847
1.57,0.07960698994,-0.08016199878
1.58,0.07424752504,-0.0845952606
1.59,0.06864382625,-0.08867230899
1.6,0.06281953228,-0.09237986774
1.61,0.05679898898,-0.0957062326
1.62,0.05060714428,-0.09864130762
1.63,0.04426944149,-0.1011766344
1.64,0.03781171129,-0.1033054144
1.65,0.03126006293,-0.1050225236
1.66,0.02464077514,-0.1063245208
1.67,0.01798018718,-0.1072096479
1.68,0.01130459054,-0.1076778236
1.69,0.004640121732,-0.1077306302
1.7,-0.001987343407,-0.1073712931
1.71,-0.008552293358,-0.106604654
1.72,-0.01502968219,-0.1054371371
1.73,-0.02139502797,-0.1038767092
1.74,-0.02762450797,-0.1019328339
1.75,-0.0336950502,-0.09961641933
1.76,-0.03958442101,-0.09693976073
1.77,-0.04527130837,-0.09391647771
1.78,-0.05073540046,-0.09056144632
1.79,-0.05595745939,-0.08689072664
1.8,-0.06091938967,-0.08292148604
1.81,-0.06560430126,-0.07867191851
1.82,-0.0699965669,-0.07416116053
1.83,-0.07408187366,-0.06940920371
1.84,-0.07784726837,-0.06443680482
1.85,-0.08128119699,-0.05926539343
1.86,-0.08437353761,-0.05391697774
1.87,-0.08711562718,-0.04841404884
1.88,-0.08950028184,-0.04277948409
1.89,-0.09152181078,-0.03703644977
1.9,-0.0931760238,-0.03120830362
1.91,-0.09446023234,-0.02531849758
1.92,-0.09537324438,-0.01939048127
1.93,-0.09591535301,-0.01344760642
1.94,-0.09608831897,-0.00751303287
1.95,-0.09589534717,-0.001609636388
1.96,-0.09534105748,0.004240081277
1.97,-0.09443144994,0.01001407974
1.98,-0.09317386455,0.01569086439
1.99,-0.09157693594,0.02124956751
2,-0.08965054316,0.02667002586
2.01,-0.08740575486,0.03193285432
2.02,-0.08485477012,0.03701951544
2.03,-0.08201085534,0.04191238456
2.04,-0.07888827736,0.04659481035
2.05,-0.0755022333,0.05105117052
2.06,-0.07186877732,0.05526692243
2.07,-0.06800474477,0.05922864872
2.08,-0.06392767403,0.06292409748
2.09,-0.05965572644,0.06634221712
2.1,-0.05520760461,0.06947318575
2.11,-0.05060246963,0.07230843501
2.12,-0.04585985741,0.07484066837
2.13,-0.04099959457,0.07706387384
2.14,-0.03604171435,0.07897333114
2.15,-0.03100637264,0.08056561342
2.16,-0.02591376487,0.08183858349
2.17,-0.0207840437,0.08279138475
2.18,-0.01563723823,0.08342442688
2.19,-0.01049317471,0.08373936647
2.2,-0.005371399377,0.0837390827
2.21,-0.0002911035112,0.08342764827
2.22,0.004728948905,0.0828102958
2.23,0.009670490674,0.08189337981
2.24,0.01451581775,0.08068433471
2.25,0.01924785226,0.07919162881
2.26,0.02385020194,0.07742471476
2.27,0.0283072158,0.07539397663
2.28,0.03260403582,0.07311067397
2.29,0.03672664456,0.07058688306
2.3,0.04066190845,0.06783543568
2.31,0.04439761672,0.06486985574
2.32,0.04792251592,0.06170429401
2.33,0.05122633976,0.05835346136
2.34,0.05429983445,0.05483256073
2.35,0.05713477934,0.05115721815
2.36,0.05972400293,0.04734341324
2.37,0.06206139421,0.04340740935
2.38,0.06414190942,0.03936568375
2.39,0.06596157425,0.03523485811
2.4,0.06751748147,0.03103162964
2.41,0.06880778429,0.02677270307
2.42,0.06983168528,0.0224747239
2.43,0.07058942124,0.018154213
2.44,0.07108224397,0.013827503
2.45,0.07131239718,0.009510676592
2.46,0.07128308972,0.005219507021
2.47,0.0709984653,0.0009694010094
2.48,0.07046356885,-0.003224655747
2.49,0.06968430982,-0.007348150272
2.5,0.0686674226,-0.01138709103
2.51,0.06742042423,-0.01532805355
2.52,0.06595156975,-0.01915822276
2.53,0.06426980535,-0.02286543196
2.54,0.06238471956,-0.02643819833
2.55,0.06030649285,-0.02986575483
2.56,0.05804584568,-0.03313807851
2.57,0.05561398552,-0.03624591516
2.58,0.05302255288,-0.03918080015
2.59,0.05028356671,-0.04193507566
2.6,0.04740936939,-0.04450190415
2.61,0.04441257162,-0.0468752781
2.62,0.04130599731,-0.04905002614
2.63,0.0381026289,-0.05102181554
2.64,0.03481555324,-0.0527871512
2.65,0.03145790817,-0.05434337117
2.66,0.02804283023,-0.05568863877
2.67,0.02458340351,-0.0568219316
2.68,0.02109260999,-0.05774302727
2.69,0.01758328137,-0.05845248628
2.7,0.01406805279,-0.05895163201
2.71,0.0105593184,-0.05924252806
2.72,0.007069189121,-0.05932795303
2.73,0.003609452485,-0.05921137304
2.74,0.0001915349552,-0.05889691204
2.75,-0.003173533375,-0.05838932017
2.76,-0.006475151511,-0.05769394034
2.77,-0.009703177666,-0.05681667325
2.78,-0.01284795667,-0.05576394099
2.79,-0.01590034465,-0.05454264948
2.8,-0.0188517309,-0.05316014989
2.81,-0.02169405699,-0.05162419937
2.82,-0.02441983302,-0.04994292105
2.83,-0.02702215113,-0.04812476379
2.84,-0.02949469614,-0.04617846161
2.85,-0.0318317535,-0.04411299323
2.86,-0.03402821454,-0.04193754167
2.87,-0.03607957897,-0.03966145428
2.88,-0.03798195495,-0.03729420325
2.89,-0.03973205647,-0.03484534684
2.9,-0.04132719849,-0.03232449143
2.91,-0.04276528961,-0.02974125454
2.92,-0.04404482261,-0.02710522901
2.93,-0.04516486289,-0.02442594846
2.94,-0.04612503488,-0.02171285401
2.95,-0.04692550662,-0.01897526263
2.96,-0.0475669727,-0.01622233697
2.97,-0.04805063546,-0.01346305686
2.98,-0.0483781849,-0.01070619259
2.99,-0.04855177726,-0.007960279989
3,-0.04857401236,-0.005233597313
3.01,-0.0484479101,-0.002534144077
3.02,-0.04817688595,0.0001303782004
3.03,-0.04776472589,0.002752583307
3.04,-0.04721556064,0.005325415691
3.05,-0.0465338396,0.007842163865
3.06,-0.04572430444,0.01029647186
3.07,-0.04479196264,0.01268234879
3.08,-0.04374206092,0.01499417647
3.09,-0.04258005889,0.01722671527
3.1,-0.04131160295,0.01937510811
3.11,-0.03994250049,0.02143488275
3.12,-0.03847869468,0.02340195241
3.13,-0.03692623971,0.02527261476
3.14,-0.03529127692,0.0270435494
3.15,-0.03358001145,0.02871181395
3.16,-0.03179868998,0.03027483872
3.17,-0.02995357928,0.03173042016
3.18,-0.02805094574,0.03307671317
3.19,-0.02609703605,0.0343122223
3.2,-0.02409805887,0.03543579205
3.21,-0.02206016774,0.03644659626
3.22,-0.01998944508,0.03734412682
3.23,-0.01789188745,0.03812818167
3.24,-0.01577339193,0.0387988523
3.25,-0.01363974384,0.0393565108
3.26,-0.01149660552,0.03980179659
3.27,-0.009349506438,0.04013560285
3.28,-0.007203834384,0.04035906293
3.29,-0.005064827886,0.0404735366
3.3,-0.002937569708,0.04048059638
3.31,-0.0008269814476,0.040382014
3.32,0.001262180829,0.04017974708
3.33,0.003325329959,0.03987592605
3.34,0.005358050122,0.03947284142
3.35,0.007356098397,0.03897293149
3.36,0.009315405519,0.03837877053
3.37,0.01123207587,0.03769305738
3.38,0.01310238679,0.03691860476
3.39,0.01492278734,0.03605832902
3.4,0.01668989641,0.03511524063
3.41,0.0184005005,0.03409243524
3.42,0.02005155101,0.03299308547
3.43,0.0216401613,0.03182043326
3.44,0.02316360345,0.03057778305
3.45,0.02461930487,0.02926849548
3.46,0.02600484484,0.02789598182
3.47,0.02731795099,0.02646369906
3.48,0.02855649584,0.02497514556
3.49,0.02971849342,0.02343385734
3.5,0.03080209607,0.02184340486
3.51,0.03180559142,0.02020739046
3.52,0.03272739969,0.01852944608
3.53,0.03356607121,0.01681323157
3.54,0.03432028441,0.01506243329
3.55,0.03498884405,0.01328076311
3.56,0.03557067999,0.01147195757
3.57,0.03606484631,0.009639777369
3.58,0.03647052094,0.007788006904
3.59,0.0367870057,0.00592045398
3.6,0.03701372688,0.004040949496
3.61,0.03715023621,0.002153347113
3.62,0.03719621239,0.0002615228227
3.63,0.03715146298,-0.001630625632
3.64,0.03701592676,-0.00351917956
3.65,0.03678967656,-0.005400200399
3.66,0.03647292236,-0.007269731109
3.67,0.03606601482,-0.00912379796
3.68,0.03556944909,-0.01095841273
3.69,0.03498386892,-0.0127695754
3.7,0.0343100709,-0.01455327733
3.71,0.03354900894,-0.01630550501
3.72,0.03270179887,-0.0180222444
3.73,0.031769723,-0.01969948584
3.74,0.03075423476,-0.02133322962
3.75,0.0296569632,-0.02291949218
3.76,0.02847971741,-0.02445431299
3.77,0.02722449064,-0.02593376204
3.78,0.02589346422,-0.02735394801
3.79,0.02448901113,-0.02871102711
3.8,0.02301369907,-0.03000121252
3.81,0.02147029318,-0.03122078445
3.82,0.01986175808,-0.03236610076
3.83,0.01819125941,-0.0334336082
3.84,0.01646216459,-0.03441985409
3.85,0.01467804296,-0.0353214985
3.86,0.01284266502,-0.03613532683
3.87,0.01096000088,-0.03685826281
3.88,0.009034217831,-0.03748738171
3.89,0.007069676957,-0.03801992386
3.9,0.005070928761,-0.03845330831
3.91,0.003042707808,-0.03878514659
3.92,0.0009899263133,-0.0390132565
3.93,-0.001082333321,-0.03913567581
3.94,-0.00316882705,-0.03915067582
3.95,-0.005264158815,-0.03905677475
3.96,-0.007362791259,-0.03885275071
3.97,-0.009459057534,-0.03853765439
3.98,-0.01154717417,-0.03811082116
3.99,-0.01362125503,-0.03757188261
4,-0.01567532626,-0.0369207775
4.01,-0.01770334225,-0.03615776184
4.02,-0.01969920261,-0.03528341824
4.03,-0.02165676997,-0.03429866426
4.04,-0.02356988874,-0.03320475979
4.05,-0.02543240459,-0.03200331337
4.06,-0.02723818475,-0.03069628732
4.07,-0.02898113894,-0.02928600169
4.08,-0.03065524087,-0.02777513684
4.09,-0.03225455031,-0.0261667348
4.1,-0.03377323555,-0.02446419912
4.11,-0.03520559615,-0.02267129333
4.12,-0.03654608602,-0.02079213788
4.13,-0.03778933654,-0.01883120557
4.14,-0.03893017974,-0.0167933154
4.15,-0.03996367143,-0.01468362491
4.16,-0.04088511407,-0.01250762085
4.17,-0.04169007943,-0.0102711083
4.18,-0.04237443075,-0.007980198212
4.19,-0.0429343444,-0.005641293346
4.2,-0.04336633094,-0.003261072643
4.21,-0.04366725538,-0.0008464740905
4.22,-0.04383435655,0.001595323933
4.23,-0.04386526554,0.004056922753
4.24,-0.04375802307,0.006530724907
4.25,-0.04351109557,0.009008956988
4.26,-0.04312339007,0.01148369376
4.27,-0.04259426764,0.01394688348
4.28,-0.04192355533,0.01639037434
4.29,-0.04111155663,0.01880594189
4.3,-0.04015906011,0.02118531748
4.31,-0.03906734651,0.02352021744
4.32,-0.03783819387,0.025802373
4.33,-0.03647388085,0.02802356086
4.34,-0.0349771882,0.03017563416
4.35,-0.03335139812,0.03225055388
4.36,-0.03160029173,0.03424042044
4.37,-0.0297281444,0.03613750538
4.38,-0.02773971914,0.03793428301
4.39,-0.0256402578,0.03962346195
4.4,-0.02343547023,0.04119801622
4.41,-0.02113152142,0.04265121601
4.42,-0.01873501651,0.04397665779
4.43,-0.01625298378,0.04516829371
4.44,-0.01369285573,0.04622046007
4.45,-0.01106244807,0.0471279049
4.46,-0.008369936946,0.04788581425
4.47,-0.00562383422,0.04848983732
4.48,-0.002832961084,0.04893611014
4.49,-6.419928313E-06,0.0492212777
4.5,0.00284643535,0.04934251445
4.51,0.005716030534,0.04929754308
4.52,0.008592603658,0.04908465134
4.53,0.01146623885,0.04870270699
4.54,0.0143269013,0.04815117058
4.55,0.0171644733,0.0474301062
4.56,0.01996879109,0.04654018989
4.57,0.0227296825,0.04548271581
4.58,0.02543700521,0.04425960006
4.59,0.02808068535,0.04287338206
4.6,0.03065075651,0.04132722351
4.61,0.03313739884,0.03962490485
4.62,0.03553097807,0.03777081923
4.63,0.03782208443,0.03576996399
4.64,0.04000157116,0.03362792959
4.65,0.04206059251,0.03135088608
4.66,0.04399064104,0.02894556708
4.67,0.04578358415,0.02641925134
4.68,0.0474316995,0.02377974188
4.69,0.04892770937,0.02103534281
4.7,0.05026481358,0.01819483386
4.71,0.05143672105,0.01526744273
4.72,0.05243767967,0.01226281535
4.73,0.05326250443,0.009190984045
4.74,0.05390660365,0.006062333892
4.75,0.05436600318,0.002887567233
4.76,0.05463736844,-0.0003223334712
4.77,0.05471802421,-0.003556144315
4.78,0.05460597201,-0.00680244002
4.79,0.05429990507,-0.01004963525
4.8,0.05379922069,-0.01328602701
4.81,0.05310402996,-0.01649983799
4.82,0.05221516484,-0.01967926065
4.83,0.0511341824,-0.02281250191
4.84,0.04986336627,-0.02588782827
4.85,0.04840572531,-0.02889361111
4.86,0.04676498931,-0.03181837212
4.87,0.04494560191,-0.03465082855
4.88,0.04295271056,-0.03737993815
4.89,0.04079215368,-0.03999494367
4.9,0.03847044495,-0.04248541655
4.91,0.03599475476,-0.04484129988
4.92,0.03337288899,-0.04705295025
4.93,0.030613265,-0.04911117834
4.94,0.02772488508,-0.05100728818
4.95,0.02471730728,-0.05273311478
4.96,0.02160061386,-0.05428106003
4.97,0.01838537736,-0.05564412671
4.98,0.01508262444,-0.05681595048
4.99,0.01170379769,-0.05779082958
5,0.008260715365,-0.05856375229
5.01,0.004765529411,-0.05913042183
5.02,0.001230681755,-0.05948727879
5.03,-0.002331140872,-0.05963152071
5.04,-0.005907053459,-0.05956111901
5.05,-0.009484020389,-0.05927483288
5.06,-0.01304890409,-0.05877222036
5.07,-0.0165885145,-0.05805364623
5.08,-0.02008965905,-0.0571202869
5.09,-0.02353919315,-0.05597413217
5.1,-0.02692407084,-0.05461798374
5.11,-0.03023139537,-0.05305545063
5.12,-0.0334484697,-0.05129094135
5.13,-0.03656284652,-0.0493296529
5.14,-0.03956237767,-0.04717755664
5.15,-0.04243526277,-0.044841381
5.16,-0.04517009684,-0.04232859111
5.17,-0.04775591672,-0.03964736541
5.18,-0.05018224608,-0.03680656935
5.19,-0.05243913882,-0.03381572615
5.2,-0.05451722079,-0.0306849849
5.21,-0.05640772945,-0.02742508586
5.22,-0.05810255152,-0.02404732339
5.23,-0.05959425824,-0.02056350631
5.24,-0.06087613829,-0.01698591611
5.25,-0.06194222808,-0.01332726298
5.26,-0.06278733933,-0.009600639935
5.27,-0.06340708383,-0.005819475126
5.28,-0.06379789519,-0.001997482542
5.29,-0.06395704756,0.001851388685
5.3,-0.06388267122,0.00571300622
5.31,-0.06357376486,0.009573107482
5.32,-0.06303020466,0.01341735344
5.33,-0.06225274987,0.017231383
5.34,-0.06124304513,0.02100086785
5.35,-0.06000361929,0.02471156745
5.36,-0.05853788079,0.02834938398
5.37,-0.05685010957,0.03190041712
5.38,-0.05494544563,0.03535101834
5.39,-0.05282987414,0.03868784443
5.4,-0.05051020712,0.0418979103
5.41,-0.04799406191,0.04496864054
5.42,-0.04528983636,0.04788791972
5.43,-0.04240668087,0.05064414118
5.44,-0.03935446729,0.05322625411
5.45,-0.03614375498,0.05562380866
5.46,-0.03278575392,0.05782699902
5.47,-0.02929228517,0.05982670419
5.48,-0.02567573876,0.06161452632
5.49,-0.0219490291,0.06318282637
5.5,-0.01812554826,0.06452475713
5.51,-0.01421911699,0.06563429321
5.52,-0.01024393406,0.06650625803
5.53,-0.006214523706,0.06713634771
5.54,-0.002145681657,0.06752115161
5.55,0.001947580133,0.06765816953
5.56,0.006050089891,0.06754582548
5.57,0.01014657328,0.06718347796
5.58,0.0142217113,0.06657142658
5.59,0.01826019866,0.06571091518
5.6,0.02224680231,0.0646041312
5.61,0.02616642,0.06325420152
5.62,0.0300041385,0.06166518452
5.63,0.03374529146,0.05984205857
5.64,0.03737551643,0.05779070696
5.65,0.04088081107,0.05551789914
5.66,0.04424758809,0.0530312686
5.67,0.04746272889,0.05033928721
5.68,0.05051363554,0.04745123629
5.69,0.05338828104,0.04437717437
5.7,0.05607525747,0.0411279019
5.71,0.05856382204,0.03771492287
5.72,0.06084394067,0.03415040365
5.73,0.06290632905,0.03044712905
5.74,0.06474249092,0.02661845584
5.75,0.0663447535,0.02267826393
5.76,0.06770629983,0.01864090527
5.77,0.06882119796,0.01452115086
5.78,0.06968442678,0.0103341358
5.79,0.07029189852,0.006095302899
5.8,0.0706404776,0.001820344754
5.81,0.07072799601,-0.002474855228
5.82,0.07055326491,-0.006774282809
5.83,0.07011608256,-0.01106185358
5.84,0.06941723843,-0.01532147413
5.85,0.0684585135,-0.01953710337
5.86,0.0672426768,-0.02369281402
5.87,0.06577347808,-0.02777285363
5.88,0.06405563664,-0.03176170536
5.89,0.06209482651,-0.03564414787
5.9,0.05989765779,-0.03940531436
5.91,0.05747165439,-0.04303075036
5.92,0.05482522814,-0.04650647018
5.93,0.05196764945,-0.04981901167
5.94,0.04890901457,-0.05295548916
5.95,0.04566020952,-0.05590364434
5.96,0.04223287092,-0.05865189483
5.97,0.03863934384,-0.06118938034
5.98,0.03489263676,-0.06350600619
5.99,0.03100637385,-0.06559248396
6,0.02699474479,-0.06744036918
