"Freq [GHz]","re(S(Tx_p1,Tx_p1)) []","im(S(Tx_p1,Tx_p1)) []"
1,-0.1684055505,0.08106268042
1.01,-0.1630580416,0.09092162132
1.02,-0.1571202512,0.1004400277
1.03,-0.1506137922,0.1095812822
1.04,-0.1435626256,0.1183101865
1.05,-0.1359929627,0.1265931134
1.06,-0.1279331568,0.1343981531
1.07,-0.119413586,0.1416952505
1.08,-0.1104665274,0.1484563354
1.09,-0.1011260222,0.1546554432
1.1,-0.09142773471,0.1602688267
1.11,-0.08140880266,0.1652750581
1.12,-0.07110768268,0.1696551205
1.13,-0.06056398943,0.1733924894
1.14,-0.04981833003,0.1764732029
1.15,-0.03891213441,0.1788859207
1.16,-0.02788748225,0.1806219723
1.17,-0.01678692729,0.1816753928
1.18,-0.005653319825,0.1820429475
1.19,0.005470371845,0.1817241448
1.2,0.01654124028,0.180721237
1.21,0.02751661721,0.1790392091
1.22,0.03835425062,0.176685757
1.23,0.04901247967,0.1736712525
1.24,0.05945040696,0.1700086983
1.25,0.06962806713,0.1657136712
1.26,0.07950659115,0.1608042543
1.27,0.0890483658,0.155300959
1.28,0.09821718727,0.1492266366
1.29,0.1069784086,0.1426063801
1.3,0.1152990802,0.1354674169
1.31,0.1231480826,0.1278389923
1.32,0.1304962516,0.1197522446
1.33,0.1373164941,0.1112400735
1.34,0.1435838958,0.1023369999
1.35,0.1492758184,0.09307902008
1.36,0.1543719878,0.08350345397
1.37,0.1588545713,0.07364878784
1.38,0.1627082446,0.06355451286
1.39,0.1659202483,0.05326095969
1.4,0.1684804327,0.04280913013
1.41,0.1703812919,0.03224052633
1.42,0.1716179866,0.02159697856
1.43,0.1721883554,0.01092047209
1.44,0.1720929149,0.0002529740062
1.45,0.1713348487,-0.01036373931
1.46,0.1699199844,-0.02088825323
1.47,0.1678567607,-0.03127968386
1.48,0.1651561824,-0.04149784408
1.49,0.1618317662,-0.05150340609
1.5,0.1578994744,-0.06125805961
1.51,0.1533776403,-0.07072466526
1.52,0.1482868826,-0.07986740233
1.53,0.1426500111,-0.08865191039
1.54,0.136491924,-0.09704542419
1.55,0.1298394959,-0.1050169012
1.56,0.1227214587,-0.1125371414
1.57,0.1151682752,-0.1195788987
1.58,0.1072120054,-0.1261169839
1.59,0.09888616771,-0.1321283579
1.6,0.09022559385,-0.1375922165
1.61,0.08126627927,-0.142490064
1.62,0.07204522943,-0.146805778
1.63,0.06260030262,-0.1505256631
1.64,0.05297004995,-0.1536384949
1.65,0.04319355332,-0.156135552
1.66,0.03331026198,-0.1580106394
1.67,0.02335982845,-0.1592600989
1.68,0.01338194455,-0.1598828108
1.69,0.003416178033,-0.1598801834
1.7,-0.006498189159,-0.159256133
1.71,-0.01632232064,-0.1580170528
1.72,-0.02601798247,-0.1561717721
1.73,-0.03554769658,-0.153731505
1.74,-0.04487489013,-0.15070979
1.75,-0.05396404014,-0.1471224196
1.76,-0.0627808128,-0.1429873616
1.77,-0.071292197,-0.1383246709
1.78,-0.07946663133,-0.1331563937
1.79,-0.0872741243,-0.1275064639
1.8,-0.09468636713,-0.1214005921
1.81,-0.1016768387,-0.1148661481
1.82,-0.1082209026,-0.1079320366
1.83,-0.1142958947,-0.1006285685
1.84,-0.1198812033,-0.09298732575
1.85,-0.1249583388,-0.08504102297
1.86,-0.1295109947,-0.07682336469
1.87,-0.1335250986,-0.06836889958
1.88,-0.1369888537,-0.05971287224
1.89,-0.1398927705,-0.05089107311
1.9,-0.1422296884,-0.04193968721
1.91,-0.1439947874,-0.03289514234
1.92,-0.14518559,-0.02379395744
1.93,-0.1458019529,-0.01467259167
1.94,-0.1458460498,-0.005567294968
1.95,-0.1453223434,0.00348603938
1.96,-0.144237549,0.0124520195
1.97,-0.1426005887,0.02129589644
1.98,-0.1404225361,0.0299837018
1.99,-0.1377165534,0.03848238102
2,-0.1344978197,0.04675992167
2.01,-0.130783451,0.05478547632
2.02,-0.1265924139,0.06252947953
2.03,-0.1219454309,0.06996375832
2.04,-0.1168648804,0.07706163601
2.05,-0.1113746896,0.08379802878
2.06,-0.1055002225,0.09014953462
2.07,-0.09926816227,0.09609451462
2.08,-0.09270638997,0.1016131659
2.09,-0.08584385841,0.1066875863
2.1,-0.07871046324,0.1113018305
2.11,-0.07133691104,0.1154419573
2.12,-0.06375458533,0.119096068
2.13,-0.0559954109,0.122254336
2.14,-0.04809171724,0.1249090274
2.15,-0.04007610148,0.1270545123
2.16,-0.03198129166,0.1286872675
2.17,-0.02384001064,0.12980587
2.18,-0.01568484148,0.1304109821
2.19,-0.007548094719,0.1305053275
2.2,0.0005383218784,0.130093659
2.21,0.008543030552,0.1291827185
2.22,0.01643530723,0.1277811881
2.23,0.02418520118,0.1258996346
2.24,0.03176365019,0.1235504455
2.25,0.03914259072,0.1207477592
2.26,0.04629506276,0.1175073877
2.27,0.05319530886,0.1138467333
2.28,0.05981886702,0.1097846996
2.29,0.06614265713,0.1053415971
2.3,0.0721450606,0.100539044
2.31,0.07780599298,0.09539986222
2.32,0.08310696925,0.08994797016
2.33,0.08803116167,0.08420827131
2.34,0.09256344992,0.07820654051
2.35,0.0966904635,0.07196930765
2.36,0.1004006162,0.06552373952
2.37,0.1036841329,0.05889752042
2.38,0.1065330677,0.05211873197
2.39,0.108941315,0.04521573265
2.4,0.1109046122,0.03821703768
2.41,0.1124205345,0.03115119966
2.42,0.1134884822,0.02404669054
2.43,0.1141096603,0.01693178534
2.44,0.1142870509,0.009834448242
2.45,0.1140253783,0.002782221366
2.46,0.1133310674,-0.004197883244
2.47,0.1122121947,-0.01107948799
2.48,0.1106784341,-0.01783695005
2.49,0.1087409958,-0.02444545731
2.5,0.1064125595,-0.03088111953
2.51,0.103707203,-0.03712105429
2.52,0.1006403248,-0.04314346769
2.53,0.09722856323,-0.04892772917
2.54,0.0934897104,-0.0544544405
2.55,0.08944262322,-0.05970549854
2.56,0.0851071308,-0.06466415164
2.57,0.08050393902,-0.06931504951
2.58,0.07565453287,-0.07364428652
2.59,0.07058107672,-0.0776394381
2.6,0.06530631328,-0.08128959044
2.61,0.05985346147,-0.08458536334
2.62,0.05424611381,-0.08751892617
2.63,0.04850813377,-0.09008400699
2.64,0.04266355341,-0.09227589498
2.65,0.03673647195,-0.09409143616
2.66,0.03075095554,-0.0955290225
2.67,0.02473093867,-0.09658857472
2.68,0.01870012778,-0.09727151877
2.69,0.01268190724,-0.09758075629
2.7,0.006699248242,-0.09752062927
2.71,0.0007746208589,-0.09709687912
2.72,-0.005070090291,-0.09631660039
2.73,-0.01081366656,-0.09518818955
2.74,-0.01643563162,-0.09372128901
2.75,-0.02191632335,-0.09192672671
2.76,-0.02723696113,-0.08981645174
2.77,-0.0323797081,-0.08740346616
2.78,-0.03732772848,-0.08470175355
2.79,-0.04206523955,-0.08172620457
2.8,-0.04657755816,-0.07849253988
2.81,-0.05085114189,-0.07501723093
2.82,-0.05487362443,-0.07131741888
2.83,-0.05863384539,-0.06741083211
2.84,-0.06212187435,-0.0633157027
2.85,-0.06532902927,-0.05905068227
2.86,-0.06824788909,-0.05463475755
2.87,-0.07087230083,-0.05008716607
2.88,-0.07319738095,-0.04542731239
2.89,-0.07521951134,-0.04067468514
2.9,-0.07693632992,-0.03584877532
2.91,-0.07834671598,-0.03096899615
2.92,-0.07945077049,-0.02605460482
2.93,-0.0802497915,-0.02112462646
2.94,-0.08074624495,-0.01619778057
2.95,-0.08094373086,-0.01129241034
2.96,-0.08084694551,-0.006426414959
2.97,-0.0804616395,-0.001617185231
2.98,-0.07979457218,0.003118457237
2.99,-0.07885346268,0.007764317134
3,-0.07764693775,0.01230487862
3.01,-0.07618447689,0.01672535442
3.02,-0.07447635485,0.02101173067
3.03,-0.07253358201,0.02515080747
3.04,-0.07036784283,0.02913023493
3.05,-0.06799143276,0.03293854481
3.06,-0.06541719395,0.03656517748
3.07,-0.06265844995,0.04000050442
3.08,-0.05972893994,0.04323584605
3.09,-0.05664275254,0.04626348504
3.1,-0.05341425982,0.04907667506
3.11,-0.05005805147,0.05166964512
3.12,-0.04658886974,0.05403759945
3.13,-0.04302154529,0.05617671317
3.14,-0.03937093413,0.05808412374
3.15,-0.03565185618,0.05975791844
3.16,-0.03187903545,0.06119711795
3.17,-0.02806704223,0.06240165621
3.18,-0.02423023742,0.06337235678
3.19,-0.0203827193,0.06411090593
3.2,-0.01653827289,0.06461982253
3.21,-0.012710322,0.06490242512
3.22,-0.008911884286,0.06496279629
3.23,-0.005155529347,0.06480574467
3.24,-0.001453339956,0.06443676469
3.25,0.00218312337,0.06386199447
3.26,0.005742854455,0.06308817203
3.27,0.009215430113,0.06212259004
3.28,0.01259103532,0.06097304947
3.29,0.01586048485,0.0596478123
3.3,0.01901524149,0.05815555363
3.31,0.02204743059,0.05650531333
3.32,0.0249498513,0.05470644764
3.33,0.02771598427,0.05276858079
3.34,0.03033999602,0.05070155702
3.35,0.03281674,0.04851539316
3.36,0.03514175445,0.04622023193
3.37,0.03731125721,0.04382629639
3.38,0.03932213748,0.04134384543
3.39,0.0411719448,0.03878313077
3.4,0.04285887533,0.03615435548
3.41,0.04438175557,0.03346763423
3.42,0.04574002375,0.03073295545
3.43,0.04693370897,0.02796014548
3.44,0.04796340841,0.02515883489
3.45,0.04883026261,0.02233842702
3.46,0.0495359292,0.01950806887
3.47,0.05008255517,0.0166766244
3.48,0.0504727479,0.0138526503
3.49,0.05070954516,0.01104437433
3.5,0.05079638426,0.008259676072
3.51,0.05073707063,0.005506070417
3.52,0.05053574589,0.002790693472
3.53,0.0501968557,0.0001202910774
3.54,0.04972511765,-0.002498790184
3.55,0.04912548917,-0.005060609507
3.56,0.04840313581,-0.007559635981
3.57,0.04756340008,-0.00999075036
3.58,0.04661177082,-0.01234924459
3.59,0.04555385353,-0.01463081917
3.6,0.04439534152,-0.01683157843
3.61,0.04314198831,-0.01894802394
3.62,0.04179958113,-0.02097704603
3.63,0.04037391582,-0.02291591362
3.64,0.03887077319,-0.02476226257
3.65,0.03729589689,-0.02651408258
3.66,0.03565497288,-0.02816970279
3.67,0.03395361062,-0.02972777637
3.68,0.03219732595,-0.03118726411
3.69,0.03039152577,-0.03254741718
3.7,0.02854149451,-0.03380775936
3.71,0.0266523824,-0.03496806869
3.72,0.02472919557,-0.03602835888
3.73,0.02277678791,-0.03698886052
3.74,0.02079985479,-0.03785000228
3.75,0.0188029284,-0.03861239227
3.76,0.01679037489,-0.03927679966
3.77,0.01476639307,-0.03984413673
3.78,0.01273501473,-0.04031544145
3.79,0.01070010638,-0.04069186073
3.8,0.008665372482,-0.04097463453
3.81,0.006634359867,-0.04116508073
3.82,0.004610463452,-0.04126458107
3.83,0.002596932988,-0.04127456821
3.84,0.0005968808003,-0.04119651382
3.85,-0.001386709633,-0.04103191801
3.86,-0.003350974367,-0.04078229995
3.87,-0.005293159091,-0.04044918987
3.88,-0.007210608763,-0.04003412238
3.89,-0.009100756912,-0.03953863114
3.9,-0.01096111475,-0.03896424499
3.91,-0.01278926019,-0.0383124854
3.92,-0.01458282702,-0.03758486528
3.93,-0.01633949414,-0.03678288922
3.94,-0.01805697522,-0.03590805491
3.95,-0.01973300881,-0.03496185596
3.96,-0.02136534893,-0.03394578583
3.97,-0.02295175644,-0.03286134295
3.98,-0.02448999108,-0.03171003692
3.99,-0.02597780451,-0.03049339566
4,-0.02741293422,-0.02921297346
4.01,-0.02879309854,-0.0278703599
4.02,-0.03011599278,-0.02646718932
4.03,-0.03137928653,-0.02500515102
4.04,-0.03258062225,-0.02348599982
4.05,-0.0337176151,-0.02191156702
4.06,-0.03478785415,-0.02028377154
4.07,-0.03578890487,-0.0186046312
4.08,-0.03671831305,-0.0168762739
4.09,-0.03757360998,-0.01510094872
4.1,-0.03835231914,-0.01328103662
4.11,-0.03905196401,-0.01141906082
4.12,-0.03967007738,-0.009517696572
4.13,-0.04020421173,-0.007579780269
4.14,-0.04065195099,-0.005608317766
4.15,-0.04101092326,-0.003606491795
4.16,-0.04127881473,-0.001577668356
4.17,-0.04145338452,0.0004745980124
4.18,-0.04153248038,0.002546560186
4.19,-0.04151405526,0.004634275721
4.2,-0.04139618447,0.006733605507
4.21,-0.04117708347,0.008840213896
4.22,-0.04085512608,0.01094957036
4.23,-0.04042886298,0.01305695272
4.24,-0.03989704046,0.01515745205
4.25,-0.03925861914,0.01724597916
4.26,-0.03851279263,0.01931727286
4.27,-0.03765900599,0.02136590986
4.28,-0.03669697377,0.02338631637
4.29,-0.03562669752,0.02537278142
4.3,-0.03444848267,0.02731947179
4.31,-0.03316295458,0.0292204486
4.32,-0.03177107363,0.03106968547
4.33,-0.03027414928,0.03286108818
4.34,-0.02867385282,0.03458851582
4.35,-0.02697222886,0.03624580328
4.36,-0.02517170527,0.03782678499
4.37,-0.02327510158,0.03932531993
4.38,-0.02128563571,0.04073531758
4.39,-0.01920692878,0.04205076493
4.4,-0.01704300819,0.04326575424
4.41,-0.01479830857,0.04437451151
4.42,-0.01247767082,0.04537142545
4.43,-0.01008633889,0.04625107688
4.44,-0.007629954575,0.04700826834
4.45,-0.005114549914,0.04763805378
4.46,-0.002546537515,0.04813576814
4.47,6.730145227E-05,0.04849705664
4.48,0.002719831484,0.04871790374
4.49,0.005403579214,0.04879466136
4.5,0.008110752107,0.04872407644
4.51,0.01083325932,0.04850331745
4.52,0.01356273472,0.04812999989
4.53,0.01629056194,0.04760221042
4.54,0.01900790145,0.04691852959
4.55,0.02170571955,0.04607805296
4.56,0.02437481916,0.04508041046
4.57,0.02700587229,0.04392578382
4.58,0.02958945411,0.04261492204
4.59,0.03211607847,0.04114915455
4.6,0.03457623473,0.03953040224
4.61,0.03696042567,0.03776118593
4.62,0.03925920649,0.03584463246
4.63,0.04146322452,0.03378447805
4.64,0.04356325966,0.03158506913
4.65,0.04555026521,0.02925136027
4.66,0.04741540897,0.02678890946
4.67,0.04915011446,0.02420387045
4.68,0.0507461019,0.02150298223
4.69,0.05219542902,0.01869355574
4.7,0.05349053116,0.01578345756
4.71,0.05462426072,0.01278109087
4.72,0.05558992568,0.009695373497
4.73,0.05638132692,0.006535713229
4.74,0.0569927942,0.003311980418
4.75,0.05741922064,3.447791077E-05
4.76,0.05765609537,-0.003286091545
4.77,0.05769953434,-0.006638660356
4.78,0.05754630898,-0.01001183347
4.79,0.05719387255,-0.01339392794
4.8,0.05664038412,-0.01677301457
4.81,0.05588472985,-0.02013696147
4.82,0.05492654158,-0.02347347927
4.83,0.05376621253,-0.02677016801
4.84,0.05240490997,-0.03001456527
4.85,0.05084458478,-0.03319419553
4.86,0.0490879778,-0.03629662051
4.87,0.04713862287,-0.03930949024
4.88,0.04500084652,-0.04222059457
4.89,0.04267976423,-0.04501791517
4.9,0.0401812732,-0.04768967736
4.91,0.0375120417,-0.05022440203
4.92,0.03467949491,-0.05261095692
4.93,0.03169179724,-0.05483860744
4.94,0.02855783125,-0.05689706648
4.95,0.02528717314,-0.05877654325
4.96,0.02189006492,-0.06046779058
4.97,0.01837738325,-0.06196215085
4.98,0.01476060516,-0.0632515999
4.99,0.01105177068,-0.0643287891
5,0.007263442472,-0.06518708502
5.01,0.003408662739,-0.06582060676
5.02,-0.0004990925994,-0.06622426054
5.03,-0.004445962185,-0.06639377149
5.04,-0.008417749817,-0.06632571243
5.05,-0.01239997717,-0.06601752945
5.06,-0.01637793841,-0.06546756413
5.07,-0.02033675653,-0.06467507229
5.08,-0.02426144113,-0.06364023917
5.09,-0.02813694748,-0.06236419085
5.1,-0.03194823648,-0.06084900185
5.11,-0.03568033546,-0.05909769887
5.12,-0.03931839943,-0.05711426056
5.13,-0.04284777253,-0.05490361329
5.14,-0.04625404946,-0.0524716229
5.15,-0.04952313658,-0.04982508237
5.16,-0.05264131251,-0.04697169553
5.17,-0.05559528774,-0.0439200567
5.18,-0.05837226323,-0.04067962641
5.19,-0.06095998765,-0.0372607032
5.2,-0.06334681285,-0.03367439162
5.21,-0.06552174758,-0.02993256648
5.22,-0.06747450894,-0.02604783355
5.23,-0.0691955715,-0.02203348672
5.24,-0.07067621376,-0.01790346188
5.25,-0.07190856178,-0.01367228764
5.26,-0.07288562971,-0.009355033049
5.27,-0.07360135706,-0.004967252577
5.28,-0.07405064248,-0.0005249284613
5.29,-0.07422937395,0.003955589248
5.3,-0.07413445508,0.008457644778
5.31,-0.07376382753,0.01296434059
5.32,-0.07311648929,0.01745860297
5.33,-0.07219250882,0.0219232489
5.34,-0.0709930348,0.02634105413
5.35,-0.0695203016,0.03069482193
5.36,-0.06777763023,0.03496745239
5.37,-0.06576942487,0.03914201196
5.38,-0.06350116488,0.04320180293
5.39,-0.06097939224,0.04713043247
5.4,-0.05821169461,0.05091188109
5.41,-0.05520668388,0.05453057011
5.42,-0.05197397028,0.05797142783
5.43,-0.04852413222,0.06121995427
5.44,-0.04486868192,0.06426228398
5.45,-0.04102002684,0.06708524679
5.46,-0.03699142718,0.06967642619
5.47,-0.03279694958,0.07202421505
5.48,-0.02845141704,0.07411786848
5.49,-0.02397035545,0.07594755349
5.5,-0.01936993683,0.07750439536
5.51,-0.0146669194,0.07878052036
5.52,-0.009878584968,0.07976909473
5.53,-0.005022673561,0.08046435962
5.54,-0.0001173158312,0.08086166198
5.55,0.004819036666,0.080957481
5.56,0.00976768298,0.08074945024
5.57,0.01470974577,0.08023637508
5.58,0.01962624555,0.0794182456
5.59,0.02449817579,0.0782962446
5.6,0.0293065787,0.07687275091
5.61,0.03403262122,0.07515133775
5.62,0.03865767105,0.07313676625
5.63,0.0431633723,0.0708349741
5.64,0.0475317205,0.06825305931
5.65,0.05174513664,0.06539925915
5.66,0.05578653992,0.06228292431
5.67,0.05963941886,0.05891448842
5.68,0.06328790061,0.05530543292
5.69,0.06671681798,0.05146824755
5.7,0.06991177399,0.04741638643
5.71,0.07285920368,0.04316422004
5.72,0.07554643288,0.03872698318
5.73,0.0779617337,0.03412071916
5.74,0.0800943764,0.02936222038
5.75,0.08193467758,0.0244689656
5.76,0.08347404433,0.01945905405
5.77,0.08470501423,0.01435113674
5.78,0.08562129087,0.009164345148
5.79,0.08621777499,0.003918217626
5.8,0.08649059077,-0.001367376209
5.81,0.08643710738,-0.006672312785
5.82,0.0860559556,-0.01197629328
5.83,0.0853470394,-0.01725892343
5.84,0.0843115424,-0.02249979402
5.85,0.08295192926,-0.02767856191
5.86,0.08127194186,-0.03277503104
5.87,0.07927659029,-0.03776923331
5.88,0.07697213874,-0.04264150879
5.89,0.07436608623,-0.04737258511
5.9,0.07146714231,-0.05194365559
5.91,0.06828519773,-0.05633645579
5.92,0.06483129035,-0.06053333824
5.93,0.06111756611,-0.06451734497
5.94,0.05715723559,-0.06827227751
5.95,0.05296452598,-0.07178276416
5.96,0.04855462881,-0.07503432418
5.97,0.04394364366,-0.07801342862
5.98,0.03914851793,-0.08070755755
5.99,0.03418698307,-0.08310525348
6,0.02907748736,-0.08519617069
