"Freq [GHz]","re(S(Tx_p1,Tx_p1)) []","im(S(Tx_p1,Tx_p1)) []"
1,-0.1601979377,0.07888139506
1.01,-0.1551275408,0.08836553806
1.02,-0.1494835253,0.09753468448
1.03,-0.1432853607,0.1063529866
1.04,-0.1365548248,0.1147858396
1.05,-0.1293159199,0.1228000321
1.06,-0.1215947795,0.1303638903
1.07,-0.1134195651,0.1374474164
1.08,-0.1048203552,0.1440224191
1.09,-0.09582902485,0.1500626372
1.1,-0.08647911816,0.1555438545
1.11,-0.07680571316,0.1604440068
1.12,-0.06684528013,0.1647432787
1.13,-0.0566355337,0.1684241924
1.14,-0.04621527968,0.1714716849
1.15,-0.03562425694,0.1738731767
1.16,-0.02490297531,0.1756186285
1.17,-0.01409254997,0.1767005888
1.18,-0.003234533181,0.1771142288
1.19,0.007629255943,0.176857368
1.2,0.018456903,0.1759304869
1.21,0.02920657032,0.1743367302
1.22,0.03983666883,0.1720818977
1.23,0.05030602893,0.1691744239
1.24,0.06057406975,0.1656253475
1.25,0.07060096602,0.1614482691
1.26,0.08034781183,0.1566592982
1.27,0.0897767806,0.1512769906
1.28,0.09885128065,0.1453222737
1.29,0.1075361056,0.1388183643
1.3,0.1157975789,0.1317906743
1.31,0.1236036925,0.1242667093
1.32,0.1309242377,0.1162759572
1.33,0.1377309294,0.107849769
1.34,0.1439975221,0.09902123197
1.35,0.1496999165,0.089825035
1.36,0.1548162591,0.08029732815
1.37,0.1593270302,0.07047557557
1.38,0.163215124,0.06039840319
1.39,0.1664659177,0.05010544162
1.4,0.1690673305,0.03963716495
1.41,0.171009872,0.02903472619
1.42,0.1722866803,0.01833978983
1.43,0.1728935483,0.007594362568
1.44,0.1728289399,-0.003159377435
1.45,0.1720939946,-0.01387925178
1.46,0.1706925214,-0.02452325298
1.47,0.168630981,-0.03504971473
1.48,0.1659184583,-0.04541748066
1.49,0.1625666228,-0.05558607079
1.5,0.158589679,-0.06551584505
1.51,0.1540043067,-0.07516816312
1.52,0.1488295902,-0.08450554006
1.53,0.143086939,-0.09349179688
1.54,0.1367999975,-0.1020922057
1.55,0.1299945472,-0.1102736284
1.56,0.122698399,-0.1180046492
1.57,0.1149412776,-0.1252556993
1.58,0.1067546988,-0.1319991738
1.59,0.09817183909,-0.1382095412
1.6,0.0892273983,-0.1438634427
1.61,0.07995745707,-0.148939784
1.62,0.07039932822,-0.1534198167
1.63,0.06059140357,-0.1572872099
1.64,0.05057299662,-0.1605281123
1.65,0.04038418161,-0.1631312034
1.66,0.0300656299,-0.1650877349
1.67,0.01965844413,-0.1663915605
1.68,0.009203991009,-0.1670391561
1.69,-0.001256266682,-0.1670296282
1.7,-0.01168093811,-0.166364712
1.71,-0.02202887173,-0.165048759
1.72,-0.03225932131,-0.1630887131
1.73,-0.04233210986,-0.1604940768
1.74,-0.05220779094,-0.1572768665
1.75,-0.06184780648,-0.1534515585
1.76,-0.07121464064,-0.1490350238
1.77,-0.08027196904,-0.144046454
1.78,-0.08898480269,-0.1385072781
1.79,-0.09731962609,-0.1324410697
1.8,-0.105244529,-0.125873446
1.81,-0.112729331,-0.1188319589
1.82,-0.1197456994,-0.111345978
1.83,-0.1262672581,-0.1034465669
1.84,-0.1322696891,-0.09516635277
1.85,-0.1377308249,-0.08653938979
1.86,-0.1426307319,-0.07760101735
1.87,-0.1469517846,-0.06838771323
1.88,-0.1506787296,-0.05893694271
1.89,-0.1537987404,-0.04928700396
1.9,-0.1563014614,-0.03947687064
1.91,-0.1581790425,-0.02954603213
1.92,-0.1594261625,-0.0195343322
1.93,-0.1600400428,-0.009481806732
1.94,-0.1600204501,0.0005714787731
1.95,-0.1593696888,0.01058559133
1.96,-0.1580925836,0.0205208915
1.97,-0.1561964513,0.03033819264
1.98,-0.1536910624,0.0399989178
1.99,-0.1505885934,0.04946525359
2,-0.1469035691,0.05870030037
2.01,-0.1426527954,0.06766821813
2.02,-0.1378552832,0.07633436764
2.03,-0.1325321637,0.08466544606
2.04,-0.126706595,0.09262961665
2.05,-0.120403661,0.100196632
2.06,-0.1136502631,0.1073379505
2.07,-0.1064750042,0.1140268448
2.08,-0.09890806685,0.1202385035
2.09,-0.09098108509,0.1259501233
2.1,-0.08272701097,0.131140994
2.11,-0.07417997625,0.1357925735
2.12,-0.06537514974,0.1398885541
2.13,-0.05634859115,0.1434149198
2.14,-0.0471371017,0.146359993
2.15,-0.03777807251,0.1487144729
2.16,-0.02830933112,0.1504714626
2.17,-0.01876898684,0.1516264872
2.18,-0.009195275729,0.152177502
2.19,0.0003735944163,0.1521248897
2.2,0.009899598196,0.1514714496
2.21,0.01934504538,0.1502223747
2.22,0.0286727316,0.1483852214
2.23,0.03784608648,0.145969868
2.24,0.04682931842,0.1429884647
2.25,0.05558755563,0.1394553747
2.26,0.06408698275,0.1353871061
2.27,0.0722949726,0.1308022355
2.28,0.08018021238,0.1257213241
2.29,0.08771282405,0.1201668249
2.3,0.09486447821,0.1141629841
2.31,0.1016085013,0.1077357346
2.32,0.1079199752,0.1009125834
2.33,0.1137758298,0.09372249327
2.34,0.119154927,0.08619575929
2.35,0.1240381369,0.07836387996
2.36,0.1284084051,0.07025942456
2.37,0.1322508114,0.06191589656
2.38,0.1355526196,0.05336759406
2.39,0.1383033183,0.04464946755
2.4,0.1404946519,0.03579697586
2.41,0.1421206427,0.02684594067
2.42,0.1431776037,0.0178324004
2.43,0.143664142,0.008792463824
2.44,0.1435811524,-0.0002378356778
2.45,0.1429318024,-0.00922268495
2.46,0.1417215075,-0.01812663416
2.47,0.1399578981,-0.02691473767
2.48,0.137650777,-0.03555269216
2.49,0.1348120684,-0.04400697136
2.5,0.1314557592,-0.05224495694
2.51,0.1275978311,-0.06023506495
2.52,0.1232561862,-0.06794686748
2.53,0.1184505645,-0.07535120884
2.54,0.1132024544,-0.08242031608
2.55,0.1075349968,-0.08912790312
2.56,0.1014728831,-0.09544926843
2.57,0.0950422473,-0.1013613857
2.58,0.08827055308,-0.1068429871
2.59,0.08118647575,-0.111874639
2.6,0.07381978037,-0.1164388101
2.61,0.06620119597,-0.1205199308
2.62,0.05836228658,-0.1241044452
2.63,0.05033531969,-0.1271808537
2.64,0.0421531326,-0.1297397477
2.65,0.03384899719,-0.1317738352
2.66,0.02545648388,-0.1332779581
2.67,0.01700932499,-0.1342491005
2.68,0.008541278467,-0.1346863883
2.69,8.59921356E-05,-0.13459108
2.7,-0.008323130646,-0.1339665492
2.71,-0.0166530636,-0.1328182587
2.72,-0.02487128779,-0.131153726
2.73,-0.03294591902,-0.1289824807
2.74,-0.04084583193,-0.1263160147
2.75,-0.04854078018,-0.1231677235
2.76,-0.05600151242,-0.1195528418
2.77,-0.06319988342,-0.1154883705
2.78,-0.07010896016,-0.1109929982
2.79,-0.07670312223,-0.1060870157
2.8,-0.08295815637,-0.1007922249
2.81,-0.08885134466,-0.09513184197
2.82,-0.09436154625,-0.08913039569
2.83,-0.099469272,-0.08281362092
2.84,-0.1041567521,-0.07620834802
2.85,-0.1084079965,-0.06934238852
2.86,-0.1122088471,-0.06224441758
2.87,-0.1155470232,-0.05494385379
2.88,-0.1184121581,-0.0474707367
2.89,-0.1207958288,-0.03985560273
2.9,-0.1226915763,-0.03212935987
2.91,-0.1240949193,-0.0243231617
2.92,-0.1250033589,-0.01646828131
2.93,-0.1254163755,-0.008595985583
2.94,-0.1253354179,-0.0007374103281
2.95,-0.1247638847,0.007076563163
2.96,-0.1237070974,0.01481542973
2.97,-0.1221722664,0.02244917957
2.98,-0.1201684497,0.0299484147
2.99,-0.1177065044,0.03728446209
3,-0.1147990307,0.04442948313
3.01,-0.1114603104,0.05135657899
3.02,-0.1077062383,0.0580398914
3.03,-0.1035542476,0.06445469862
3.04,-0.09902323011,0.07057750612
3.05,-0.09413345076,0.07638613168
3.06,-0.08890645745,0.08185978465
3.07,-0.08336498625,0.08697913903
3.08,-0.07753286266,0.09172640013
3.09,-0.07143489909,0.09608536468
3.1,-0.06509678923,0.100041474
3.11,-0.05854499959,0.1035818605
3.12,-0.0518066588,0.1066953863
3.13,-0.04490944499,0.1093726759
3.14,-0.03788147194,0.1116061402
3.15,-0.03075117418,0.113389994
3.16,-0.02354719176,0.1147202663
3.17,-0.01629825508,0.1155948022
3.18,-0.00903307009,0.116013259
3.19,-0.001780204653,0.1159770938
3.2,0.005432023854,0.115489545
3.21,0.01257565898,0.1145556059
3.22,0.01962321338,0.113181992
3.23,0.02654777431,0.111377102
3.24,0.03332310598,0.1091509717
3.25,0.03992374845,0.106515222
3.26,0.04632511263,0.1034830011
3.27,0.05250357108,0.1000689209
3.28,0.05843654426,0.09628898833
3.29,0.06410258193,0.09216053111
3.3,0.06948143945,0.08770211942
3.31,0.07455414853,0.0829334829
3.32,0.07930308253,0.07787542382
3.33,0.08371201577,0.07254972665
3.34,0.0877661768,0.06697906439
3.35,0.0914522955,0.06118690221
3.36,0.09475864381,0.05519739864
3.37,0.09767506999,0.04903530487
3.38,0.1001930263,0.04272586243
3.39,0.1023055903,0.03629469984
3.4,0.1040074791,0.02976772853
3.41,0.1052950573,0.02317103846
3.42,0.1061663384,0.016530794
3.43,0.1066209794,0.009873130212
3.44,0.106660269,0.003224050279
3.45,0.1062871096,-0.003390675809
3.46,0.1055059927,-0.009945610743
3.47,0.1043229688,-0.01641574724
3.48,0.1027456106,-0.02277660287
3.49,0.1007829712,-0.02900431199
3.5,0.09844553627,-0.0350757145
3.51,0.0957451714,-0.04096844099
3.52,0.09269506412,-0.04666099405
3.53,0.08930966129,-0.05213282551
3.54,0.0856046021,-0.05736440915
3.55,0.08159664689,-0.06233730885
3.56,0.07730360214,-0.06703424175
3.57,0.07274424209,-0.0714391364
3.58,0.06793822706,-0.07553718557
3.59,0.06290601915,-0.07931489362
3.6,0.05766879541,-0.08276011832
3.61,0.052248359,-0.0858621069
3.62,0.04666704869,-0.08861152641
3.63,0.04094764697,-0.09100048809
3.64,0.03511328737,-0.09302256599
3.65,0.02918736106,-0.09467280953
3.66,0.02319342339,-0.09594775026
3.67,0.01715510062,-0.09684540264
3.68,0.0110959971,-0.09736525909
3.69,0.005039603539,-0.09750827917
3.7,-0.0009907936117,-0.09727687318
3.71,-0.006972201025,-0.09667488018
3.72,-0.01288200548,-0.09570754065
3.73,-0.01869805852,-0.09438146382
3.74,-0.02439875856,-0.09270459006
3.75,-0.02996313002,-0.09068614826
3.76,-0.03537089936,-0.08833660872
3.77,-0.04060256762,-0.08566763145
3.78,-0.04563947925,-0.08269201044
3.79,-0.05046388707,-0.07942361394
3.8,-0.05505901296,-0.0758773211
3.81,-0.0594091043,-0.07206895531
3.82,-0.06349948584,-0.0680152144
3.83,-0.06731660688,-0.06373359816
3.84,-0.07084808359,-0.05924233338
3.85,-0.07408273645,-0.05456029678
3.86,-0.07701062258,-0.04970693611
3.87,-0.07962306295,-0.04470218983
3.88,-0.08191266449,-0.03956640558
3.89,-0.08387333688,-0.03432025794
3.9,-0.08550030415,-0.02898466559
3.91,-0.08679011114,-0.0235807084
3.92,-0.08774062463,-0.01812954469
3.93,-0.08835102945,-0.01265232893
3.94,-0.08862181944,-0.00717013032
3.95,-0.08855478343,-0.00170385247
3.96,-0.08815298642,0.003725845515
3.97,-0.08742074587,0.009098626202
3.98,-0.08636360346,0.014394549
3.99,-0.0849882924,0.01959414308
4,-0.08330270038,0.02467847771
4.01,-0.08131582854,0.02962922985
4.02,-0.07903774642,0.03442874872
4.03,-0.0764795433,0.03906011711
4.04,-0.07365327612,0.04350720928
4.05,-0.07057191414,0.04775474519
4.06,-0.06724928063,0.05178834098
4.07,-0.0636999919,0.05559455542
4.08,-0.05993939388,0.05916093236
4.09,-0.05598349651,0.06247603886
4.1,-0.05184890625,0.06552949907
4.11,-0.04755275701,0.06831202367
4.12,-0.04311263974,0.07081543486
4.13,-0.03854653096,0.07303268682
4.14,-0.03387272056,0.0749578816
4.15,-0.02910973916,0.07658628051
4.16,-0.02427628529,0.07791431087
4.17,-0.01939115262,0.07893956827
4.18,-0.01447315765,0.07966081435
4.19,-0.009541068003,0.08007797012
4.2,-0.004613531722,0.08019210495
4.21,0.0002909923399,0.08000542121
4.22,0.005154302607,0.07952123488
4.23,0.009958521205,0.07874395199
4.24,0.01468615846,0.0776790412
4.25,0.01932017523,0.07633300267
4.26,0.02384404287,0.07471333322
4.27,0.02824180065,0.07282848821
4.28,0.03249811037,0.07068784001
4.29,0.03659830805,0.0683016336
4.3,0.04052845252,0.06568093917
4.31,0.04427537076,0.06283760223
4.32,0.0478266998,0.05978419123
4.33,0.05117092517,0.05653394299
4.34,0.05429741571,0.05310070625
4.35,0.0571964546,0.04949888346
4.36,0.05985926671,0.04574337111
4.37,0.06227804201,0.04184949885
4.38,0.06444595516,0.03783296759
4.39,0.06635718109,0.03370978695
4.4,0.06800690672,0.02949621211
4.41,0.06939133873,0.02520868052
4.42,0.07050770733,0.02086374854
4.43,0.07135426627,0.01647802835
4.44,0.07193028886,0.01206812538
4.45,0.07223606038,0.007650576332
4.46,0.07227286657,0.003241788255
4.47,0.0720429787,-0.001142021291
4.48,0.07154963492,-0.005484882689
4.49,0.07079701839,-0.009771131155
4.5,0.06979023195,-0.01398546186
4.51,0.0685352697,-0.01811298308
4.52,0.0670389856,-0.02213926728
4.53,0.06530905917,-0.02605039982
4.54,0.06335395845,-0.02983302527
4.55,0.06118290054,-0.03347439108
4.56,0.05880580967,-0.03696238862
4.57,0.05623327322,-0.04028559122
4.58,0.05347649567,-0.04343328937
4.59,0.05054725082,-0.04639552284
4.6,0.04745783242,-0.04916310964
4.61,0.04422100344,-0.05172767177
4.62,0.04084994414,-0.05408165775
4.63,0.03735819921,-0.05621836176
4.64,0.03375962413,-0.05813193956
4.65,0.03006833096,-0.05981742087
4.66,0.02629863389,-0.06127071862
4.67,0.02246499456,-0.06248863459
4.68,0.01858196744,-0.06346886191
4.69,0.01466414563,-0.06420998413
4.7,0.01072610693,-0.06471147112
4.71,0.006782360726,-0.06497367165
4.72,0.002847295665,-0.06499780291
4.73,-0.001064871622,-0.06478593694
4.74,-0.00494014659,-0.06434098411
4.75,-0.008764805464,-0.06366667363
4.76,-0.01252544238,-0.06276753139
4.77,-0.01620901484,-0.06164885507
4.78,-0.01980288731,-0.06031668678
4.79,-0.02329487281,-0.0587777832
4.8,-0.0266732725,-0.05703958355
4.81,-0.02992691287,-0.05511017541
4.82,-0.03304518079,-0.05299825854
4.83,-0.03601805592,-0.05071310692
4.84,-0.0388361408,-0.04826452914
4.85,-0.04149068815,-0.0456628273
4.86,-0.04397362566,-0.04291875456
4.87,-0.04627757794,-0.0400434716
4.88,-0.04839588576,-0.03704850207
4.89,-0.05032262246,-0.03394568722
4.9,-0.05205260751,-0.03074713996
4.91,-0.05358141729,-0.02746519841
4.92,-0.05490539295,-0.02411237919
4.93,-0.05602164543,-0.02070133065
4.94,-0.05692805774,-0.01724478607
4.95,-0.05762328431,-0.01375551717
4.96,-0.0581067477,-0.01024628798
4.97,-0.05837863253,-0.00672980929
4.98,-0.05843987674,-0.003218693772
4.99,-0.05829216033,0.0002745879779
5,-0.05793789148,0.003737750429
5.01,-0.05738019031,0.007158734929
5.02,-0.05662287024,0.01052575023
5.03,-0.05567041711,0.01382731163
5.04,-0.05452796619,0.01705227848
5.05,-0.05320127701,0.02018989017
5.06,-0.05169670647,0.02322980028
5.07,-0.05002117992,0.02616210881
5.08,-0.04818216072,0.02897739261
5.09,-0.0461876182,0.03166673363
5.1,-0.0440459941,0.03422174515
5.11,-0.04176616793,0.03663459578
5.12,-0.03935742093,0.03889803127
5.13,-0.03682939927,0.04100539397
5.14,-0.03419207621,0.04295064009
5.15,-0.03145571361,0.04472835443
5.16,-0.02863082287,0.04633376291
5.17,-0.02572812545,0.04776274255
5.18,-0.02275851303,0.0490118292
5.19,-0.01973300764,0.05007822275
5.2,-0.01666272168,0.05095979005
5.21,-0.01355881817,0.05165506539
5.22,-0.01043247119,0.05216324871
5.23,-0.007294826805,0.05248420148
5.24,-0.00415696449,0.0526184403
5.25,-0.001029859221,0.05256712834
5.26,0.002075655624,0.05233206461
5.27,0.005148924461,0.05191567113
5.28,0.008179504673,0.05132097811
5.29,0.01115720065,0.05055160714
5.3,0.01407209657,0.04961175261
5.31,0.01691458791,0.04850616127
5.32,0.01967541142,0.04724011019
5.33,0.02234567371,0.04581938304
5.34,0.02491687812,0.044250245
5.35,0.02738095003,0.04253941625
5.36,0.02973026038,0.04069404412
5.37,0.03195764741,0.03872167423
5.38,0.03405643654,0.03663022044
5.39,0.03602045843,0.03442793396
5.4,0.03784406499,0.03212337163
5.41,0.03952214356,0.02972536348
5.42,0.04105012902,0.02724297975
5.43,0.04242401392,0.02468549741
5.44,0.04364035663,0.02206236642
5.45,0.04469628745,0.01938317566
5.46,0.04558951267,0.01665761885
5.47,0.04631831675,0.01389546047
5.48,0.04688156234,0.01110650176
5.49,0.04727868853,0.008300547052
5.5,0.04750970701,0.005487370343
5.51,0.04757519644,0.002676682443
5.52,0.04747629492,-0.0001219013818
5.53,0.04721469064,-0.00289889307
5.54,0.04679261086,-0.005644962662
5.55,0.04621280905,-0.008350968339
5.56,0.04547855055,-0.0110079855
5.57,0.04459359658,-0.01360733482
5.58,0.04356218674,-0.01614060916
5.59,0.04238902017,-0.0185996993
5.6,0.04107923528,-0.02097681842
5.61,0.03963838829,-0.02326452521
5.62,0.03807243058,-0.02545574558
5.63,0.03638768493,-0.02754379299
5.64,0.03459082084,-0.02952238721
5.65,0.03268882882,-0.03138567152
5.66,0.03068899407,-0.0331282284
5.67,0.02859886924,-0.03474509353
5.68,0.02642624675,-0.03623176817
5.69,0.02417913052,-0.03758422987
5.7,0.02186570726,-0.03879894151
5.71,0.01949431755,-0.03987285858
5.72,0.01707342658,-0.04080343487
5.73,0.01461159485,-0.04158862633
5.74,0.01211744883,-0.04222689331
5.75,0.009599651711,-0.04271720115
5.76,0.007066874269,-0.04305901899
5.77,0.004527766064,-0.04325231703
5.78,0.001990926949,-0.04329756214
5.79,-0.0005351209742,-0.0431957119
5.8,-0.003041960856,-0.04294820703
5.81,-0.005521308004,-0.04255696239
5.82,-0.007965036085,-0.04202435647
5.83,-0.01036520256,-0.04135321949
5.84,-0.01271407329,-0.0405468201
5.85,-0.0150041462,-0.0396088508
5.86,-0.01722817395,-0.03854341216
5.87,-0.01937918567,-0.03735499577
5.88,-0.02145050741,-0.03604846615
5.89,-0.02343578161,-0.03462904159
5.9,-0.02532898525,-0.03310227401
5.91,-0.02712444677,-0.03147402797
5.92,-0.02881686175,-0.02975045878
5.93,-0.03040130718,-0.02793798996
5.94,-0.0318732544,-0.02604328997
5.95,-0.03322858068,-0.02407324837
5.96,-0.0344635793,-0.02203495153
5.97,-0.0355749683,-0.01993565783
5.98,-0.03655989772,-0.01778277265
5.99,-0.03741595538,-0.01558382298
6,-0.03814117122,-0.01334643194
