"Freq [GHz]","re(S(Tx_p1,Tx_p1)) []","im(S(Tx_p1,Tx_p1)) []"
1,-0.0967638706,0.05094677919
1.01,-0.09346528166,0.05667182573
1.02,-0.08982063829,0.06218960191
1.03,-0.08584294228,0.06747849281
1.04,-0.08154658631,0.07251772638
1.05,-0.07694729637,0.07728746395
1.06,-0.07206206845,0.08176888656
1.07,-0.06690909963,0.08594427693
1.08,-0.06150771402,0.08979709668
1.09,-0.05587828374,0.09331205836
1.1,-0.05004214546,0.09647519211
1.11,-0.04402151267,0.0992739067
1.12,-0.03783938427,0.1016970445
1.13,-0.03151944972,0.1037349304
1.14,-0.02508599125,0.1053794144
1.15,-0.01856378358,0.1066239073
1.16,-0.01197799146,0.1074634103
1.17,-0.005354065697,0.1078945373
1.18,0.001282362177,0.1079155307
1.19,0.007905585823,0.1075262698
1.2,0.01448993039,0.1067282725
1.21,0.0210098586,0.1055246905
1.22,0.02744007618,0.1039202965
1.23,0.03375563628,0.1019214655
1.24,0.03993204227,0.09953614907
1.25,0.04594534862,0.0967738427
1.26,0.05177225941,0.09364554692
1.27,0.05739022393,0.09016372213
1.28,0.06277752921,0.08634223717
1.29,0.06791338878,0.08219631213
1.3,0.07277802758,0.07774245552
1.31,0.07735276248,0.07299839606
1.32,0.08162007817,0.06798300948
1.33,0.08556369799,0.06271624059
1.34,0.08916864963,0.05721902095
1.35,0.09242132515,0.05151318257
1.36,0.09530953532,0.04562136796
1.37,0.09782255793,0.03956693687
1.38,0.0999511799,0.03337387029
1.39,0.101687733,0.02706667191
1.4,0.1030261234,0.02067026767
1.41,0.1039618538,0.01420990362
1.42,0.1044920401,0.007711042726
1.43,0.1046154202,0.001199260903
1.44,0.1043323569,-0.005299857163
1.45,0.1036448335,-0.01176082207
1.46,0.1025564427,-0.01815834313
1.47,0.1010723697,-0.02446743075
1.48,0.09919936739,-0.03066349731
1.49,0.09694572629,-0.03672245627
1.5,0.09432123759,-0.04262081882
1.51,0.09133715029,-0.04833578792
1.52,0.08800612237,-0.05384534929
1.53,0.08434216626,-0.05912835882
1.54,0.08036058895,-0.0641646263
1.55,0.0760779268,-0.06893499493
1.56,0.07151187558,-0.07342141634
1.57,0.06668121589,-0.07760702094
1.58,0.06160573426,-0.08147618307
1.59,0.05630614048,-0.08501458104
1.6,0.05080398124,-0.08820925144
1.61,0.04512155068,-0.09104863788
1.62,0.03928179814,-0.09352263366
1.63,0.03330823345,-0.0956226185
1.64,0.02722483025,-0.09734148893
1.65,0.0210559278,-0.09867368243
1.66,0.01482613144,-0.09961519523
1.67,0.00856021247,-0.1001635935
1.68,0.002283007596,-0.1003180183
1.69,-0.003980681552,-0.1000791839
1.7,-0.01020618837,-0.09944936968
1.71,-0.01636908032,-0.09843240578
1.72,-0.02244525673,-0.09703365236
1.73,-0.02841104477,-0.09525997273
1.74,-0.03424329341,-0.09311970042
1.75,-0.0399194649,-0.09062260037
1.76,-0.04541772332,-0.0877798245
1.77,-0.05071702002,-0.08460386166
1.78,-0.05579717546,-0.08110848246
1.79,-0.06063895725,-0.07730867902
1.8,-0.0652241539,-0.07322060002
1.81,-0.06953564427,-0.06886148126
1.82,-0.07355746219,-0.06424957214
1.83,-0.07727485616,-0.05940405829
1.84,-0.08067434385,-0.05434498066
1.85,-0.08374376121,-0.04909315162
1.86,-0.08647230604,-0.04367006813
1.87,-0.0888505758,-0.03809782257
1.88,-0.0908705996,-0.03239901158
1.89,-0.09252586424,-0.02659664316
1.9,-0.09381133425,-0.0207140426
1.91,-0.09472346574,-0.0147747575
1.92,-0.09526021429,-0.008802462319
1.93,-0.09542103663,-0.002820862868
1.94,-0.09520688625,0.00314639892
1.95,-0.094620203,0.009075839488
1.96,-0.09366489669,0.01494422709
1.97,-0.09234632486,0.02072867375
1.98,-0.09067126472,0.02640672541
1.99,-0.08864787962,0.03195644991
2,-0.08628567992,0.03735652238
2.01,-0.08359547877,0.04258630778
2.02,-0.08058934272,0.04762594034
2.03,-0.07728053758,0.05245639934
2.04,-0.07368346967,0.05705958128
2.05,-0.06981362285,0.06141836782
2.06,-0.0656874914,0.06551668955
2.07,-0.06132250926,0.06933958514
2.08,-0.05673697582,0.0728732557
2.09,-0.05194997858,0.07610511427
2.1,-0.04698131309,0.07902383006
2.11,-0.04185140043,0.08161936751
2.12,-0.03658120258,0.08388301989
2.13,-0.0311921361,0.08580743735
2.14,-0.02570598445,0.08738664943
2.15,-0.02014480923,0.08861608189
2.16,-0.01453086089,0.08949256778
2.17,-0.008886489047,0.09001435293
2.18,-0.003234052993,0.09018109559
2.19,0.002404167431,0.08999386057
2.2,0.008006060104,0.08945510758
2.21,0.01354976775,0.08856867426
2.22,0.01901377358,0.08733975359
2.23,0.02437698504,0.08577486611
2.24,0.02961881548,0.08388182699
2.25,0.03471926323,0.08166970798
2.26,0.039658988,0.07914879474
2.27,0.04441938416,0.07633053938
2.28,0.04898265059,0.07322750869
2.29,0.05333185708,0.06985332824
2.3,0.0574510067,0.06622262252
2.31,0.06132509424,0.06235095142
2.32,0.0649401602,0.05825474344
2.33,0.06828334044,0.05395122572
2.34,0.07134291108,0.04945835134
2.35,0.07410832862,0.04479472417
2.36,0.07657026513,0.03997952152
2.37,0.07872063838,0.03503241501
2.38,0.08055263685,0.02997348992
2.39,0.08206073951,0.02482316336
2.4,0.08324073037,0.01960210162
2.41,0.08408970776,0.01433113706
2.42,0.08460608829,0.009031184734
2.43,0.08478960559,0.00372315933
2.44,0.08464130385,-0.001572107507
2.45,0.08416352609,-0.006833948963
2.46,0.08335989751,-0.0120419437
2.47,0.08223530369,-0.01717599506
2.48,0.08079586405,-0.02221640845
2.49,0.0790489005,-0.02714396671
2.5,0.0770029016,-0.03194000312
2.51,0.07466748225,-0.03658647171
2.52,0.07205333919,-0.0410660148
2.53,0.06917220252,-0.04536202728
2.54,0.0660367834,-0.0494587176
2.55,0.06266071825,-0.05334116511
2.56,0.05905850954,-0.05699537362
2.57,0.05524546367,-0.06040832099
2.58,0.05123762593,-0.06356800454
2.59,0.04705171303,-0.06646348216
2.6,0.04270504339,-0.06908490896
2.61,0.03821546551,-0.07142356943
2.62,0.03360128464,-0.07347190483
2.63,0.0288811882,-0.07522353594
2.64,0.0240741701,-0.076673281
2.65,0.01919945439,-0.07781716878
2.66,0.01427641842,-0.07865244689
2.67,0.00932451598,-0.07917758511
2.68,0.004363200521,-0.07939227403
2.69,-0.0005881510354,-0.07929741881
2.7,-0.005510313756,-0.07889512824
2.71,-0.01038428905,-0.07818869913
2.72,-0.01519137767,-0.07718259615
2.73,-0.01991325106,-0.07588242718
2.74,-0.02453202078,-0.07429491441
2.75,-0.02903030578,-0.07242786116
2.76,-0.03339129723,-0.07029011474
2.77,-0.03759882073,-0.06789152544
2.78,-0.04163739552,-0.06524290185
2.79,-0.04549229076,-0.06235596271
2.8,-0.04914957836,-0.05924328557
2.81,-0.05259618238,-0.05591825231
2.82,-0.05581992482,-0.05239499196
2.83,-0.05880956752,-0.04868832097
2.84,-0.06155485017,-0.04481368111
2.85,-0.06404652424,-0.04078707538
2.86,-0.0662763827,-0.03662500217
2.87,-0.06823728555,-0.03234438787
2.88,-0.06992318094,-0.02796251825
2.89,-0.07132912197,-0.02349696893
2.9,-0.07245127905,-0.01896553511
2.91,-0.07328694778,-0.01438616099
2.92,-0.07383455247,-0.009776868973
2.93,-0.07409364517,-0.005155689088
2.94,-0.07406490036,-0.000540588849
2.95,-0.07375010527,0.004050596217
2.96,-0.07315214596,0.008600231047
2.97,-0.07227498922,0.0130909483
2.98,-0.07112366032,0.01750571414
2.99,-0.0697042169,0.02182789225
3,-0.06802371891,0.02604130595
3.01,-0.06609019491,0.03013029806
3.02,-0.06391260484,0.03407978836
3.03,-0.06150079936,0.03787532848
3.04,-0.05886547609,0.04150315391
3.05,-0.05601813272,0.04495023306
3.06,-0.05297101745,0.04820431315
3.07,-0.0497370768,0.05125396273
3.08,-0.046329901,0.05408861081
3.09,-0.04276366734,0.05669858233
3.1,-0.03905308154,0.05907512999
3.11,-0.0352133175,0.06121046222
3.12,-0.03125995563,0.06309776726
3.13,-0.02720891995,0.06473123336
3.14,-0.02307641439,0.06610606492
3.15,-0.01887885831,0.06721849455
3.16,-0.0146328217,0.06806579121
3.17,-0.01035496013,0.06864626413
3.18,-0.006061949885,0.06895926277
3.19,-0.001770423392,0.06900517279
3.2,0.002503094739,0.06878540791
3.21,0.006742250848,0.06830239802
3.22,0.01093092428,0.06755957328
3.23,0.01505328812,0.06656134462
3.24,0.01909386845,0.06531308043
3.25,0.02303760174,0.06382107978
3.26,0.02686989045,0.0620925423
3.27,0.03057665627,0.06013553458
3.28,0.03414439123,0.05795895366
3.29,0.03756020603,0.05557248743
3.3,0.04081187592,0.05298657226
3.31,0.0438878835,0.05021234805
3.32,0.04677745868,0.04726161085
3.33,0.04947061539,0.04414676321
3.34,0.05195818507,0.04088076262
3.35,0.05423184681,0.03747706806
3.36,0.056284154,0.033949585
3.37,0.05810855746,0.03031260902
3.38,0.05969942494,0.02658076834
3.39,0.06105205699,0.02276896541
3.4,0.0621626991,0.01889231779
3.41,0.06302855019,0.01496609866
3.42,0.0636477673,0.01100567709
3.43,0.0640194666,0.007026458277
3.44,0.06414372074,0.003043824129
3.45,0.06402155245,-0.0009269257752
3.46,0.06365492461,-0.004870632458
3.47,0.06304672673,-0.008772334925
3.48,0.06220075795,-0.01261732641
3.49,0.06112170671,-0.01639120929
3.5,0.05981512704,-0.02007994842
3.51,0.05828741174,-0.02366992276
3.52,0.05654576253,-0.0271479751
3.53,0.0545981572,-0.03050145963
3.54,0.05245331408,-0.03371828725
3.55,0.05012065384,-0.03678696847
3.56,0.04761025887,-0.03969665374
3.57,0.04493283035,-0.04243717099
3.58,0.04209964324,-0.04499906044
3.59,0.03912249937,-0.04737360633
3.6,0.03601367876,-0.04955286568
3.61,0.03278588948,-0.05152969385
3.62,0.02945221614,-0.05329776689
3.63,0.02602606732,-0.05485160057
3.64,0.022521122,-0.05618656609
3.65,0.01895127541,-0.05729890241
3.66,0.01533058432,-0.05818572513
3.67,0.01167321211,-0.05884503201
3.68,0.007993373734,-0.05927570497
3.69,0.004305280881,-0.05947750882
3.7,0.0006230874967,-0.05945108648
3.71,-0.003039164142,-0.05919795094
3.72,-0.00666759656,-0.05872047388
3.73,-0.01024854925,-0.05802187113
3.74,-0.01376862967,-0.05710618494
3.75,-0.01721476288,-0.05597826319
3.76,-0.02057423964,-0.05464373565
3.77,-0.02383476282,-0.0531089874
3.78,-0.02698449186,-0.05138112953
3.79,-0.03001208529,-0.04946796721
3.8,-0.032906741,-0.04737796534
3.81,-0.03565823415,-0.04512021186
3.82,-0.03825695271,-0.04270437891
3.83,-0.04069393035,-0.04014068202
3.84,-0.04296087665,-0.03743983745
3.85,-0.04505020456,-0.0346130179
3.86,-0.04695505491,-0.03167180674
3.87,-0.04866931804,-0.02862815098
3.88,-0.0501876524,-0.02549431314
3.89,-0.05150550001,-0.0222828222
3.9,-0.05261909893,-0.01900642386
3.91,-0.05352549248,-0.01567803031
3.92,-0.0542225354,-0.01231066966
3.93,-0.05470889678,-0.00891743523
3.94,-0.0549840599,-0.005511434993
3.95,-0.05504831893,-0.002105741219
3.96,-0.05490277249,0.001286659388
3.97,-0.05454931425,0.004652914899
3.98,-0.05399062048,0.007980356537
3.99,-0.05323013465,0.01125654603
4,-0.05227204926,0.01446932178
4.01,-0.05112128489,0.01760684364
4.02,-0.04978346649,0.02065763622
4.03,-0.04826489731,0.02361063044
4.04,-0.04657253018,0.02645520328
4.05,-0.04471393668,0.02918121558
4.06,-0.04269727397,0.03177904769
4.07,-0.04053124971,0.03423963291
4.08,-0.03822508505,0.0365544886
4.09,-0.03578847584,0.03871574478
4.1,-0.03323155237,0.04071617027
4.11,-0.03056483764,0.04254919614
4.12,-0.02779920441,0.04420893647
4.13,-0.02494583121,0.04569020637
4.14,-0.02201615742,0.04698853714
4.15,-0.01902183772,0.04810018865
4.16,-0.01597469595,0.04902215873
4.17,-0.01288667868,0.04975218976
4.18,-0.009769808538,0.05028877228
4.19,-0.006636137687,0.05063114575
4.2,-0.00349770138,0.05077929639
4.21,-0.0003664719635,0.05073395215
4.22,0.002745686591,0.05049657492
4.23,0.005827063422,0.0500693499
4.24,0.008866144622,0.04945517232
4.25,0.01185165603,0.04865763144
4.26,0.01477260479,0.04768099208
4.27,0.01761831957,0.04653017359
4.28,0.02037848924,0.04521072653
4.29,0.02304319994,0.043728807
4.3,0.02560297028,0.04209114885
4.31,0.02804878472,0.04030503391
4.32,0.03037212489,0.03837826017
4.33,0.03256499875,0.03631910839
4.34,0.03461996758,0.03413630692
4.35,0.03653017055,0.0318389951
4.36,0.03828934705,0.02943668539
4.37,0.03989185637,0.02693922421
4.38,0.04133269498,0.02435675189
4.39,0.04260751118,0.02169966168
4.4,0.04371261716,0.01897855813
4.41,0.04464499837,0.01620421495
4.42,0.04540232028,0.01338753247
4.43,0.04598293247,0.01053949497
4.44,0.04638586998,0.007671127992
4.45,0.04661085211,0.004793455752
4.46,0.04665827851,0.001917458919
4.47,0.04652922273,-0.0009459671578
4.48,0.04622542317,-0.003786053586
4.49,0.04574927159,-0.006592198272
4.5,0.04510379914,-0.009354005328
4.51,0.04429266003,-0.01206132339
4.52,0.04332011293,-0.01470428273
4.53,0.0421910002,-0.01727333095
4.54,0.04091072499,-0.01975926728
4.55,0.03948522634,-0.02215327513
4.56,0.03792095244,-0.0244469531
4.57,0.03622483208,-0.02663234394
4.58,0.03440424453,-0.02870196178
4.59,0.03246698783,-0.03064881716
4.6,0.03042124576,-0.03246644011
4.61,0.02827555358,-0.03414890092
4.62,0.02603876261,-0.03569082877
4.63,0.02372000396,-0.03708742795
4.64,0.02132865139,-0.03833449187
4.65,0.01887428355,-0.03942841458
4.66,0.01636664571,-0.04036619989
4.67,0.01381561121,-0.04114546818
4.68,0.01123114257,-0.04176446061
4.69,0.008623252758,-0.04222204103
4.7,0.006001966429,-0.04251769542
4.71,0.003377281474,-0.04265152895
4.72,0.0007591309866,-0.04262426065
4.73,-0.001842654221,-0.04243721581
4.74,-0.004418382406,-0.04209231604
4.75,-0.006958536849,-0.04159206712
4.76,-0.009453810837,-0.04093954478
4.77,-0.01189514155,-0.04013837828
4.78,-0.01427374273,-0.03919273203
4.79,-0.01658113601,-0.03810728539
4.8,-0.01880918081,-0.03688721048
4.81,-0.02095010266,-0.03553814844
4.82,-0.0229965199,-0.03406618397
4.83,-0.02494146858,-0.03247781846
4.84,-0.02677842567,-0.03077994163
4.85,-0.0285013302,-0.02897980204
4.86,-0.03010460259,-0.02708497638
4.87,-0.03158316187,-0.0251033378
4.88,-0.03293244087,-0.02304302333
4.89,-0.03414839929,-0.02091240066
4.9,-0.0352275346,-0.01872003418
4.91,-0.03616689084,-0.01647465067
4.92,-0.03696406516,-0.01418510463
4.93,-0.03761721224,-0.01186034342
4.94,-0.03812504647,-0.009509372362
4.95,-0.038486842,-0.007141219892
4.96,-0.03870243061,-0.004764903002
4.97,-0.03877219745,-0.002389392982
4.98,-0.03869707472,-2.358166934E-05
4.99,-0.03847853327,0.002323751697
5,-0.03811857221,0.004643972881
5.01,-0.03761970662,0.006928624205
5.02,-0.03698495336,0.009169455131
5.03,-0.03621781505,0.01135845177
5.04,-0.03532226241,0.01348786519
5.05,-0.03430271491,0.01555023848
5.06,-0.03316401991,0.01753843239
5.07,-0.03191143031,0.01944564954
5.08,-0.0305505809,0.02126545708
5.09,-0.02908746347,0.02299180773
5.1,-0.02752840076,0.02461905918
5.11,-0.02588001942,0.02614199166
5.12,-0.02414922201,0.02755582379
5.13,-0.02234315831,0.02885622662
5.14,-0.02046919589,0.03003933572
5.15,-0.01853489016,0.03110176142
5.16,-0.01654795397,0.03204059714
5.17,-0.01451622697,0.03285342575
5.18,-0.01244764472,0.03353832402
5.19,-0.01035020779,0.03409386517
5.2,-0.008231950911,0.0345191194
5.21,-0.006100912288,0.03481365262
5.22,-0.00396510324,0.03497752322
5.23,-0.001832478237,0.03501127705
5.24,0.0002890945306,0.03491594058
5.25,0.00239186196,0.03469301223
5.26,0.004468214093,0.03434445211
5.27,0.006510711345,0.03387266999
5.28,0.008512110795,0.03328051178
5.29,0.01046539145,0.03257124438
5.3,0.01236377839,0.03174853922
5.31,0.01420076576,0.03081645435
5.32,0.0159701384,0.02977941524
5.33,0.01766599226,0.02864219447
5.34,0.01928275332,0.02740989022
5.35,0.0208151951,0.02608790385
5.36,0.0222584546,0.02468191652
5.37,0.02360804679,0.023197865
5.38,0.02485987741,0.02164191682
5.39,0.02601025421,0.02002044478
5.4,0.0270558965,0.01834000098
5.41,0.02799394304,0.0166072905
5.42,0.02882195833,0.01482914469
5.43,0.02953793711,0.01301249444
5.44,0.03014030723,0.01116434322
5.45,0.03062793092,0.009291740274
5.46,0.03100010428,0.00740175387
5.47,0.03125655524,0.005501444839
5.48,0.03139743989,0.003597840408
5.49,0.03142333722,0.00169790849
5.5,0.03133524235,-0.0001914675189
5.51,0.03113455829,-0.002063513321
5.52,0.03082308623,-0.003911587603
5.53,0.03040301449,-0.005729205138
5.54,0.02987690611,-0.007510059032
5.55,0.02924768523,-0.00924804203
5.56,0.02851862225,-0.01093726683
5.57,0.02769331786,-0.01257208532
5.58,0.02677568608,-0.01414710669
5.59,0.02576993633,-0.01565721436
5.6,0.02468055453,-0.01709758172
5.61,0.02351228353,-0.0184636865
5.62,0.02227010273,-0.01975132395
5.63,0.02095920714,-0.02095661858
5.64,0.01958498583,-0.02207603457
5.65,0.01815299998,-0.02310638482
5.66,0.01666896056,-0.02404483853
5.67,0.01513870573,-0.02488892739
5.68,0.01356817805,-0.0256365504
5.69,0.0119634016,-0.02628597718
5.7,0.01033045907,-0.02683584995
5.71,0.008675468999,-0.02728518405
5.72,0.007004563073,-0.02763336716
5.73,0.005323863746,-0.02788015704
5.74,0.003639462151,-0.02802567805
5.75,0.001957396422,-0.02807041634
5.76,0.0002836304934,-0.02801521372
5.77,-0.00137596655,-0.02786126038
5.78,-0.003015640504,-0.02761008641
5.79,-0.004629771393,-0.02726355216
5.8,-0.006212892068,-0.02682383759
5.81,-0.007759706003,-0.02629343052
5.82,-0.009265104227,-0.02567511395
5.83,-0.01072418136,-0.02497195254
5.84,-0.01213225066,-0.02418727811
5.85,-0.01348485815,-0.02332467453
5.86,-0.01477779559,-0.02238796178
5.87,-0.01600711252,-0.02138117944
5.88,-0.01716912711,-0.02030856957
5.89,-0.01826043591,-0.01917455916
5.9,-0.01927792253,-0.01798374207
5.91,-0.02021876508,-0.01674086073
5.92,-0.02108044249,-0.01545078742
5.93,-0.02186073972,-0.01411850551
5.94,-0.02255775167,-0.0127490904
5.95,-0.02316988607,-0.01134769055
5.96,-0.02369586514,-0.009919508388
5.97,-0.02413472614,-0.008469781389
5.98,-0.02448582073,-0.007003763244
5.99,-0.02474881332,-0.00552670526
6,-0.02492367828,-0.004043838025
