"Freq [GHz]","re(S(Tx_p1,Tx_p1)) []","im(S(Tx_p1,Tx_p1)) []"
1,-0.064457692,0.03244451091
1.01,-0.06212325478,0.03595650729
1.02,-0.05959600137,0.03930607652
1.03,-0.05688729934,0.04248235665
1.04,-0.05400914416,0.04547531148
1.05,-0.05097409658,0.04827576664
1.06,-0.04779521809,0.0508754407
1.07,-0.0444860048,0.0532669714
1.08,-0.04106032017,0.05544393684
1.09,-0.037532327,0.0574008717
1.1,-0.0339164189,0.05913327842
1.11,-0.03022715177,0.06063763333
1.12,-0.02647917563,0.0619113879
1.13,-0.02268716704,0.06295296508
1.14,-0.01886576263,0.06376175086
1.15,-0.01502949389,0.06433808125
1.16,-0.01119272377,0.06468322475
1.17,-0.007369585141,0.06479936045
1.18,-0.003573921623,0.06468955214
1.19,0.0001807690542,0.06435771844
1.2,0.003881388885,0.06380859925
1.21,0.007515290369,0.0630477189
1.22,0.01107032403,0.06208134603
1.23,0.01453488247,0.06091645068
1.24,0.01789794086,0.05956065878
1.25,0.02114909357,0.05802220436
1.26,0.02427858702,0.05630987982
1.27,0.02727734847,0.05443298449
1.28,0.0301370108,0.05240127186
1.29,0.0328499332,0.05022489586
1.3,0.0354092177,0.04791435631
1.31,0.03780872165,0.04548044404
1.32,0.04004306603,0.04293418597
1.33,0.04210763981,0.0402867903
1.34,0.04399860027,0.03754959234
1.35,0.04571286947,0.03473400106
1.36,0.04724812702,0.03185144673
1.37,0.04860279912,0.02891333001
1.38,0.04977604423,0.02593097249
1.39,0.05076773543,0.02291556919
1.4,0.05157843959,0.01987814306
1.41,0.05220939373,0.01682950175
1.42,0.05266247864,0.01378019682
1.43,0.05294019006,0.01074048559
1.44,0.05304560759,0.007720295712
1.45,0.05298236165,0.004729192634
1.46,0.05275459869,0.00177635007
1.47,0.05236694496,-0.001129476485
1.48,0.05182446895,-0.003979973094
1.49,0.05113264304,-0.006767287539
1.5,0.05029730427,-0.009484046297
1.51,0.04932461484,-0.01212336831
1.52,0.04822102227,-0.0146788756
1.53,0.04699321974,-0.0171447007
1.54,0.04564810666,-0.01951549111
1.55,0.04419274984,-0.02178641064
1.56,0.04263434534,-0.02395313793
1.57,0.04098018141,-0.02601186219
1.58,0.03923760252,-0.02795927621
1.59,0.03741397478,-0.02979256695
1.6,0.03551665296,-0.03150940368
1.61,0.03355294911,-0.03310792402
1.62,0.03153010313,-0.03458671789
1.63,0.02945525526,-0.03594480967
1.64,0.02733542062,-0.03718163874
1.65,0.02517746604,-0.03829703858
1.66,0.02298808898,-0.03929121466
1.67,0.02077379891,-0.04016472128
1.68,0.0185409009,-0.04091843768
1.69,0.01629548167,-0.04155354351
1.7,0.01404339798,-0.04207149392
1.71,0.01179026728,-0.04247399454
1.72,0.009541460806,-0.0427629764
1.73,0.007302098872,-0.04294057113
1.74,0.005077048331,-0.04300908664
1.75,0.002870922212,-0.04297098324
1.76,0.0006880813318,-0.04282885075
1.77,-0.001467362158,-0.04258538632
1.78,-0.003591539454,-0.04224337355
1.79,-0.00568081812,-0.04180566265
1.8,-0.007731793601,-0.04127515209
1.81,-0.009741279381,-0.04065477165
1.82,-0.01170629594,-0.039947467
1.83,-0.01362405869,-0.03915618599
1.84,-0.01549196504,-0.03828386658
1.85,-0.0173075808,-0.03733342653
1.86,-0.01906862608,-0.0363077549
1.87,-0.02077296084,-0.03520970533
1.88,-0.02241857033,-0.03404209112
1.89,-0.02400355052,-0.03280768209
1.9,-0.02552609383,-0.03150920319
1.91,-0.02698447507,-0.03014933482
1.92,-0.02837703812,-0.02873071483
1.93,-0.02970218313,-0.027255942
1.94,-0.03095835468,-0.02572758107
1.95,-0.03214403087,-0.02414816912
1.96,-0.03325771351,-0.0225202232
1.97,-0.0342979196,-0.02084624913
1.98,-0.03526317407,-0.01912875128
1.99,-0.03615200399,-0.01737024316
2,-0.03696293427,-0.01557325881
2.01,-0.03769448494,-0.01374036468
2.02,-0.03834517003,-0.01187417188
2.03,-0.0389134981,-0.009977348683
2.04,-0.03939797446,-0.008052633079
2.05,-0.03979710507,-0.006102845181
2.06,-0.04010940203,-0.004130899359
2.07,-0.04033339084,-0.002139815909
2.08,-0.04046761909,-0.0001327320989
2.09,-0.04051066683,0.001887087579
2.1,-0.04046115831,0.003916242088
2.11,-0.04031777509,0.005951185632
2.12,-0.04007927053,0.007988220665
2.13,-0.03974448531,0.01002349227
2.14,-0.03931236404,0.01205298404
2.15,-0.03878197281,0.01407251552
2.16,-0.03815251747,0.01607774143
2.17,-0.03742336244,0.01806415258
2.18,-0.03659405008,0.0200270787
2.19,-0.03566432021,0.0219616932
2.2,-0.03463412982,0.02386301984
2.21,-0.03350367262,0.02572594147
2.22,-0.03227339834,0.02754521067
2.23,-0.0309440316,0.02931546251
2.24,-0.02951659005,0.03103122918
2.25,-0.02799240183,0.03268695666
2.26,-0.02637312186,0.03427702322
2.27,-0.02466074705,0.03579575978
2.28,-0.02285763012,0.03723747201
2.29,-0.02096649187,0.03859646408
2.3,-0.01899043178,0.03986706391
2.31,-0.0169329368,0.0410436499
2.32,-0.0147978881,0.04212067883
2.33,-0.01258956575,0.04309271498
2.34,-0.01031265117,0.04395446011
2.35,-0.007972227246,0.04470078426
2.36,-0.005573776011,0.04532675714
2.37,-0.003123173855,0.0458276799
2.38,-0.0006266841498,0.04619911708
2.39,0.00190905271,0.04643692863
2.4,0.004477031903,0.04653730159
2.41,0.007069899413,0.04649678143
2.42,0.009679969896,0.0463123027
2.43,0.01229924715,0.04598121877
2.44,0.01491944716,0.04550133057
2.45,0.01753202364,0.04487091396
2.46,0.02012819597,0.0440887456
2.47,0.02269897957,0.04315412711
2.48,0.02523521834,0.04206690732
2.49,0.02772761932,0.04082750238
2.5,0.03016678926,0.03943691363
2.51,0.03254327293,0.03789674295
2.52,0.03484759312,0.03620920551
2.53,0.037070292,0.03437713975
2.54,0.03920197377,0.03240401449
2.55,0.04123334828,0.03029393292
2.56,0.04315527543,0.02805163355
2.57,0.04495881022,0.02568248792
2.58,0.046635248,0.02319249505
2.59,0.04817616994,0.02058827245
2.6,0.04957348816,0.01787704396
2.61,0.05081949063,0.015066624
2.62,0.05190688522,0.01216539861
2.63,0.0528288429,0.009182303039
2.64,0.05357903973,0.006126796117
2.65,0.0541516974,0.00300883131
2.66,0.05454162208,-0.0001611753125
2.67,0.05474424128,-0.003372380185
2.68,0.05475563863,-0.00661355027
2.69,0.05457258612,-0.009873103857
2.7,0.05419257383,-0.013139154
2.71,0.05361383674,-0.01639955436
2.72,0.05283537856,-0.01964194738
2.73,0.05185699228,-0.02285381439
2.74,0.05067927742,-0.02602252764
2.75,0.04930365364,-0.02913540381
2.76,0.04773237078,-0.032179759
2.77,0.04596851502,-0.03514296462
2.78,0.04401601124,-0.03801250423
2.79,0.04187962135,-0.04077603085
2.8,0.03956493858,-0.04342142449
2.81,0.03707837784,-0.0459368497
2.82,0.03442716182,-0.04831081273
2.83,0.03161930314,-0.05053221808
2.84,0.02866358245,-0.05259042415
2.85,0.02556952246,-0.05447529758
2.86,0.02234735815,-0.05617726622
2.87,0.01900800303,-0.05768737013
2.88,0.01556301178,-0.05899731066
2.89,0.01202453925,-0.06009949705
2.9,0.008405296017,-0.0609870905
2.91,0.004718500761,-0.06165404529
2.92,0.0009778294708,-0.06209514688
2.93,-0.002802638133,-0.06230604652
2.94,-0.006608474825,-0.06228329248
2.95,-0.01042496449,-0.06202435738
2.96,-0.01423716285,-0.06152766164
2.97,-0.01802996005,-0.06079259283
2.98,-0.02178814483,-0.0598195208
2.99,-0.02549646992,-0.05860980837
3,-0.02913971849,-0.05716581765
3.01,-0.03270277115,-0.05549091172
3.02,-0.03617067337,-0.05358945178
3.03,-0.03952870289,-0.05146678964
3.04,-0.04276243683,-0.0491292555
3.05,-0.04585781811,-0.04658414117
3.06,-0.04880122099,-0.04383967867
3.07,-0.05157951523,-0.04090501421
3.08,-0.05418012874,-0.03779017779
3.09,-0.05659110821,-0.03450604843
3.1,-0.05880117755,-0.03106431508
3.11,-0.06079979379,-0.02747743354
3.12,-0.06257720016,-0.02375857943
3.13,-0.06412447609,-0.01992159743
3.14,-0.06543358375,-0.01598094697
3.15,-0.06649741114,-0.01195164476
3.16,-0.06730981116,-0.007849204093
3.17,-0.06786563673,-0.003689571561
3.18,-0.06816077163,0.0005109388458
3.19,-0.06819215685,0.004735713786
3.2,-0.06795781242,0.008967910523
3.21,-0.06745685446,0.01319052846
3.22,-0.06668950737,0.01738648192
3.23,-0.0656571112,0.02153867383
3.24,-0.06436212385,0.02563007004
3.25,-0.06280811838,0.02964377376
3.26,-0.06099977519,0.03356310001
3.27,-0.05894286913,0.0373716495
3.28,-0.05664425165,0.04105338173
3.29,-0.05411182795,0.04459268695
3.3,-0.05135452921,0.04797445659
3.31,-0.04838228009,0.05118415182
3.32,-0.04520596158,0.05420786998
3.33,-0.04183736926,0.05703240853
3.34,-0.03828916733,0.05964532613
3.35,-0.03457483845,0.06203500069
3.36,-0.03070862962,0.06419068399
3.37,-0.02670549445,0.06610255268
3.38,-0.0225810319,0.06776175537
3.39,-0.01835142196,0.06916045556
3.4,-0.0140333583,0.07029187022
3.41,-0.009643978468,0.07115030389
3.42,-0.005200791767,0.07173117797
3.43,-0.0007216051538,0.07203105517
3.44,0.003775552423,0.07204765898
3.45,0.008272506978,0.07177988803
3.46,0.01275101735,0.07122782522
3.47,0.01719285364,0.07039274165
3.48,0.02157987584,0.06927709526
3.49,0.02589411229,0.06788452418
3.5,0.03011783765,0.06621983482
3.51,0.03423364997,0.06428898472
3.52,0.03822454655,0.06209906026
3.53,0.04207399817,0.0596582493
3.54,0.04576602148,0.05697580884
3.55,0.04928524904,0.05406202795
3.56,0.05261699685,0.05092818592
3.57,0.05574732894,0.04758650607
3.58,0.05866311878,0.04405010524
3.59,0.06135210727,0.04033293921
3.6,0.06380295686,0.03644974441
3.61,0.06600530183,0.03241597602
3.62,0.06794979421,0.02824774285
3.63,0.06962814537,0.02396173928
3.64,0.07103316289,0.01957517449
3.65,0.07215878271,0.01510569943
3.66,0.0730000963,0.01057133172
3.67,0.07355337274,0.00599037891
3.68,0.07381607567,0.00138136045
3.69,0.07378687497,-0.003237071341
3.7,0.07346565318,-0.007846210895
3.71,0.07285350652,-0.01242737926
3.72,0.07195274065,-0.01696200387
3.73,0.0707668611,-0.02143169779
3.74,0.06930055844,-0.02581833822
3.75,0.06755968827,-0.03010414371
3.76,0.0655512461,-0.03427174991
3.77,0.06328333726,-0.03830428348
3.78,0.06076514199,-0.04218543367
3.79,0.05800687585,-0.04589952157
3.8,0.05501974563,-0.04943156634
3.81,0.05181590098,-0.05276734848
3.82,0.048408382,-0.0558934696
3.83,0.044811063,-0.05879740858
3.84,0.04103859268,-0.06146757382
3.85,0.03710633106,-0.06389335131
3.86,0.03303028342,-0.06606514847
3.87,0.02882703148,-0.06797443333
3.88,0.0245136623,-0.06961376913
3.89,0.02010769502,-0.07097684405
3.9,0.01562700596,-0.07205849599
3.91,0.01108975231,-0.07285473227
3.92,0.006514294739,-0.07336274425
3.93,0.001919119343,-0.07358091678
3.94,-0.002677240728,-0.0735088324
3.95,-0.007256283687,-0.07314727039
3.96,-0.01179961714,-0.07249820061
3.97,-0.01628903543,-0.07156477218
3.98,-0.02070659595,-0.07035129716
3.99,-0.02503469403,-0.0688632292
4,-0.02925613619,-0.06710713732
4.01,-0.03335421135,-0.06509067498
4.02,-0.03731275966,-0.06282254454
4.03,-0.04111623878,-0.06031245741
4.04,-0.0447497872,-0.05757108986
4.05,-0.04819928441,-0.05461003496
4.06,-0.05145140765,-0.05144175068
4.07,-0.05449368497,-0.0480795045
4.08,-0.05731454442,-0.04453731477
4.09,-0.05990335916,-0.0408298891
4.1,-0.06225048835,-0.03697255999
4.11,-0.06434731355,-0.03298121816
4.12,-0.0661862706,-0.0288722437
4.13,-0.06776087688,-0.02466243551
4.14,-0.06906575366,-0.0203689392
4.15,-0.07009664377,-0.01600917397
4.16,-0.07085042429,-0.01160075857
4.17,-0.0713251143,-0.007161436834
4.18,-0.07151987775,-0.002709003109
4.19,-0.07143502143,0.001738772214
4.2,-0.07107198801,0.006164216608
4.21,-0.07043334428,0.0105498285
4.22,-0.06952276471,0.01487834924
4.23,-0.06834501035,0.01913283357
4.24,-0.06690590314,0.02329671839
4.25,-0.06521229602,0.02735388944
4.26,-0.06327203867,0.03128874574
4.27,-0.06109393934,0.0350862613
4.28,-0.05868772273,0.03873204419
4.29,-0.05606398439,0.04221239233
4.3,-0.05323414155,0.04551434614
4.31,-0.05021038097,0.0486257376
4.32,-0.04700560369,0.05153523567
4.33,-0.04363336732,0.05423238781
4.34,-0.0401078258,0.05670765747
4.35,-0.03644366713,0.05895245754
4.36,-0.03265604931,0.06095917938
4.37,-0.02876053472,0.06272121764
4.38,-0.0247730233,0.06423299056
4.39,-0.02070968481,0.06548995589
4.4,-0.01658689045,0.06648862215
4.41,-0.01242114421,0.06722655554
4.42,-0.008229014168,0.06770238223
4.43,-0.004027064072,0.06791578618
4.44,0.0001682144949,0.06786750257
4.45,0.004340469084,0.06755930681
4.46,0.008473552208,0.06699399931
4.47,0.01255158575,0.06617538603
4.48,0.01655902367,0.06510825506
4.49,0.02048071282,0.06379834917
4.5,0.02430195151,0.0622523347
4.51,0.02800854569,0.06047776681
4.52,0.03158686252,0.05848305135
4.53,0.03502388105,0.05627740351
4.54,0.03830723993,0.05387080348
4.55,0.04142528185,0.05127394933
4.56,0.04436709469,0.04849820739
4.57,0.04712254908,0.0455555602
4.58,0.04968233245,0.0424585526
4.59,0.05203797921,0.03922023582
4.6,0.05418189721,0.03585411016
4.61,0.05610739024,0.03237406633
4.62,0.05780867663,0.02879432579
4.63,0.0592809038,0.02512938033
4.64,0.06052015891,0.02139393119
4.65,0.06152347535,0.01760282791
4.66,0.06228883544,0.01377100733
4.67,0.06281516901,0.009913432757
4.68,0.06310234817,0.006045033831
4.69,0.06315117828,0.002180647106
4.7,0.06296338509,-0.001665042264
4.71,0.0625415983,-0.005477557568
4.72,0.0618893316,-0.009242686052
4.73,0.06101095928,-0.01294653271
4.74,0.05991168962,-0.01657557213
4.75,0.05859753515,-0.02011669821
4.76,0.05707527997,-0.02355727152
4.77,0.05535244441,-0.02688516426
4.78,0.05343724697,-0.03008880246
4.79,0.05133856401,-0.03315720549
4.8,0.04906588722,-0.03608002261
4.81,0.04662927915,-0.03884756646
4.82,0.04403932693,-0.04145084351
4.83,0.0413070946,-0.04388158118
4.84,0.03844407398,-0.04613225176
4.85,0.03546213456,-0.04819609299
4.86,0.03237347253,-0.05006712522
4.87,0.02919055916,-0.0517401652
4.88,0.02592608881,-0.05321083651
4.89,0.0225929267,-0.05447557653
4.9,0.01920405684,-0.05553164003
4.91,0.01577253012,-0.05637709954
4.92,0.01231141295,-0.05701084229
4.93,0.0088337365,-0.05743256404
4.94,0.005352446947,-0.05764275969
4.95,0.001880356676,-0.05764271094
4.96,-0.001569903178,-0.05743447085
4.97,-0.004985928777,-0.05702084572
4.98,-0.008355588016,-0.05640537418
4.99,-0.0116670632,-0.05559230367
5,-0.01490889178,-0.05458656454
5.01,-0.01807000514,-0.05339374185
5.02,-0.02113976504,-0.05202004501
5.03,-0.024107998,-0.05047227546
5.04,-0.02696502707,-0.04875779256
5.05,-0.02970170135,-0.04688447786
5.06,-0.0323094228,-0.04486069789
5.07,-0.03478017051,-0.04269526568
5.08,-0.03710652231,-0.04039740123
5.09,-0.03928167371,-0.03797669103
5.1,-0.04129945403,-0.03544304688
5.11,-0.04315433992,-0.03280666415
5.12,-0.04484146603,-0.03007797967
5.13,-0.04635663302,-0.02726762948
5.14,-0.04769631287,-0.02438640653
5.15,-0.04885765148,-0.02144521853
5.16,-0.0498384687,-0.0184550462
5.17,-0.05063725576,-0.01542690192
5.18,-0.05125317017,-0.0123717891
5.19,-0.05168602827,-0.009300662284
5.2,-0.05193629534,-0.006224388274
5.21,-0.05200507354,-0.003153708236
5.22,-0.05189408758,-9.920106749E-05
5.23,-0.0516056685,0.002928751931
5.24,-0.05114273533,0.005920000961
5.25,-0.05050877503,0.008864660086
5.26,-0.04970782075,0.01175313798
5.27,-0.04874442839,0.01457616697
5.28,-0.04762365186,0.01732483028
5.29,-0.04635101689,0.01999058743
5.3,-0.04493249376,0.02256529778
5.31,-0.04337446894,0.02504124209
5.32,-0.04168371581,0.02741114208
5.33,-0.0398673646,0.02966817803
5.34,-0.03793287177,0.03180600438
5.35,-0.03588798874,0.03381876319
5.36,-0.03374073041,0.03570109572
5.37,-0.03149934331,0.03744815185
5.38,-0.02917227372,0.03905559763
5.39,-0.02676813573,0.04051962075
5.4,-0.02429567949,0.04183693412
5.41,-0.0217637597,0.04300477757
5.42,-0.01918130437,0.04402091762
5.43,-0.01655728418,0.04488364556
5.44,-0.01390068228,0.04559177368
5.45,-0.0112204648,0.04614462991
5.46,-0.008525552115,0.04654205077
5.47,-0.005824790899,0.0467843729
5.48,-0.003126927113,0.04687242301
5.49,-0.0004405799444,0.04680750652
5.5,0.002225783209,0.04659139494
5.51,0.004863870671,0.04622631195
5.52,0.007465589272,0.04571491843
5.53,0.01002306596,0.04506029644
5.54,0.01252866819,0.04426593225
5.55,0.01497502304,0.04333569851
5.56,0.01735503513,0.04227383568
5.57,0.01966190314,0.04108493275
5.58,0.02188913513,0.03977390739
5.59,0.02403056246,0.03834598557
5.6,0.02608035251,0.03680668083
5.61,0.02803301999,0.03516177308
5.62,0.02988343704,0.03341728728
5.63,0.03162684199,0.03157947186
5.64,0.03325884688,0.02965477701
5.65,0.03477544381,0.02764983301
5.66,0.03617300995,0.02557142849
5.67,0.03744831147,0.02342648887
5.68,0.03859850629,0.02122205486
5.69,0.03962114573,0.01896526127
5.7,0.04051417504,0.01666331595
5.71,0.04127593294,0.01432347914
5.72,0.04190515015,0.01195304312
5.73,0.04240094698,0.009559312258
5.74,0.04276282994,0.007149583461
5.75,0.04299068756,0.004731127116
5.76,0.04308478538,0.002311168495
5.77,0.04304576007,-0.0001031303283
5.78,0.04287461292,-0.002504688024
5.79,0.04257270258,-0.004886521009
5.8,0.0421417371,-0.007241759879
5.81,0.04158376547,-0.009563665265
5.82,0.04090116843,-0.0118456431
5.83,0.0400966489,-0.0140812593
5.84,0.03917322178,-0.01626425383
5.85,0.03813420334,-0.01838855417
5.86,0.03698320018,-0.0204482882
5.87,0.03572409772,-0.02243779644
5.88,0.03436104843,-0.0243516437
5.89,0.03289845956,-0.02618463018
5.9,0.0313409807,-0.02793180188
5.91,0.02969349092,-0.02958846049
5.92,0.02796108568,-0.03115017264
5.93,0.02614906351,-0.03261277864
5.94,0.02426291235,-0.03397240051
5.95,0.02230829581,-0.03522544956
5.96,0.02029103909,-0.03636863334
5.97,0.01821711477,-0.03739896198
5.98,0.01609262843,-0.03831375404
5.99,0.01392380404,-0.03911064171
6,0.01171696925,-0.03978757551
