"Freq [GHz]","re(S(Tx_p1,Tx_p1)) []","im(S(Tx_p1,Tx_p1)) []"
1,-0.06462934921,0.03958594861
1.01,-0.06205429419,0.04343723003
1.02,-0.05924462521,0.04712487462
1.03,-0.0562107579,0.05063411694
1.04,-0.05296406406,0.05395087525
1.05,-0.04951682462,0.05706181398
1.06,-0.04588217873,0.05995440288
1.07,-0.04207406893,0.06261697255
1.08,-0.03810718288,0.06503876625
1.09,-0.03399689177,0.06720998757
1.1,-0.02975918572,0.06912184392
1.11,-0.02541060651,0.07076658559
1.12,-0.02096817787,0.07213754023
1.13,-0.01644933374,0.07322914261
1.14,-0.01187184471,0.07403695949
1.15,-0.007253743021,0.07455770961
1.16,-0.002613246509,0.0747892786
1.17,0.002031318284,0.07473072884
1.18,0.006661593393,0.07438230422
1.19,0.01125926681,0.0737454297
1.2,0.01580614963,0.0728227059
1.21,0.02028425258,0.07161789847
1.22,0.02467586168,0.0701359225
1.23,0.0289636126,0.06838282204
1.24,0.03313056348,0.06636574472
1.25,0.03716026587,0.06409291161
1.26,0.04103683345,0.06157358266
1.27,0.0447450083,0.05881801751
1.28,0.04827022439,0.05583743229
1.29,0.05159866802,0.05264395217
1.3,0.05471733501,0.04925056025
1.31,0.05761408431,0.04567104278
1.32,0.06027768789,0.04191993103
1.33,0.06269787663,0.0380124401
1.34,0.06486538214,0.03396440492
1.35,0.06677197414,0.02979221368
1.36,0.06841049348,0.02551273908
1.37,0.06977488051,0.02114326757
1.38,0.07086019871,0.01670142703
1.39,0.07166265359,0.01220511313
1.4,0.07217960664,0.007672414669
1.41,0.07240958445,0.003121538251
1.42,0.07235228282,-0.001429267337
1.43,0.07200856595,-0.00596178681
1.44,0.0713804607,-0.01045791374
1.45,0.070471146,-0.01489972528
1.46,0.06928493736,-0.01926955596
1.47,0.06782726669,-0.0235500702
1.48,0.06610465745,-0.02772433326
1.49,0.06412469531,-0.03177588035
1.5,0.06189599435,-0.03568878355
1.51,0.0594281591,-0.03944771634
1.52,0.05673174252,-0.04303801541
1.53,0.05381820008,-0.04644573952
1.54,0.05069984022,-0.04965772514
1.55,0.04738977138,-0.05266163879
1.56,0.04390184583,-0.05544602556
1.57,0.04025060053,-0.05800035402
1.58,0.03645119539,-0.06031505695
1.59,0.03251934901,-0.06238156806
1.6,0.02847127236,-0.06419235432
1.61,0.0243236006,-0.06574094389
1.62,0.02009332338,-0.0670219496
1.63,0.01579771381,-0.06803108775
1.64,0.01145425658,-0.06876519227
1.65,0.007080575398,-0.0692222242
1.66,0.002694360122,-0.06940127643
1.67,-0.00168670617,-0.06930257371
1.68,-0.006045019775,-0.06892746796
1.69,-0.01036312839,-0.06827842892
1.7,-0.01462380224,-0.06735903017
1.71,-0.01881010404,-0.06617393061
1.72,-0.02290545742,-0.06472885155
1.73,-0.02689371369,-0.06303054944
1.74,-0.03075921648,-0.06108678442
1.75,-0.03448686414,-0.05890628483
1.76,-0.03806216961,-0.05649870786
1.77,-0.04147131744,-0.05387459648
1.78,-0.04470121791,-0.05104533293
1.79,-0.04773955778,-0.04802308883
1.8,-0.05057484778,-0.04482077235
1.81,-0.0531964664,-0.04145197248
1.82,-0.05559469989,-0.03793090067
1.83,-0.05776077847,-0.03427233028
1.84,-0.05968690832,-0.03049153385
1.85,-0.06136629953,-0.02660421861
1.86,-0.06279318975,-0.02262646049
1.87,-0.06396286348,-0.01857463691
1.88,-0.06487166698,-0.01446535855
1.89,-0.06551701873,-0.01031540056
1.9,-0.0658974154,-0.006141633318
1.91,-0.06601243346,-0.001960953132
1.92,-0.06586272618,0.002209786824
1.93,-0.0654500163,0.006353845119
1.94,-0.0647770844,0.01045465988
1.95,-0.06384775279,0.01449591558
1.96,-0.06266686541,0.01846160844
1.97,-0.06124026344,0.02233611035
1.98,-0.05957475704,0.02610423083
1.99,-0.05767809325,0.02975127697
2,-0.05555892009,0.03326311106
2.01,-0.05322674726,0.03662620558
2.02,-0.05069190345,0.03982769552
2.03,-0.04796549044,0.04285542767
2.04,-0.04505933437,0.04569800676
2.05,-0.04198593419,0.04834483826
2.06,-0.03875840765,0.05078616778
2.07,-0.03539043499,0.05301311666
2.08,-0.03189620066,0.05501771399
2.09,-0.02829033324,0.0567929246
2.1,-0.02458784383,0.0583326732
2.11,-0.02080406321,0.0596318644
2.12,-0.01695457803,0.06068639863
2.13,-0.0130551662,0.06149318397
2.14,-0.009121731947,0.06205014372
2.15,-0.0051702406,0.06235621987
2.16,-0.001216653491,0.06241137229
2.17,0.002723136784,0.0622165739
2.18,0.006633370496,0.06177380165
2.19,0.01049848403,0.06108602343
2.2,0.01430317202,0.06015718108
2.21,0.01803244806,0.05899216952
2.22,0.02167170386,0.05759681201
2.23,0.02520676649,0.05597783189
2.24,0.02862395358,0.05414282072
2.25,0.03191012624,0.05210020307
2.26,0.03505273941,0.04985919813
2.27,0.03803988965,0.0474297783
2.28,0.04086035995,0.04482262492
2.29,0.04350366159,0.04204908134
2.3,0.04596007271,0.0391211036
2.31,0.04822067371,0.03605120885
2.32,0.05027737904,0.0328524218
2.33,0.05212296555,0.0295382194
2.34,0.05375109709,0.02612247393
2.35,0.05515634548,0.02261939491
2.36,0.05633420756,0.01904346983
2.37,0.05728111852,0.0154094042
2.38,0.05799446121,0.01173206096
2.39,0.05847257175,0.008026399634
2.4,0.05871474101,0.004307415403
2.41,0.05872121242,0.0005900784098
2.42,0.05849317583,-0.003110726538
2.43,0.05803275759,-0.006780259559
2.44,0.05734300689,-0.01040398437
2.45,0.05642787845,-0.01396762582
2.46,0.05529221168,-0.01745722603
2.47,0.05394170627,-0.02085919891
2.48,0.05238289459,-0.02416038294
2.49,0.05062311075,-0.02734809185
2.5,0.04867045666,-0.03041016313
2.51,0.04653376515,-0.03333500419
2.52,0.04422256038,-0.03611163586
2.53,0.04174701566,-0.03872973325
2.54,0.03911790888,-0.04117966368
2.55,0.03634657577,-0.04345252166
2.56,0.03344486116,-0.04554016064
2.57,0.0304250685,-0.04743522163
2.58,0.02729990777,-0.04913115838
2.59,0.02408244206,-0.05062225919
2.6,0.02078603308,-0.05190366521
2.61,0.01742428573,-0.0529713852
2.62,0.01401099197,-0.05382230672
2.63,0.01056007441,-0.05445420368
2.64,0.007085529512,-0.05486574029
2.65,0.00360137095,-0.05505647143
2.66,0.000121573188,-0.05502683938
2.67,-0.003339984463,-0.054778167
2.68,-0.006769573071,-0.05431264747
2.69,-0.01015366838,-0.05363333047
2.7,-0.01347900398,-0.0527441051
2.71,-0.01673262312,-0.05164967946
2.72,-0.01990192897,-0.05035555704
2.73,-0.02297473313,-0.04886801013
2.74,-0.02593930227,-0.04719405017
2.75,-0.02878440259,-0.04534139541
2.76,-0.03149934203,-0.04331843585
2.77,-0.03407401013,-0.04113419568
2.78,-0.03649891517,-0.03879829347
2.79,-0.03876521877,-0.03632090007
2.8,-0.04086476751,-0.03371269466
2.81,-0.04279012173,-0.03098481895
2.82,-0.0445345812,-0.0281488298
2.83,-0.04609220773,-0.02521665047
2.84,-0.04745784456,-0.02220052062
2.85,-0.04862713245,-0.01911294547
2.86,-0.04959652259,-0.015966644
2.87,-0.05036328603,-0.01277449679
2.88,-0.05092551985,-0.009549493391
2.89,-0.05128214997,-0.006304679594
2.9,-0.0514329306,-0.003053104839
2.91,-0.05137844033,0.000192230137
2.92,-0.051120075,0.003418425122
2.93,-0.05066003727,0.006612731538
2.94,-0.05000132305,0.009762602646
2.95,-0.04914770479,0.01285574263
2.96,-0.04810371181,0.01588015439
2.97,-0.04687460763,0.01882418585
2.98,-0.04546636455,0.02167657458
2.99,-0.04388563548,0.02442649064
3,-0.04213972328,0.02706357736
3.01,-0.0402365476,0.02957799005
3.02,-0.03818460946,0.03196043235
3.03,-0.03599295379,0.03420219022
3.04,-0.03367112984,0.03629516333
3.05,-0.03122914999,0.03823189387
3.06,-0.02867744682,0.04000559252
3.07,-0.02602682883,0.04161016167
3.08,-0.02328843483,0.04304021563
3.09,-0.0204736874,0.04429109794
3.1,-0.01759424536,0.04535889558
3.11,-0.01466195571,0.04624045018
3.12,-0.01168880499,0.04693336606
3.13,-0.008686870457,0.04743601518
3.14,-0.00566827116,0.04774753906
3.15,-0.002645119144,0.04786784741
3.16,0.0003705290067,0.04779761393
3.17,0.003366720113,0.04753826881
3.18,0.006331651635,0.04709198848
3.19,0.009253718013,0.04646168223
3.2,0.01212155593,0.04565097607
3.21,0.01492408833,0.04466419382
3.22,0.01765056699,0.04350633545
3.23,0.02029061356,0.04218305287
3.24,0.02283425881,0.0407006233
3.25,0.02527197999,0.03906592019
3.26,0.02759473623,0.03728638199
3.27,0.02979400173,0.03536997888
3.28,0.03186179664,0.03332517748
3.29,0.03379071565,0.03116090384
3.3,0.03557395401,0.0288865048
3.31,0.03720533102,0.02651170797
3.32,0.03867931082,0.02404658025
3.33,0.03999102052,0.0215014855
3.34,0.04113626547,0.01888704104
3.35,0.04211154181,0.01621407357
3.36,0.04291404606,0.01349357449
3.37,0.04354168188,0.01073665475
3.38,0.04399306399,0.007954499664
3.39,0.04426751911,0.005158323578
3.4,0.04436508408,0.002359324781
3.41,0.04428650118,-0.0004313592559
3.42,0.04403321054,-0.003202696094
3.43,0.0436073399,-0.005943801849
3.44,0.0430116916,-0.008643983823
3.45,0.04224972694,-0.0112927821
3.46,0.04132554806,-0.01388000992
3.47,0.04024387725,-0.01639579272
3.48,0.039010034,-0.01883060564
3.49,0.03762990975,-0.02117530937
3.5,0.0361099405,-0.02342118423
3.51,0.03445707741,-0.02555996234
3.52,0.03267875554,-0.02758385774
3.53,0.03078286083,-0.02948559438
3.54,0.0287776955,-0.03125843186
3.55,0.02667194198,-0.03289618887
3.56,0.02447462554,-0.03439326419
3.57,0.02219507589,-0.03574465523
3.58,0.01984288762,-0.03694597405
3.59,0.01742788005,-0.03799346073
3.6,0.01496005631,-0.03888399422
3.61,0.01244956198,-0.03961510045
3.62,0.009906643495,-0.04018495784
3.63,0.007341606332,-0.04059240011
3.64,0.004764773347,-0.04083691643
3.65,0.002186443255,-0.04091864896
3.66,-0.0003831504768,-0.04083838771
3.67,-0.002933880188,-0.04059756293
3.68,-0.005455763887,-0.04019823484
3.69,-0.007939004236,-0.03964308098
3.7,-0.01037402652,-0.03893538117
3.71,-0.01275151548,-0.03807900005
3.72,-0.01506245077,-0.0370783675
3.73,-0.01729814106,-0.03593845686
3.74,-0.01945025651,-0.03466476109
3.75,-0.02151085957,-0.03326326706
3.76,-0.02347243399,-0.031740428
3.77,-0.02532791192,-0.03010313424
3.78,-0.02707069896,-0.02835868249
3.79,-0.02869469718,-0.02651474357
3.8,-0.03019432597,-0.02457932899
3.81,-0.03156454055,-0.02256075632
3.82,-0.03280084833,-0.02046761358
3.83,-0.0338993228,-0.01830872289
3.84,-0.03485661512,-0.01609310329
3.85,-0.03566996318,-0.01382993321
3.86,-0.03633719837,-0.01152851243
3.87,-0.03685674979,-0.009198223936
3.88,-0.03722764603,-0.00684849568
3.89,-0.03744951459,-0.004488762452
3.9,-0.0375225788,-0.002128428024
3.91,-0.03744765239,0.0002231723011
3.92,-0.03722613173,0.002556808572
3.93,-0.03685998577,0.004863392366
3.94,-0.03635174372,0.007134012116
3.95,-0.03570448061,0.009359967445
3.96,-0.0349218007,0.01153280238
3.97,-0.03400781895,0.01364433733
3.98,-0.0329671405,0.01568669969
3.99,-0.0318048384,0.01765235293
4,-0.03052642958,0.01953412417
4.01,-0.02913784923,0.02132523002
4.02,-0.02764542373,0.02301930059
4.03,-0.02605584215,0.02461040175
4.04,-0.02437612656,0.02609305538
4.05,-0.02261360127,0.0274622576
4.06,-0.020775861,0.02871349496
4.07,-0.01887073835,0.02984275855
4.08,-0.01690627043,0.0308465559
4.09,-0.01489066507,0.0317219207
4.1,-0.01283226656,0.03246642038
4.11,-0.01073952112,0.03307816136
4.12,-0.008620942283,0.03355579222
4.13,-0.006485076255,0.0338985045
4.14,-0.00434046748,0.03410603144
4.15,-0.002195624477,0.03417864443
4.16,-5.898613015E-05,0.03411714744
4.17,0.002061111461,0.03392286919
4.18,0.004156467422,0.03359765342
4.19,0.006219047715,0.0331438471
4.2,0.008241015808,0.03256428669
4.21,0.01021476227,0.03186228258
4.22,0.01213293319,0.03104160175
4.23,0.01398845733,0.03010644877
4.24,0.01577457185,0.0290614451
4.25,0.0174848466,0.02791160705
4.26,0.01911320687,0.02666232218
4.27,0.02065395443,0.02531932459
4.28,0.02210178691,0.02388866888
4.29,0.0234518154,0.02237670313
4.3,0.02469958024,0.02079004099
4.31,0.02584106488,0.01913553284
4.32,0.02687270789,0.0174202364
4.33,0.02779141294,0.01565138665
4.34,0.02859455696,0.01383636543
4.35,0.02927999611,0.01198267063
4.36,0.02984606998,0.01009788534
4.37,0.03029160364,0.008189646775
4.38,0.03061590778,0.006265615463
4.39,0.03081877692,0.004333444497
4.4,0.03090048566,0.002400749188
4.41,0.03086178302,0.0004750771394
4.42,0.03070388495,-0.001436121106
4.43,0.03042846505,-0.003325520742
4.44,0.03003764351,-0.005185950588
4.45,0.02953397441,-0.007010420082
4.46,0.02892043133,-0.008792145276
4.47,0.02820039151,-0.01052457374
4.48,0.02737761849,-0.01220140831
4.49,0.02645624339,-0.01381662952
4.5,0.0254407449,-0.01536451672
4.51,0.0243359281,-0.01683966781
4.52,0.02314690221,-0.01823701745
4.53,0.02187905725,-0.01955185373
4.54,0.02053803996,-0.02077983328
4.55,0.01912972882,-0.02191699472
4.56,0.0176602085,-0.02295977048
4.57,0.01613574368,-0.02390499684
4.58,0.01456275248,-0.02474992235
4.59,0.01294777953,-0.02549221443
4.6,0.01129746886,-0.02612996425
4.61,0.009618536618,-0.02666168992
4.62,0.007917743872,-0.0270863378
4.63,0.00620186948,-0.02740328225
4.64,0.004477683207,-0.02761232359
4.65,0.002751919166,-0.02771368435
4.66,0.001031249695,-0.02770800399
4.67,-0.0006777402217,-0.02759633188
4.68,-0.002368577909,-0.02738011887
4.69,-0.004034927223,-0.02706120721
4.7,-0.005670611954,-0.02664181916
4.71,-0.007269638337,-0.02612454414
4.72,-0.008826216573,-0.02551232456
4.73,-0.0103347813,-0.02480844047
4.74,-0.01179001091,-0.024016493
4.75,-0.01318684575,-0.02314038674
4.76,-0.01452050498,-0.02218431109
4.77,-0.01578650217,-0.02115272074
4.78,-0.01698065957,-0.02005031533
4.79,-0.01809912098,-0.01888201831
4.8,-0.01913836313,-0.01765295526
4.81,-0.02009520575,-0.01636843161
4.82,-0.02096681999,-0.01503390992
4.83,-0.02175073552,-0.01365498687
4.84,-0.02244484598,-0.0122373699
4.85,-0.02304741306,-0.01078685377
4.86,-0.02355706899,-0.009309297058
4.87,-0.02397281757,-0.007810598667
4.88,-0.02429403377,-0.006296674474
4.89,-0.02452046177,-0.004773434205
4.9,-0.02465221169,-0.003246758617
4.91,-0.02468975487,-0.001722477079
4.92,-0.02463391778,-0.0002063456381
4.93,-0.02448587464,0.001295974356
4.94,-0.02424713877,0.002778936982
4.95,-0.02391955274,0.004237131766
4.96,-0.02350527729,0.005665302913
4.97,-0.02300677927,0.007058367691
4.98,-0.0224268184,0.008411433902
4.99,-0.02176843319,0.009719816388
5,-0.02103492584,0.01097905251
5.01,-0.02022984644,0.01218491658
5.02,-0.01935697628,0.01333343313
5.03,-0.0184203106,0.01442088913
5.04,-0.01742404063,0.01544384493
5.05,-0.01637253521,0.01639914405
5.06,-0.01527032191,0.01728392173
5.07,-0.01412206775,0.01809561226
5.08,-0.01293255978,0.01883195501
5.09,-0.01170668527,0.01949099926
5.1,-0.01044941196,0.02007110773
5.11,-0.009165768124,0.02057095886
5.12,-0.007860822783,0.02098954787
5.13,-0.006539665955,0.02132618656
5.14,-0.005207389136,0.02158050192
5.15,-0.003869066034,0.02175243353
5.16,-0.00252973363,0.02184222983
5.17,-0.001194373657,0.02185044325
5.18,0.0001321054723,0.02177792421
5.19,0.001444886185,0.02162581415
5.2,0.002739258694,0.02139553745
5.21,0.004010637285,0.02108879249
5.22,0.005254575906,0.0207075417
5.23,0.006466783011,0.02025400082
5.24,0.007643135603,0.01973062733
5.25,0.008779692439,0.01914010811
5.26,0.009872706367,0.01848534647
5.27,0.01091863575,0.01776944846
5.28,0.01191415494,0.01699570869
5.29,0.01285616383,0.01616759562
5.3,0.01374179637,0.0152887364
5.31,0.01456842811,0.01436290135
5.32,0.01533368274,0.01339398812
5.33,0.01603543757,0.01238600561
5.34,0.01667182804,0.01134305771
5.35,0.01724125113,0.01026932691
5.36,0.01774236782,0.0091690579
5.37,0.01817410451,0.008046541114
5.38,0.01853565337,0.006906096408
5.39,0.01882647185,0.005752056842
5.4,0.01904628103,0.004588752653
5.41,0.01919506321,0.003420495484
5.42,0.01927305841,0.002251562909
5.43,0.0192807601,0.001086183319
5.44,0.01921890998,-7.147879036E-05
5.45,0.019088492,-0.001217337074
5.46,0.0188907255,-0.002347397099
5.47,0.01862705769,-0.003457769561
5.48,0.01829915534,-0.004544682918
5.49,0.01790889583,-0.005604495415
5.5,0.01745835753,-0.006633706447
5.51,0.01694980971,-0.007628967244
5.52,0.01638570175,-0.008587090852
5.53,0.01576865199,-0.009505061373
5.54,0.01510143609,-0.01038004245
5.55,0.01438697499,-0.01120938499
5.56,0.01362832259,-0.01199063409
5.57,0.01282865305,-0.01272153515
5.58,0.01199124794,-0.01340003922
5.59,0.01111948316,-0.01402430748
5.6,0.01021681569,-0.01459271497
5.61,0.009286770343,-0.01510385342
5.62,0.008332926394,-0.01555653338
5.63,0.007358904249,-0.01594978543
5.64,0.006368352184,-0.01628286067
5.65,0.005364933162,-0.01655523043
5.66,0.004352311817,-0.01676658518
5.67,0.003334141614,-0.01691683266
5.68,0.002314052249,-0.0170060954
5.69,0.001295637321,-0.01703470736
5.7,0.000282442309,-0.01700321004
5.71,-0.0007220470957,-0.01691234784
5.72,-0.001714416283,-0.0167630628
5.73,-0.002691332599,-0.01655648877
5.74,-0.003649555777,-0.01629394496
5.75,-0.004585947899,-0.01597692898
5.76,-0.005497482851,-0.01560710938
5.77,-0.006381255266,-0.01518631765
5.78,-0.007234488914,-0.01471653989
5.79,-0.008054544533,-0.014199908
5.8,-0.008838927077,-0.01363869048
5.81,-0.009585292375,-0.01303528302
5.82,-0.01029145317,-0.01239219864
5.83,-0.01095538457,-0.01171205772
5.84,-0.01157522881,-0.01099757773
5.85,-0.01214929947,-0.01025156279
5.86,-0.01267608502,-0.009476893129
5.87,-0.01315425166,-0.008676514409
5.88,-0.01358264567,-0.00785342698
5.89,-0.01396029502,-0.007010675126
5.9,-0.01428641034,-0.006151336304
5.91,-0.01456038541,-0.00527851043
5.92,-0.01478179684,-0.004395309234
5.93,-0.01495040334,-0.003504845735
5.94,-0.01506614427,-0.002610223846
5.95,-0.01512913767,-0.001714528157
5.96,-0.01513967773,-0.0008208139269
5.97,-0.01509823174,6.790270633E-05
5.98,-0.01500543643,0.0009486542426
5.99,-0.01486209395,0.001818531058
6,-0.01466916722,0.002674690331
