"Freq [GHz]","re(S(Tx_p1,Tx_p1)) []","im(S(Tx_p1,Tx_p1)) []"
1,-0.09473254985,0.04783083642
1.01,-0.09131306306,0.05292104662
1.02,-0.08762074737,0.05777384601
1.03,-0.08367225563,0.0623744434
1.04,-0.07948504712,0.06670926542
1.05,-0.07507729426,0.07076599857
1.06,-0.07046778753,0.07453362387
1.07,-0.06567583907,0.07800244425
1.08,-0.06072118561,0.08116410451
1.09,-0.05562389128,0.0840116041
1.1,-0.0504042508,0.08653930259
1.11,-0.04508269361,0.08874291811
1.12,-0.0396796895,0.09061951889
1.13,-0.03421565613,0.09216750809
1.14,-0.02871086905,0.09338660216
1.15,-0.02318537456,0.09427780303
1.16,-0.01765890592,0.09484336441
1.17,-0.01215080322,0.09508675257
1.18,-0.006679937364,0.09501260191
1.19,-0.001264638423,0.09462666577
1.2,0.004077371286,0.09393576283
1.21,0.009329039179,0.09294771954
1.22,0.01447403919,0.09167130909
1.23,0.01949682319,0.09011618717
1.24,0.02438266688,0.08829282531
1.25,0.02911771003,0.08621244186
1.26,0.03368899107,0.08388693149
1.27,0.03808447587,0.0813287933
1.28,0.04229308082,0.0785510583
1.29,0.04630469022,0.07556721655
1.3,0.05011016801,0.07239114441
1.31,0.05370136405,0.06903703244
1.32,0.05707111492,0.06551931428
1.33,0.06021323965,0.0618525969
1.34,0.06312253038,0.05805159266
1.35,0.06579473828,0.05413105354
1.36,0.06822655497,0.05010570778
1.37,0.07041558971,0.04599019936
1.38,0.07236034271,0.04179903053
1.39,0.0740601748,0.03754650765
1.4,0.07551527383,0.03324669059
1.41,0.07672661823,0.02891334581
1.42,0.07769593795,0.02455990342
1.43,0.07842567324,0.02019941817
1.44,0.07891893164,0.01584453459
1.45,0.07917944349,0.01150745625
1.46,0.07921151642,0.007199919337
1.47,0.07901998916,0.002933170261
1.48,0.07861018495,-0.001282052441
1.49,0.07798786508,-0.005435532188
1.5,0.07715918269,-0.009517584405
1.51,0.07613063743,-0.01351906271
1.52,0.07490903094,-0.01743136139
1.53,0.07350142384,-0.02124641427
1.54,0.07191509419,-0.02495669032
1.55,0.07015749786,-0.02855518607
1.56,0.06823623095,-0.0320354151
1.57,0.06615899452,-0.03539139499
1.58,0.06393356178,-0.03861763184
1.59,0.06156774796,-0.04170910265
1.6,0.05906938283,-0.04466123605
1.61,0.05644628619,-0.04746989139
1.62,0.05370624622,-0.05013133674
1.63,0.0508570008,-0.05264222595
1.64,0.04790622185,-0.05499957514
1.65,0.04486150262,-0.05720073896
1.66,0.04173034785,-0.05924338681
1.67,0.0385201669,-0.06112547941
1.68,0.03523826952,-0.06284524596
1.69,0.03189186435,-0.06440116214
1.7,0.02848805986,-0.06579192926
1.71,0.02503386762,-0.06701645473
1.72,0.02153620775,-0.06807383407
1.73,0.01800191623,-0.06896333479
1.74,0.01443775404,-0.06968438208
1.75,0.01085041762,-0.07023654669
1.76,0.007246550659,-0.07061953501
1.77,0.003632756831,-0.07083318147
1.78,1.561317284E-05,-0.07087744332
1.79,-0.003598316077,-0.07075239796
1.8,-0.007202465518,-0.07045824267
1.81,-0.01079025477,-0.06999529684
1.82,-0.01435507508,-0.06936400669
1.83,-0.01789027659,-0.06856495235
1.84,-0.02138915662,-0.06759885725
1.85,-0.02484494915,-0.06646659977
1.86,-0.0282508157,-0.06516922693
1.87,-0.03159983805,-0.06370796996
1.88,-0.03488501271,-0.06208426171
1.89,-0.03809924769,-0.0602997555
1.9,-0.04123536142,-0.05835634536
1.91,-0.04428608423,-0.0562561873
1.92,-0.04724406237,-0.05400172151
1.93,-0.05010186484,-0.05159569498
1.94,-0.0528519929,-0.04904118456
1.95,-0.05548689259,-0.04634161992
1.96,-0.05799897006,-0.04350080627
1.97,-0.06038060989,-0.04052294648
1.98,-0.06262419626,-0.0374126623
1.99,-0.06472213702,-0.0341750144
2,-0.06666689051,-0.03081552092
2.01,-0.06845099511,-0.02734017426
2.02,-0.07006710132,-0.02375545574
2.03,-0.07150800618,-0.02006834805
2.04,-0.07276669003,-0.01628634494
2.05,-0.07383635515,-0.01241745821
2.06,-0.0747104663,-0.008470221516
2.07,-0.07538279266,-0.004453690961
2.08,-0.07584745115,-0.0003774421691
2.09,-0.07609895061,0.003748436261
2.1,-0.07613223672,0.007913353102
2.11,-0.07594273716,0.01210622873
2.12,-0.07552640684,0.01631551337
2.13,-0.07487977278,0.02052920935
2.14,-0.07399997818,0.02473489746
2.15,-0.07288482559,0.02891976742
2.16,-0.07153281852,0.03307065231
2.17,-0.0699432013,0.03717406709
2.18,-0.06811599685,0.04121625092
2.19,-0.06605204185,0.04518321328
2.2,-0.06375301917,0.04906078376
2.21,-0.06122148699,0.05283466516
2.22,-0.05846090455,0.05649048989
2.23,-0.055475654,0.0600138793
2.24,-0.05227105813,0.0633905057
2.25,-0.04885339385,0.06660615678
2.26,-0.04522990085,0.06964680211
2.27,-0.04140878567,0.07249866136
2.28,-0.0373992205,0.07514827386
2.29,-0.03321133692,0.07758256917
2.3,-0.02885621428,0.07978893822
2.31,-0.02434586262,0.08175530459
2.32,-0.01969320004,0.08347019556
2.33,-0.01491202462,0.08492281242
2.34,-0.01001698066,0.08610309966
2.35,-0.005023519536,0.0870018126
2.36,5.214506274E-05,0.08761058294
2.37,0.005193087093,0.08792198187
2.38,0.01038172342,0.0879295803
2.39,0.0155998741,0.08762800569
2.4,0.02082882747,0.08701299516
2.41,0.02604940982,0.08608144449
2.42,0.03124205942,0.08483145246
2.43,0.03638690446,0.08326236043
2.44,0.04146384474,0.08137478654
2.45,0.04645263652,0.07917065441
2.46,0.05133298043,0.07665321594
2.47,0.05608461169,0.07382706801
2.48,0.06068739243,0.07069816276
2.49,0.06512140559,0.06727381137
2.5,0.06936704986,0.0635626811
2.51,0.07340513521,0.05957478542
2.52,0.07721697848,0.05532146729
2.53,0.08078449859,0.05081537533
2.54,0.0840903107,0.0460704331
2.55,0.08711781892,0.04110180129
2.56,0.08985130695,0.03592583308
2.57,0.09227602622,0.03056002265
2.58,0.09437828092,0.02502294703
2.59,0.09614550944,0.01933420156
2.6,0.09756636179,0.01351432902
2.61,0.09863077233,0.007584742833
2.62,0.09933002766,0.001567644662
2.63,0.09965682882,-0.004514063396
2.64,0.09960534781,-0.0106368715
2.65,0.09917127768,-0.0167767593
2.66,0.09835187605,-0.02290929726
2.67,0.09714600164,-0.02900975163
2.68,0.09555414357,-0.03505319245
2.69,0.09357844306,-0.04101460432
2.7,0.09122270747,-0.04686899903
2.71,0.08849241635,-0.0525915299
2.72,0.08539471946,-0.05815760692
2.73,0.08193842666,-0.06354301227
2.74,0.07813398945,-0.06872401563
2.75,0.07399347449,-0.07367748864
2.76,0.06953052875,-0.07838101784
2.77,0.06476033663,-0.08281301568
2.78,0.05969956912,-0.08695282881
2.79,0.05436632509,-0.09078084319
2.8,0.04878006498,-0.09427858535
2.81,0.04296153721,-0.09742881935
2.82,0.03693269746,-0.1002156388
2.83,0.0307166213,-0.1026245534
2.84,0.02433741046,-0.1046425698
2.85,0.01782009318,-0.1062582655
2.86,0.0111905191,-0.107461857
2.87,0.004475249224,-0.1082452591
2.88,-0.002298558722,-0.1086021383
2.89,-0.009103268715,-0.1085279571
2.9,-0.01591088831,-0.1080200104
2.91,-0.02269319326,-0.1070774538
2.92,-0.02942185431,-0.1057013224
2.93,-0.03606856552,-0.1038945412
2.94,-0.04260517354,-0.1016619271
2.95,-0.04900380709,-0.0990101804
2.96,-0.05523700608,-0.0959478686
2.97,-0.06127784972,-0.09248540045
2.98,-0.06710008291,-0.0886349911
2.99,-0.07267824032,-0.08441061845
3,-0.07798776744,-0.07982797078
3.01,-0.08300513816,-0.07490438581
3.02,-0.08770796802,-0.06965878161
3.03,-0.09207512276,-0.06411157949
3.04,-0.09608682147,-0.05828461929
3.05,-0.09972473383,-0.05220106752
3.06,-0.102972071,-0.04588531863
3.07,-0.1058136694,-0.03936288997
3.08,-0.1082360677,-0.03266031093
3.09,-0.1102275753,-0.02580500675
3.1,-0.1117783331,-0.01882517754
3.11,-0.112880366,-0.0117496732
3.12,-0.113527626,-0.004607864721
3.13,-0.1137160272,0.002570487458
3.14,-0.1134434709,0.009755367366
3.15,-0.1127098613,0.01691663907
3.16,-0.1115171124,0.02402418323
3.17,-0.1098691449,0.03104803391
3.18,-0.1077718737,0.03795851512
3.19,-0.1052331858,0.04472637617
3.2,-0.1022629092,0.0513229254
3.21,-0.0988727718,0.05772016152
3.22,-0.09507635243,0.06389090191
3.23,-0.09088902179,0.06980890719
3.24,-0.08632787569,0.07544900162
3.25,-0.08141165968,0.08078718851
3.26,-0.07616068598,0.08580076025
3.27,-0.07059674292,0.09046840232
3.28,-0.06474299729,0.09477029075
3.29,-0.05862389024,0.09868818267
3.3,-0.05226502718,0.1022054993
3.31,-0.04569306206,0.1053074014
3.32,-0.03893557691,0.107980856
3.33,-0.03202095693,0.1102146951
3.34,-0.02497826195,0.1119996653
3.35,-0.01783709477,0.1133284686
3.36,-0.01062746716,0.1141957937
3.37,-0.003379663957,0.1145983381
3.38,0.003875893781,0.1145348205
3.39,0.01110878615,0.1140059845
3.4,0.0182887315,0.1130145916
3.41,0.02538572262,0.1115654055
3.42,0.03237016133,0.1096651672
3.43,0.03921299089,0.1073225604
3.44,0.0458858255,0.1045481679
3.45,0.05236107635,0.1013544199
3.46,0.05861207353,0.09775553287
3.47,0.06461318334,0.09376744119
3.48,0.0703399203,0.08940772018
3.49,0.07576905344,0.08469550223
3.5,0.08087870643,0.07965138585
3.51,0.08564845082,0.07429733814
3.52,0.09005939237,0.06865659137
3.53,0.09409424972,0.06275353409
3.54,0.09773742522,0.05661359726
3.55,0.1009750677,0.05026313616
3.56,0.1037951266,0.04372930847
3.57,0.1061873978,0.03703994924
3.58,0.1081435602,0.03022344346
3.59,0.1096572037,0.02330859659
3.6,0.1107238481,0.01632450399
3.61,0.1113409528,0.009300419705
3.62,0.1115079174,0.002265625284
3.63,0.1112260735,-0.004750700702
3.64,0.1104986677,-0.01171961186
3.65,0.1093308354,-0.01861252124
3.66,0.1077295665,-0.02540132611
3.67,0.1057036623,-0.03205852958
3.68,0.1032636851,-0.03855735862
3.69,0.1004218987,-0.04487187786
3.7,0.09719220336,-0.0509770986
3.71,0.09359006174,-0.05684908276
3.72,0.0896324197,-0.06246504097
3.73,0.08533762015,-0.06780342479
3.74,0.08072531146,-0.07284401227
3.75,0.07581635049,-0.07756798675
3.76,0.07063270109,-0.08195800857
3.77,0.0651973282,-0.08599827922
3.78,0.05953408851,-0.08967459797
3.79,0.0536676179,-0.09297441054
3.8,0.04762321647,-0.09588684978
3.81,0.04142673159,-0.09840276827
3.82,0.03510443965,-0.1005147626
3.83,0.02868292698,-0.1022171897
3.84,0.02218897066,-0.1035061745
3.85,0.01564941967,-0.1043796097
3.86,0.00909107701,-0.1048371478
3.87,0.002540583292,-0.1048801844
3.88,-0.003975697558,-0.1045118344
3.89,-0.01043179009,-0.1037369006
3.9,-0.01680221601,-0.1025618342
3.91,-0.02306209937,-0.1009946897
3.92,-0.02918726765,-0.09904507159
3.93,-0.03515434849,-0.09672407552
3.94,-0.04094086156,-0.0940442233
3.95,-0.04652530518,-0.09101939214
3.96,-0.0518872374,-0.08766473869
3.97,-0.05700735125,-0.08399661841
3.98,-0.06186754378,-0.08003250047
3.99,-0.0664509788,-0.07579087889
4,-0.07074214292,-0.07129118026
4.01,-0.07472689499,-0.06655366856
4.02,-0.07839250847,-0.06159934758
4.03,-0.08172770701,-0.05644986148
4.04,-0.0847226928,-0.05112739391
4.05,-0.087369168,-0.04565456629
4.06,-0.08966034907,-0.04005433564
4.07,-0.09159097406,-0.03434989256
4.08,-0.09315730305,-0.02856455978
4.09,-0.09435711173,-0.02272169171
4.1,-0.09518967838,-0.01684457559
4.11,-0.09565576433,-0.01095633454
4.12,-0.0957575882,-0.005079832974
4.13,-0.09549879406,0.0007624151823
4.14,-0.09488441389,0.0065483351
4.15,-0.09392082452,0.01225637615
4.16,-0.09261569942,0.01786559317
4.17,-0.09097795564,0.02335572348
4.18,-0.08901769629,0.02870725958
4.19,-0.08674614883,0.03390151705
4.2,-0.08417559969,0.03892069752
4.21,-0.08131932546,0.04374794663
4.22,-0.07819152116,0.04836740657
4.23,-0.07480722588,0.05276426331
4.24,-0.07118224634,0.05692478824
4.25,-0.06733307867,0.06083637427
4.26,-0.06327682877,0.06448756629
4.27,-0.05903113189,0.06786808594
4.28,-0.05461407153,0.0709688508
4.29,-0.05004409826,0.07378198796
4.3,-0.04533994879,0.0763008421
4.31,-0.04052056565,0.07851997817
4.32,-0.03560501778,0.08043517873
4.33,-0.03061242257,0.08204343618
4.34,-0.02556186946,0.08334294001
4.35,-0.02047234552,0.08433305932
4.36,-0.01536266333,0.08501432065
4.37,-0.01025139137,0.08538838161
4.38,-0.005156787203,0.08545800032
4.39,-9.673370806E-05,0.08522700106
4.4,0.004911321482,0.08470023632
4.41,0.009850423102,0.0838835456
4.42,0.0147041618,0.08278371122
4.43,0.01945672394,0.08140841141
4.44,0.0240929376,0.079766171
4.45,0.02859831461,0.07786631008
4.46,0.03295908857,0.07571889082
4.47,0.03716224887,0.07333466283
4.48,0.04119557064,0.07072500738
4.49,0.04504764057,0.06790188068
4.5,0.04870787878,0.06487775666
4.51,0.05216655661,0.06166556937
4.52,0.05541481053,0.05827865543
4.53,0.05844465214,0.05473069668
4.54,0.0612489745,0.05103566337
4.55,0.0638215547,0.04720775805
4.56,0.06615705304,0.04326136045
4.57,0.06825100878,0.03921097359
4.58,0.07009983271,0.03507117118
4.59,0.07170079668,0.03085654666
4.6,0.07305202027,0.02658166395
4.61,0.07415245479,0.0222610101
4.62,0.07500186482,0.01790894987
4.63,0.07560080745,0.01353968254
4.64,0.07595060945,0.009167200886
4.65,0.07605334258,0.004805252423
4.66,0.07591179723,0.0004673030785
4.67,0.07552945456,-0.00383349679
4.68,0.0749104574,-0.008084343928
4.69,0.07405958015,-0.01227281127
4.7,0.07298219769,-0.01638687462
4.71,0.07168425366,-0.02041493688
4.72,0.07017222829,-0.02434584988
4.73,0.06845310582,-0.02816893398
4.74,0.06653434175,-0.03187399524
4.75,0.06442383019,-0.03545134048
4.76,0.06212987117,-0.03889179022
4.77,0.05966113838,-0.04218668947
4.78,0.05702664716,-0.04532791673
4.79,0.05423572307,-0.048307891
4.8,0.05129797102,-0.05111957716
4.81,0.04822324506,-0.05375648964
4.82,0.04502161895,-0.05621269468
4.83,0.04170335751,-0.05848281111
4.84,0.03827888883,-0.0605620099
4.85,0.03475877737,-0.06244601254
4.86,0.03115369799,-0.06413108839
4.87,0.02747441086,-0.06561405105
4.88,0.02373173736,-0.06689225403
4.89,0.01993653681,-0.06796358554
4.9,0.01609968418,-0.0688264628
4.91,0.01223204863,-0.06947982577
4.92,0.008344472901,-0.0699231304
4.93,0.00444775344,-0.07015634165
4.94,0.0005526213614,-0.07017992603
4.95,-0.003330275978,-0.06999484411
4.96,-0.007190392747,-0.06960254272
4.97,-0.01101730185,-0.06900494702
4.98,-0.01480071163,-0.06820445259
4.99,-0.01853048214,-0.06720391729
5,-0.02219664106,-0.06600665316
5.01,-0.02578939928,-0.06461641823
5.02,-0.02929916629,-0.06303740828
5.03,-0.03271656534,-0.0612742485
5.04,-0.03603244856,-0.05933198511
5.05,-0.03923791192,-0.05721607678
5.06,-0.04232431027,-0.05493238597
5.07,-0.04528327235,-0.05248716996
5.08,-0.04810671588,-0.04988707177
5.09,-0.05078686277,-0.04713911058
5.1,-0.05331625439,-0.04425067196
5.11,-0.05568776706,-0.04122949751
5.12,-0.05789462755,-0.03808367409
5.13,-0.05993042884,-0.03482162241
5.14,-0.06178914589,-0.03145208501
5.15,-0.06346515157,-0.02798411348
5.16,-0.06495323258,-0.02442705494
5.17,-0.06624860547,-0.02079053759
5.18,-0.06734693256,-0.01708445537
5.19,-0.06824433774,-0.01331895164
5.2,-0.06893742222,-0.009504401791
5.21,-0.06942327985,-0.005651394722
5.22,-0.0696995123,-0.001770713241
5.23,-0.06976424366,0.002126686781
5.24,-0.06961613461,0.006029698451
5.25,-0.06925439588,0.009927087142
5.26,-0.06867880105,0.01380751502
5.27,-0.06788969838,0.01765956686
5.28,-0.06688802179,0.02147177704
5.29,-0.0656753006,0.02523265784
5.3,-0.06425366812,0.02893072891
5.31,-0.06262586891,0.03255454786
5.32,-0.06079526448,0.03609274196
5.33,-0.05876583745,0.03953404093
5.34,-0.05654219402,0.04286731061
5.35,-0.05412956449,0.04608158751
5.36,-0.05153380201,0.04916611417
5.37,-0.04876137911,0.05211037513
5.38,-0.04581938218,0.05490413339
5.39,-0.04271550372,0.05753746732
5.4,-0.03945803224,0.06000080784
5.41,-0.03605583974,0.06228497555
5.42,-0.03251836684,0.06438121797
5.43,-0.02885560535,0.0662812464
5.44,-0.02507807831,0.06797727241
5.45,-0.02119681747,0.06946204379
5.46,-0.01722333831,0.07072887955
5.47,-0.01316961236,0.07177170414
5.48,-0.009048037066,0.07258508032
5.49,-0.004871403205,0.07316424077
5.5,-0.0006528597532,0.0735051181
5.51,0.003594123541,0.07360437307
5.52,0.007855795909,0.0734594209
5.53,0.0121181675,0.07306845542
5.54,0.01636705341,0.07243047091
5.55,0.02058811962,0.0715452814
5.56,0.0247669308,0.07041353735
5.57,0.02888899968,0.06903673944
5.58,0.03293983799,0.06741724943
5.59,0.03690500857,0.06555829786
5.6,0.04077017866,0.06346398851
5.61,0.04452117403,0.06113929947
5.62,0.04814403374,0.05859008082
5.63,0.05162506535,0.0558230486
5.64,0.0549509003,0.05284577537
5.65,0.05810854923,0.04966667689
5.66,0.06108545697,0.04629499526
5.67,0.06386955699,0.04274077819
5.68,0.06644932493,0.0390148547
5.69,0.0688138311,0.03512880697
5.7,0.07095279158,0.03109493865
5.71,0.07285661771,0.0269262395
5.72,0.07451646363,0.02263634653
5.73,0.07592427174,0.01823950176
5.74,0.07707281568,0.01375050663
5.75,0.07795574073,0.009184673254
5.76,0.07856760126,0.004557772715
5.77,0.07890389509,-0.0001140195128
5.78,0.07896109451,-0.004814180757
5.79,0.07873667377,-0.009525900768
5.8,0.07822913278,-0.01423214354
5.81,0.07743801701,-0.01891571107
5.82,0.07636393321,-0.02355930889
5.83,0.07500856097,-0.02814561291
5.84,0.07337465998,-0.03265733754
5.85,0.07146607276,-0.03707730462
5.86,0.06928772293,-0.04138851289
5.87,0.06684560889,-0.04557420777
5.88,0.06414679283,-0.04961795108
5.89,0.06119938511,-0.05350369035
5.9,0.058012524,-0.05721582745
5.91,0.05459635075,-0.06073928626
5.92,0.05096198013,-0.06405957894
5.93,0.04712146642,-0.06716287056
5.94,0.04308776502,-0.07003604181
5.95,0.03887468972,-0.07266674934
5.96,0.03449686583,-0.0750434836
5.97,0.02996967931,-0.07715562379
5.98,0.02530922204,-0.07899348957
5.99,0.02053223357,-0.08054838946
6,0.01565603932,-0.08181266545
