"Freq [GHz]","re(S(Tx_p1,Tx_p1)) []","im(S(Tx_p1,Tx_p1)) []"
1,-0.2307228813,0.09140516037
1.01,-0.2249174614,0.1049382616
1.02,-0.2183023779,0.1181196003
1.03,-0.2108986604,0.1308991579
1.04,-0.2027305237,0.1432282186
1.05,-0.1938252821,0.1550595741
1.06,-0.1842132494,0.1663477235
1.07,-0.1739276269,0.1770490654
1.08,-0.1630043787,0.1871220833
1.09,-0.1514820959,0.1965275217
1.1,-0.1394018488,0.2052285536
1.11,-0.1268070296,0.2131909381
1.12,-0.1137431843,0.2203831673
1.13,-0.100257836,0.2267766024
1.14,-0.08640029935,0.2323455982
1.15,-0.07222148794,0.2370676147
1.16,-0.05777371398,0.2409233173
1.17,-0.04311048259,0.243896663
1.18,-0.02828628057,0.2459749732
1.19,-0.01335636096,0.2471489939
1.2,0.001623475947,0.2474129404
1.21,0.01659710401,0.246764529
1.22,0.03150829439,0.245204994
1.23,0.0463009393,0.2427390905
1.24,0.06091927563,0.2393750826
1.25,0.07530810738,0.2351247177
1.26,0.0894130261,0.2300031862
1.27,0.1031806283,0.2240290674
1.28,0.1165587291,0.2172242616
1.29,0.129496571,0.2096139085
1.3,0.1419450274,0.2012262926
1.31,0.1538567993,0.1920927355
1.32,0.1651866049,0.1822474763
1.33,0.1758913617,0.1717275395
1.34,0.1859303586,0.1605725921
1.35,0.1952654204,0.1488247895
1.36,0.2038610604,0.1365286118
1.37,0.2116846232,0.12373069
1.38,0.2187064163,0.1104796241
1.39,0.2248998292,0.09682579235
1.4,0.2302414407,0.08282115445
1.41,0.2347111131,0.06851904713
1.42,0.2382920737,0.0539739749
1.43,0.240970982,0.03924139579
1.44,0.2427379841,0.02437750321
1.45,0.2435867527,0.009439004896
1.46,0.2435145124,-0.005517100247
1.47,0.2425220522,-0.0204337465
1.48,0.2406137221,-0.03525402592
1.49,0.2377974168,-0.04992141232
1.5,0.2340845442,-0.06437998369
1.51,0.2294899808,-0.07857464212
1.52,0.2240320123,-0.09245133045
1.53,0.2177322615,-0.1059572447
1.54,0.2106156022,-0.1190410413
1.55,0.2027100605,-0.1316530387
1.56,0.1940467036,-0.1437454119
1.57,0.1846595163,-0.1552723798
1.58,0.174585266,-0.1661903841
1.59,0.163863357,-0.1764582595
1.6,0.1525356738,-0.1860373936
1.61,0.1406464154,-0.1948918776
1.62,0.1282419195,-0.2029886451
1.63,0.1153704793,-0.2102976001
1.64,0.1020821519,-0.2167917329
1.65,0.08842856064,-0.2224472233
1.66,0.07446269044,-0.2272435317
1.67,0.06023867877,-0.2311634765
1.68,0.04581160171,-0.2341932983
1.69,0.03123725672,-0.2363227103
1.7,0.01657194279,-0.2375449349
1.71,0.001872238701,-0.2378567267
1.72,-0.01280521938,-0.2372583805
1.73,-0.02740396042,-0.2357537262
1.74,-0.04186789999,-0.2333501094
1.75,-0.05614155999,-0.2300583575
1.76,-0.0701702856,-0.2258927328
1.77,-0.08390045876,-0.2208708716
1.78,-0.09727970711,-0.21501371
1.79,-0.1102571078,-0.2083453972
1.8,-0.122783385,-0.2008931953
1.81,-0.1348111012,-0.1926873676
1.82,-0.1462948399,-0.183761055
1.83,-0.1571913809,-0.1741501413
1.84,-0.1674598662,-0.1638931076
1.85,-0.1770619562,-0.1530308766
1.86,-0.1859619758,-0.141606648
1.87,-0.1941270496,-0.1296657247
1.88,-0.2015272259,-0.1172553309
1.89,-0.2081355886,-0.1044244237
1.9,-0.2139283569,-0.09122349699
1.91,-0.2188849729,-0.07770438079
1.92,-0.2229881756,-0.06392003496
1.93,-0.226224062,-0.04992433913
1.94,-0.2285821347,-0.03577187937
1.95,-0.2300553361,-0.02151773253
1.96,-0.2306400688,-0.007217249045
1.97,-0.230336202,0.007074164826
1.98,-0.2291470646,0.02130126453
1.99,-0.2270794243,0.03540918364
2,-0.2241434533,0.04934364823
2.01,-0.2203526808,0.06305118848
2.02,-0.2157239316,0.0764793466
2.03,-0.2102772529,0.0895768802
2.04,-0.2040358275,0.1022939605
2.05,-0.1970258753,0.1145823641
2.06,-0.1892765432,0.1263956588
2.07,-0.1808197834,0.1376893805
2.08,-0.171690221,0.1484212033
2.09,-0.1619250111,0.1585510996
2.1,-0.151563687,0.1680414918
2.11,-0.1406479987,0.1768573923
2.12,-0.1292217433,0.184966535
2.13,-0.1173305877,0.1923394937
2.14,-0.1050218847,0.1989497902
2.15,-0.09234448252,0.2047739902
2.16,-0.07934852926,0.2097917866
2.17,-0.06608527251,0.2139860702
2.18,-0.05260685541,0.2173429885
2.19,-0.03896610965,0.21985199
2.2,-0.02521634636,0.2215058565
2.21,-0.01141114576,0.2223007215
2.22,0.002395853708,0.2222360758
2.23,0.01615116579,0.2213147595
2.24,0.02980166559,0.2195429407
2.25,0.04329479674,0.2169300816
2.26,0.0565787756,0.2134888912
2.27,0.06960279187,0.2092352656
2.28,0.08231720469,0.204188216
2.29,0.09467373348,0.1983697844
2.3,0.1066256429,0.1918049477
2.31,0.1181279209,0.1845215105
2.32,0.1291374499,0.1765499873
2.33,0.1396131691,0.1679234742
2.34,0.1495162293,0.1586775109
2.35,0.1588101371,0.1488499333
2.36,0.1674608907,0.1384807181
2.37,0.1754371043,0.1276118189
2.38,0.1827101227,0.1162869953
2.39,0.1892541241,0.1045516357
2.4,0.1950462113,0.09245257379
2.41,0.2000664919,0.08003790039
2.42,0.2042981456,0.06735677089
2.43,0.2077274791,0.05445920911
2.44,0.2103439692,0.0413959085
2.45,0.2121402928,0.02821803137
2.46,0.213112344,0.01497700701
2.47,0.2132592387,0.001724329547
2.48,0.212583307,-0.01148864379
2.49,0.211090072,-0.02461089309
2.5,0.2087882167,-0.03759193412
2.51,0.2056895385,-0.05038201384
2.52,0.2018088919,-0.06293230228
2.53,0.1971641187,-0.0751950801
2.54,0.1917759673,-0.08712392104
2.55,0.1856680007,-0.09867386861
2.56,0.1788664938,-0.1098016063
2.57,0.1714003203,-0.1204656207
2.58,0.1633008301,-0.1306263569
2.59,0.1546017171,-0.1402463655
2.6,0.1453388787,-0.149290441
2.61,0.1355502669,-0.1577257503
2.62,0.125275732,-0.1655219523
2.63,0.1145568594,-0.1726513062
2.64,0.1034368007,-0.1790887695
2.65,0.09196009831,-0.1848120856
2.66,0.08017250675,-0.1898018593
2.67,0.06812080853,-0.194041621
2.68,0.05585262765,-0.1975178795
2.69,0.04341624025,-0.2002201623
2.7,0.03086038349,-0.2021410442
2.71,0.01823406352,-0.2032761643
2.72,0.005586363109,-0.2036242296
2.73,-0.007033750135,-0.2031870081
2.74,-0.01957761434,-0.2019693088
2.75,-0.03199706187,-0.1999789504
2.76,-0.04424460513,-0.1972267181
2.77,-0.05627361885,-0.1937263091
2.78,-0.06803851822,-0.1894942668
2.79,-0.07949493218,-0.1845499044
2.8,-0.09059987117,-0.1789152173
2.81,-0.1013118887,-0.1726147864
2.82,-0.1115912363,-0.1656756711
2.83,-0.1214000109,-0.1581272926
2.84,-0.1307022944,-0.1500013097
2.85,-0.1394642851,-0.1413314851
2.86,-0.1476544198,-0.1321535453
2.87,-0.155243487,-0.1225050322
2.88,-0.16220473,-0.1124251492
2.89,-0.1685139405,-0.1019546013
2.9,-0.1741495406,-0.09113542992
2.91,-0.1790926561,-0.08001084299
2.92,-0.1833271768,-0.068625042
2.93,-0.186839807,-0.05702304535
2.94,-0.1896201044,-0.0452505096
2.95,-0.1916605076,-0.03335354896
2.96,-0.1929563525,-0.02137855397
2.97,-0.1935058768,-0.009372009841
2.98,-0.1933102136,0.002619684641
2.99,-0.1923733734,0.01455039701
3,-0.1907022152,0.02637443914
3.01,-0.1883064068,0.0380467426
3.02,-0.1851983735,0.04952303086
3.03,-0.1813932372,0.06075998741
3.04,-0.1769087448,0.07171541945
3.05,-0.1717651869,0.08234841631
3.06,-0.165985307,0.09261950211
3.07,-0.1595942011,0.1024907821
3.08,-0.1526192096,0.1119260819
3.09,-0.1450897998,0.1208910799
3.1,-0.1370374419,0.1293534311
3.11,-0.1284954767,0.1372828827
3.12,-0.1194989778,0.1446513817
3.13,-0.1100846065,0.1514331727
3.14,-0.1002904624,0.1576048859
3.15,-0.09015592878,0.1631456165
3.16,-0.07972151313,0.1680369935
3.17,-0.06902868519,0.1722632376
3.18,-0.05811971139,0.1758112099
3.19,-0.04703748725,0.1786704497
3.2,-0.03582536819,0.1808332009
3.21,-0.02452699947,0.182294429
3.22,-0.01318614583,0.1830518265
3.23,-0.001846521615,0.1831058083
3.24,0.009448378008,0.1824594956
3.25,0.02065544413,0.1811186907
3.26,0.03173211873,0.1790918407
3.27,0.04263655636,0.1763899908
3.28,0.05332778213,0.1730267287
3.29,0.06376584547,0.1690181189
3.3,0.07391196916,0.1643826275
3.31,0.08372869294,0.1591410388
3.32,0.0931800112,0.1533163626
3.33,0.1022315044,0.1469337339
3.34,0.1108504634,0.1400203048
3.35,0.1190060069,0.1326051289
3.36,0.1266691906,0.1247190394
3.37,0.1338131086,0.1163945207
3.38,0.1404129865,0.1076655742
3.39,0.1464462651,0.09856757959
3.4,0.1518926758,0.08913715061
3.41,0.1567343064,0.07941198776
3.42,0.1609556571,0.06943072708
3.43,0.1645436873,0.05923278637
3.44,0.1674878527,0.04885820918
3.45,0.169780132,0.03834750736
3.46,0.1714150441,0.02774150258
3.47,0.1723896553,0.0170811676
3.48,0.172703577,0.006407467923
3.49,0.1723589524,-0.004238795719
3.5,0.1713604351,-0.01481714326
3.51,0.1697151568,-0.02528756909
3.52,0.1674326866,-0.03561069313
3.53,0.1645249805,-0.0457479086
3.54,0.1610063219,-0.05566152595
3.55,0.1568932543,-0.06531491245
3.56,0.1522045048,-0.07467262681
3.57,0.1469609002,-0.08370054849
3.58,0.141185275,-0.09236600118
3.59,0.1349023728,-0.1006378699
3.6,0.1281387404,-0.1084867114
3.61,0.1209226159,-0.1158848577
3.62,0.113283811,-0.1228065119
3.63,0.1052535877,-0.129227836
3.64,0.09686453029,-0.1351270317
3.65,0.08815041293,-0.1404844114
3.66,0.07914606378,-0.1452824621
3.67,0.06988722548,-0.1495058991
3.68,0.06041041321,-0.1531417125
3.69,0.05075277057,-0.1561792031
3.7,0.0409519239,-0.1586100099
3.71,0.0310458357,-0.160428129
3.72,0.02107265763,-0.1616299223
3.73,0.01107058363,-0.1622141176
3.74,0.001077703872,-0.1621817999
3.75,-0.00886814007,-0.161536393
3.76,-0.01872949815,-0.1602836329
3.77,-0.02846945245,-0.1584315324
3.78,-0.03805175477,-0.1559903369
3.79,-0.04744096098,-0.1529724718
3.8,-0.05660256122,-0.1493924829
3.81,-0.06550310594,-0.1452669676
3.82,-0.07411032695,-0.1406145
3.83,-0.08239325322,-0.1354555481
3.84,-0.09032232107,-0.1298123843
3.85,-0.09786947817,-0.1237089902
3.86,-0.1050082812,-0.117170955
3.87,-0.1117139868,-0.1102253681
3.88,-0.1179636351,-0.1029007076
3.89,-0.1237361265,-0.09522672309
3.9,-0.1290122905,-0.08723431522
3.91,-0.1337749467,-0.07895541124
3.92,-0.1380089577,-0.07042283747
3.93,-0.1417012746,-0.06167018925
3.94,-0.1448409733,-0.05273169866
3.95,-0.147419283,-0.04364210082
3.96,-0.1494296065,-0.03443649906
3.97,-0.1508675313,-0.02515022951
3.98,-0.1517308335,-0.01581872583
3.99,-0.1520194722,-0.00647738429
4,-0.1517355763,0.002838570005
4.01,-0.1508834229,0.01209421545
4.02,-0.1494694081,0.02125506423
4.03,-0.147502009,0.03028719006
4.04,-0.1449917393,0.03915735305
4.05,-0.1419510963,0.04783312105
4.06,-0.1383945016,0.05628298721
4.07,-0.1343382345,0.06447648318
4.08,-0.1298003584,0.0723842877
4.09,-0.1248006422,0.07997833005
4.1,-0.119360474,0.08723188814
4.11,-0.1135027709,0.09411968079
4.12,-0.1072518827,0.100617954
4.13,-0.1006334906,0.1067045608
4.14,-0.09367450274,0.1123590344
4.15,-0.08640294426,0.1175626551
4.16,-0.07884784512,0.1222985088
4.17,-0.07103912421,0.1265515402
4.18,-0.06300747114,0.1303085966
4.19,-0.05478422582,0.1335584659
4.2,-0.04640125644,0.1362919062
4.21,-0.03789083631,0.1385016674
4.22,-0.02928551995,0.1401825065
4.23,-0.02061801901,0.1413311935
4.24,-0.01192107841,0.1419465112
4.25,-0.003227353224,0.1420292466
4.26,0.005430713237,0.1415821746
4.27,0.01402100978,0.1406100353
4.28,0.02251187555,0.1391195033
4.29,0.03087221576,0.1371191497
4.3,0.03907161451,0.1346193985
4.31,0.04708044425,0.1316324747
4.32,0.05486997159,0.1281723471
4.33,0.06241245893,0.1242546648
4.34,0.06968126176,0.1198966877
4.35,0.07665092108,0.1151172109
4.36,0.08329725081,0.1099364851
4.37,0.08959741979,0.1043761309
4.38,0.09553002816,0.09845904927
4.39,0.1010751778,0.09220932768
4.4,0.1062145368,0.08565214226
4.41,0.1109313973,0.07881365681
4.42,0.1152107272,0.07172091872
4.43,0.1190392153,0.06440175233
4.44,0.1224053092,0.05688465014
4.45,0.1252992467,0.04919866227
4.46,0.1277130806,0.04137328466
4.47,0.1296406957,0.03343834635
4.48,0.13107782,0.0254238963
4.49,0.1320220278,0.01736009029
4.5,0.1324727369,0.009277078088
4.51,0.1324311978,0.001204891507
4.52,0.1319004777,-0.006826666288
4.53,0.1308854363,-0.01478812988
4.54,0.1293926962,-0.02265047866
4.55,0.1274306064,-0.03038524145
4.56,0.1250091999,-0.03796459836
4.57,0.122140145,-0.04536147952
4.58,0.1188366916,-0.05254966027
4.59,0.1151136111,-0.05950385261
4.6,0.1109871316,-0.06619979243
4.61,0.1064748685,-0.07261432243
4.62,0.1015957496,-0.07872547025
4.63,0.09636993652,-0.08451252173
4.64,0.09081874184,-0.0899560889
4.65,0.08496454284,-0.09503817269
4.66,0.07883069159,-0.09974221996
4.67,0.0724414223,-0.1040531748
4.68,0.06582175601,-0.107957524
4.69,0.05899740307,-0.1114433363
4.7,0.05199466378,-0.1145002958
4.71,0.04484032758,-0.1171197292
4.72,0.03756157112,-0.1192946259
4.73,0.03018585569,-0.1210196535
4.74,0.02274082432,-0.1222911654
4.75,0.01525419895,-0.123107203
4.76,0.007753678073,-0.1234674915
4.77,0.0002668351689,-0.1233734294
4.78,-0.007178981631,-0.122828072
4.79,-0.01455674835,-0.1218361093
4.8,-0.02183986204,-0.1204038371
4.81,-0.02900223545,-0.1185391237
4.82,-0.03601838907,-0.11625137
4.83,-0.04286354032,-0.1135514648
4.84,-0.0495136895,-0.1104517347
4.85,-0.05594570227,-0.1069658895
4.86,-0.06213738838,-0.1031089627
4.87,-0.06806757633,-0.09889724704
4.88,-0.07371618382,-0.09434822723
4.89,-0.07906428364,-0.0894805074
4.9,-0.08409416492,-0.08431373585
4.91,-0.08878938944,-0.07886852627
4.92,-0.09313484297,-0.07316637601
4.93,-0.09711678131,-0.06722958175
4.94,-0.100722871,-0.06108115284
4.95,-0.1039422249,-0.05474472272
4.96,-0.1067654315,-0.04824445869
4.97,-0.1091845796,-0.04160497035
4.98,-0.1111932767,-0.0348512172
4.99,-0.1127866618,-0.02800841549
5,-0.1139614128,-0.02110194501
5.01,-0.1147157483,-0.01415725577
5.02,-0.1150494232,-0.007199775211
5.03,-0.1149637194,-0.0002548161911
5.04,-0.1144614308,0.006652514029
5.05,-0.1135468431,0.01349740333
5.06,-0.1122257077,0.02025542256
5.07,-0.1105052115,0.02690261139
5.08,-0.1083939408,0.03341556176
5.09,-0.1059018412,0.03977149884
5.1,-0.1030401719,0.04594835896
5.11,-0.09982145666,0.05192486459
5.12,-0.09625942984,0.05768059575
5.13,-0.09236897871,0.063196058
5.14,-0.08816608197,0.06845274639
5.15,-0.08366774479,0.0734332056
5.16,-0.07889193068,0.07812108566
5.17,-0.07385749032,0.08250119347
5.18,-0.06858408776,0.08655953964
5.19,-0.0630921242,0.09028338073
5.2,-0.05740265974,0.09366125675
5.21,-0.0515373332,0.09668302366
5.22,-0.04551828062,0.09933988103
5.23,-0.03936805236,0.1016243946
5.24,-0.03310952952,0.103530514
5.25,-0.02676583958,0.1050535847
5.26,-0.02036027193,0.1061903561
5.27,-0.0139161933,0.1069389831
5.28,-0.007456963617,0.1072990238
5.29,-0.001005852432,0.1072714317
5.3,0.005414043718,0.1068585427
5.31,0.01177988273,0.106064058
5.32,0.01806915689,0.1048930214
5.33,0.02425977098,0.1033517928
5.34,0.03033011853,0.1014480164
5.35,0.03625915558,0.09919058536
5.36,0.04202647204,0.0965896014
5.37,0.0476123603,0.09365633119
5.38,0.05299788077,0.09040315836
5.39,0.05816492426,0.08684353215
5.4,0.06309627103,0.08299191252
5.41,0.06777564617,0.07886371212
5.42,0.07218777129,0.07447523528
5.43,0.07631841231,0.06984361421
5.44,0.0801544232,0.06498674282
5.45,0.08368378556,0.05992320819
5.46,0.08689564395,0.05467222019
5.47,0.08978033682,0.04925353928
5.48,0.09232942305,0.04368740291
5.49,0.09453570393,0.0379944508
5.5,0.09639324069,0.03219564922
5.51,0.09789736736,0.02631221472
5.52,0.09904469914,0.02036553749
5.53,0.09983313612,0.01437710462
5.54,0.1002618625,0.008368423543
5.55,0.1003313412,0.002360946
5.56,0.1000433044,-0.003624007366
5.57,0.09940073877,-0.009565321377
5.58,0.09840786757,-0.01544215947
5.59,0.09707012765,-0.02123403538
5.6,0.09539414266,-0.02692088307
5.61,0.09338769233,-0.03248312476
5.62,0.09105967777,-0.03790173673
5.63,0.08842008318,-0.0431583128
5.64,0.08547993392,-0.04823512511
5.65,0.08225125136,-0.05311518225
5.66,0.0787470044,-0.0577822843
5.67,0.07498105811,-0.06222107482
5.68,0.0709681195,-0.0664170895
5.69,0.0667236808,-0.07035680138
5.7,0.0622639603,-0.07402766249
5.71,0.05760584108,-0.07741814181
5.72,0.05276680783,-0.08051775943
5.73,0.04776488198,-0.08331711679
5.74,0.04261855541,-0.08580792303
5.75,0.03734672292,-0.08798301723
5.76,0.03196861376,-0.08983638658
5.77,0.02650372248,-0.09136318054
5.78,0.02097173922,-0.09255972072
5.79,0.01539247987,-0.09342350674
5.8,0.009785816169,-0.09395321788
5.81,0.004171606099,-0.09414871072
5.82,-0.001430375225,-0.09401101262
5.83,-0.007000503955,-0.09354231124
5.84,-0.01251937494,-0.09274594008
5.85,-0.01796786797,-0.09162636016
5.86,-0.02332721261,-0.09018913791
5.87,-0.02857905144,-0.08844091936
5.88,-0.03370550142,-0.08638940083
5.89,-0.0386892133,-0.08404329604
5.9,-0.04351342875,-0.08141230007
5.91,-0.04816203515,-0.07850705003
5.92,-0.05261961776,-0.0753390828
5.93,-0.05687150922,-0.07192078989
5.94,-0.06090383613,-0.06826536966
5.95,-0.06470356263,-0.06438677702
5.96,-0.06825853082,-0.06029967087
5.97,-0.07155749791,-0.0560193594
5.98,-0.07459017005,-0.05156174352
5.99,-0.07734723259,-0.04694325856
6,-0.07982037693,-0.04218081452
