"Freq [GHz]","re(S(Tx_p1,Tx_p1)) []","im(S(Tx_p1,Tx_p1)) []"
1,-0.2160496666,0.09929093406
1.01,-0.2098013494,0.1121234946
1.02,-0.2027753412,0.1245778444
1.03,-0.1949942988,0.1366053746
1.04,-0.1864840045,0.1481588764
1.05,-0.1772732739,0.1591927443
1.06,-0.1673938515,0.169663173
1.07,-0.1568802926,0.1795283469
1.08,-0.1457698337,0.1887486218
1.09,-0.1341022514,0.1972866982
1.1,-0.1219197096,0.2051077847
1.11,-0.1092665972,0.2121797518
1.12,-0.09618935522,0.2184732743
1.13,-0.08273629516,0.2239619631
1.14,-0.06895740946,0.2286224842
1.15,-0.05490417396,0.2324346661
1.16,-0.04062934397,0.2353815938
1.17,-0.0261867444,0.2374496892
1.18,-0.01163105495,0.238628779
1.19,0.002982408766,0.2389121469
1.2,0.01759791724,0.2382965732
1.21,0.03215955138,0.2367823594
1.22,0.04661142811,0.2343733377
1.23,0.0608979263,0.231076867
1.24,0.07496391224,0.2269038137
1.25,0.08875496346,0.2218685182
1.26,0.1022175903,0.2159887468
1.27,0.1152994538,0.2092856296
1.28,0.1279495799,0.2017835847
1.29,0.1401185678,0.1935102281
1.3,0.1517587927,0.1844962708
1.31,0.1628246016,0.174775403
1.32,0.1732725014,0.1643841656
1.33,0.1830613383,0.15336181
1.34,0.1921524686,0.1417501462
1.35,0.2005099185,0.1295933812
1.36,0.2081005344,0.1169379459
1.37,0.2148941211,0.1038323135
1.38,0.2208635686,0.09032680927
1.39,0.2259849667,0.07647341227
1.4,0.2302377059,0.06232554992
1.41,0.233604566,0.04793788658
1.42,0.2360717906,0.03336610673
1.43,0.2376291474,0.01866669361
1.44,0.2382699749,0.003896704419
1.45,0.2379912137,-0.01088645716
1.46,0.2367934243,-0.02562527016
1.47,0.2346807896,-0.04026232624
1.48,0.2316611023,-0.05474055943
1.49,0.227745739,-0.06900347476
1.5,0.222949618,-0.08299537477
1.51,0.2172911444,-0.09666158312
1.52,0.2107921395,-0.1099486642
1.53,0.2034777576,-0.1228046379
1.54,0.1953763882,-0.135179189
1.55,0.1865195459,-0.1470238692
1.56,0.1769417467,-0.1582922929
1.57,0.1666803726,-0.168940324
1.58,0.1557755248,-0.1789262536
1.59,0.1442698647,-0.1882109688
1.6,0.1322084458,-0.1967581106
1.61,0.1196385349,-0.2045342206
1.62,0.1066094246,-0.2115088765
1.63,0.09317223747,-0.2176548151
1.64,0.07937972254,-0.2229480428
1.65,0.06528604566,-0.227367933
1.66,0.05094657349,-0.2308973096
1.67,0.03641765283,-0.2335225169
1.68,0.0217563859,-0.2352334752
1.69,0.00702040245,-0.2360237224
1.7,-0.007732370286,-0.2358904402
1.71,-0.02244393887,-0.2348344664
1.72,-0.03705647531,-0.232860292
1.73,-0.05151254799,-0.2299760436
1.74,-0.06575535117,-0.2261934517
1.75,-0.07972893182,-0.2215278037
1.76,-0.09337841317,-0.2159978828
1.77,-0.1066502139,-0.2096258931
1.78,-0.1194922619,-0.202437371
1.79,-0.1318542024,-0.1944610824
1.8,-0.1436875988,-0.1857289078
1.81,-0.1549461256,-0.1762757142
1.82,-0.1655857537,-0.1661392156
1.83,-0.1755649248,-0.1553598215
1.84,-0.1848447178,-0.1439804752
1.85,-0.1933890029,-0.132046481
1.86,-0.2011645853,-0.1196053228
1.87,-0.2081413369,-0.106706474
1.88,-0.2142923154,-0.09340119859
1.89,-0.2195938705,-0.07974234599
1.9,-0.2240257377,-0.0657841392
1.91,-0.2275711169,-0.05158195753
1.92,-0.2302167383,-0.03719211486
1.93,-0.2319529138,-0.02267163413
1.94,-0.2327735733,-0.008078019213
1.95,-0.2326762875,0.006530975155
1.96,-0.2316622753,0.02109757423
1.97,-0.2297363964,0.03556421412
1.98,-0.2269071301,0.04987377165
1.99,-0.2231865389,0.06396979233
2,-0.2185902176,0.07779671544
2.01,-0.2131372288,0.09130009545
2.02,-0.2068500242,0.1044268187
2.03,-0.1997543521,0.1171253148
2.04,-0.1918791524,0.1293457612
2.05,-0.1832564378,0.1410402813
2.06,-0.1739211642,0.1521631339
2.07,-0.1639110876,0.1626708941
2.08,-0.1532666117,0.1725226254
2.09,-0.1420306234,0.1816800403
2.1,-0.1302483196,0.1901076517
2.11,-0.1179670243,0.1977729116
2.12,-0.1052359974,0.2046463385
2.13,-0.09210623599,0.2107016326
2.14,-0.07863026903,0.2159157774
2.15,-0.06486194561,0.2202691285
2.16,-0.0508562185,0.2237454888
2.17,-0.03666892335,0.2263321694
2.18,-0.0223565546,0.228020037
2.19,-0.007976038948,0.2288035461
2.2,0.006415492627,0.2286807575
2.21,0.02076093346,0.2276533419
2.22,0.03500342942,0.2257265693
2.23,0.04908660588,0.2229092837
2.24,0.06295479246,0.2192138635
2.25,0.07655324472,0.2146561679
2.26,0.08982836191,0.2092554692
2.27,0.1027278998,0.2030343721
2.28,0.1152011777,0.1960187183
2.29,0.1271992793,0.1882374801
2.3,0.1386752459,0.17972264
2.31,0.1495842614,0.1705090594
2.32,0.1598838291,0.1606343349
2.33,0.1695339378,0.1501386452
2.34,0.1784972193,0.1390645864
2.35,0.1867390934,0.127456999
2.36,0.194227903,0.1153627849
2.37,0.2009350359,0.102830718
2.38,0.2068350357,0.08991124564
2.39,0.2119056985,0.07665628542
2.4,0.2161281574,0.06311901505
2.41,0.219486953,0.04935365821
2.42,0.22197009,0.03541526616
2.43,0.2235690807,0.02135949657
2.44,0.224278973,0.007242390046
2.45,0.2240983654,-0.00687985439
2.46,0.223029407,-0.02095110422
2.47,0.2210777839,-0.03491551769
2.48,0.2182526903,-0.0487177666
2.49,0.2145667872,-0.06230325665
2.5,0.2100361457,-0.07561834455
2.51,0.2046801776,-0.08861055093
2.52,0.1985215528,-0.1012287683
2.53,0.1915861029,-0.113423463
2.54,0.1839027134,-0.1251468709
2.55,0.1755032029,-0.1363531852
2.56,0.1664221911,-0.1469987367
2.57,0.1566969563,-0.1570421641
2.58,0.1463672812,-0.1664445764
2.59,0.1354752903,-0.1751697036
2.6,0.1240652775,-0.1831840372
2.61,0.1121835248,-0.1904569599
2.62,0.09987811484,-0.1969608627
2.63,0.08719873477,-0.2026712501
2.64,0.07419647535,-0.2075668327
2.65,0.06092362416,-0.2116296066
2.66,0.04743345449,-0.2148449196
2.67,0.03378001071,-0.2172015238
2.68,0.02001789086,-0.2186916147
2.69,0.006202027498,-0.2193108559
2.7,-0.007612532493,-0.2190583902
2.71,-0.02137084809,-0.217936837
2.72,-0.03501830352,-0.2159522754
2.73,-0.04850082592,-0.2131142132
2.74,-0.06176510044,-0.2094355429
2.75,-0.07475878189,-0.2049324838
2.76,-0.08743070211,-0.1996245111
2.77,-0.09973107226,-0.1935342716
2.78,-0.1116116791,-0.1866874875
2.79,-0.1230260748,-0.1791128475
2.8,-0.133929759,-0.1708418868
2.81,-0.1442803529,-0.1619088554
2.82,-0.1540377647,-0.1523505761
2.83,-0.163164345,-0.1422062921
2.84,-0.1716250329,-0.1315175058
2.85,-0.1793874906,-0.1203278084
2.86,-0.1864222273,-0.1086827013
2.87,-0.1927027116,-0.09662941128
2.88,-0.1982054714,-0.0842166974
2.89,-0.2029101815,-0.07149465379
2.9,-0.2067997387,-0.0585145066
2.91,-0.2098603231,-0.04532840705
2.92,-0.2120814472,-0.03198922121
2.93,-0.2134559907,-0.01855031733
2.94,-0.2139802219,-0.005065351661
2.95,-0.2136538056,0.008411946548
2.96,-0.2124797979,0.02182798978
2.97,-0.210464626,0.03512954604
2.98,-0.2076180563,0.0482639507
2.99,-0.2039531479,0.0611793157
3,-0.1994861936,0.07382473512
3.01,-0.1942366477,0.08615048642
3.02,-0.188227042,0.09810822649
3.03,-0.1814828888,0.1096511818
3.04,-0.1740325729,0.1207343317
3.05,-0.1659072317,0.1313145845
3.06,-0.1571406251,0.1413509454
3.07,-0.1477689947,0.1508046756
3.08,-0.1378309142,0.1596394417
3.09,-0.1273671294,0.167821456
3.1,-0.1164203914,0.1753196055
3.11,-0.1050352811,0.18210557
3.12,-0.0932580272,0.1881539293
3.13,-0.08113631795,0.1934422579
3.14,-0.06871910748,0.1979512079
3.15,-0.0560564175,0.2016645792
3.16,-0.0431991352,0.204569377
3.17,-0.03019880815,0.2066558566
3.18,-0.01710743702,0.2079175545
3.19,-0.003977266985,0.2083513067
3.2,0.009139421332,0.207957254
3.21,0.02219052062,0.2067388336
3.22,0.03512430442,0.2047027575
3.23,0.04788963265,0.2018589783
3.24,0.06043615429,0.1982206418
3.25,0.07271450646,0.1938040271
3.26,0.084676509,0.1886284741
3.27,0.09627535392,0.1827162991
3.28,0.1074657889,0.1760926988
3.29,0.118204294,0.1687856426
3.3,0.1284492511,0.1608257547
3.31,0.1381611056,0.1522461854
3.32,0.1473025187,0.1430824724
3.33,0.1558385115,0.133372394
3.34,0.1637365983,0.1231558122
3.35,0.1709669101,0.1124745093
3.36,0.1775023076,0.1013720159
3.37,0.1833184823,0.08989343361
3.38,0.1883940468,0.07808525083
3.39,0.1927106124,0.0659951543
3.4,0.1962528551,0.05367183585
3.41,0.1990085691,0.04116479578
3.42,0.2009687077,0.02852414352
3.43,0.202127411,0.01580039638
3.44,0.2024820217,0.003044277125
3.45,0.202033087,-0.009693488647
3.46,0.2007843488,-0.02236237469
3.47,0.1987427203,-0.03491225493
3.48,0.1959182503,-0.04729360216
3.49,0.1923240755,-0.05945768384
3.5,0.1879763593,-0.07135675419
3.51,0.1828942208,-0.08294424182
3.52,0.1770996497,-0.09417493218
3.53,0.1706174122,-0.1050051441
3.54,0.1634749446,-0.1153928999
3.55,0.1557022371,-0.1252980878
3.56,0.1473317076,-0.1346826168
3.57,0.1383980665,-0.1435105633
3.58,0.128938172,-0.1517483081
3.59,0.1189908781,-0.1593646641
3.6,0.1085968741,-0.1663309939
3.61,0.09779851819,-0.1726213172
3.62,0.08663966421,-0.1782124071
3.63,0.07516548299,-0.1830838747
3.64,0.06342227922,-0.1872182429
3.65,0.05145730404,-0.1906010078
3.66,0.03931856451,-0.1932206889
3.67,0.02705463059,-0.1950688655
3.68,0.01471444038,-0.196140203
3.69,0.002347104479,-0.1964324648
3.7,-0.0099982898,-0.1959465128
3.71,-0.02227287355,-0.194686296
3.72,-0.03442818999,-0.1926588253
3.73,-0.04641638595,-0.1898741381
3.74,-0.05819040043,-0.1863452493
3.75,-0.06970414945,-0.1820880917
3.76,-0.08091270645,-0.177121444
3.77,-0.09177247762,-0.1714668488
3.78,-0.1022413713,-0.1651485187
3.79,-0.1122789612,-0.1581932329
3.8,-0.1218466419,-0.1506302234
3.81,-0.1309077772,-0.1424910521
3.82,-0.1394278405,-0.1338094785
3.83,-0.147374545,-0.1246213196
3.84,-0.1547179662,-0.114964302
3.85,-0.1614306538,-0.104877906
3.86,-0.1674877334,-0.09440320456
3.87,-0.1728669979,-0.08358269513
3.88,-0.177548988,-0.07246012719
3.89,-0.1815170615,-0.06108032487
3.9,-0.184757451,-0.04948900601
3.91,-0.1872593104,-0.03773259816
3.92,-0.1890147491,-0.02585805236
3.93,-0.190018855,-0.01391265533
3.94,-0.190269705,-0.001943841012
3.95,-0.1897683641,0.01000099801
3.96,-0.1885188721,0.02187469826
3.97,-0.1865282192,0.03363051174
3.98,-0.1838063093,0.04522228992
3.99,-0.1803659119,0.05660466495
4,-0.1762226038,0.06773322708
4.01,-0.1713946981,0.07856469783
4.02,-0.1659031641,0.08905709804
4.03,-0.1597715361,0.09916991032
4.04,-0.1530258127,0.1088642351
4.05,-0.1456943462,0.1181029401
4.06,-0.1378077232,0.1268508015
4.07,-0.1293986374,0.1350746383
4.08,-0.120501753,0.142743437
4.09,-0.1111535623,0.1498284683
4.1,-0.1013922352,0.1563033935
4.11,-0.09125746326,0.1621443615
4.12,-0.08079029831,0.167330096
4.13,-0.07003298558,0.1718419714
4.14,-0.0590287931,0.1756640786
4.15,-0.04782183751,0.1787832797
4.16,-0.03645690699,0.1811892513
4.17,-0.02497928212,0.182874517
4.18,-0.01343455543,0.1838344679
4.19,-0.001868450193,0.1840673722
4.2,0.009673360641,0.1835743732
4.21,0.02114543476,0.1823594761
4.22,0.03250273929,0.180429523
4.23,0.04370082745,0.1777941573
4.24,0.05469601226,0.1744657771
4.25,0.0654455367,0.1704594776
4.26,0.07590773967,0.165792983
4.27,0.08604221702,0.1604865688
4.28,0.09580997718,0.1545629733
4.29,0.1051735906,0.1480473007
4.3,0.1140973327,0.1409669144
4.31,0.1225473192,0.1333513221
4.32,0.1304916346,0.1252320527
4.33,0.1379004511,0.1166425255
4.34,0.1447461407,0.107617913
4.35,0.1510033765,0.09819499602
4.36,0.1566492253,0.08841201413
4.37,0.1616632313,0.07830851027
4.38,0.166027488,0.06792517076
4.39,0.1697267015,0.05730366142
4.4,0.1727482418,0.04648646031
4.41,0.1750821851,0.03551668787
4.42,0.1767213436,0.02443793503
4.43,0.1776612854,0.01329409009
4.44,0.1779003435,0.002129164956
4.45,0.1774396135,-0.009012878519
4.46,0.1762829403,-0.02008830142
4.47,0.1744368947,-0.03105375921
4.48,0.1719107388,-0.04186647105
4.49,0.1687163809,-0.05248438635
4.5,0.1648683204,-0.06286634784
4.51,0.1603835827,-0.07297225068
4.52,0.1552816438,-0.08276319682
4.53,0.1495843465,-0.09220164411
4.54,0.1433158068,-0.1012515496
4.55,0.1365023117,-0.1098785066
4.56,0.1291722093,-0.1180498745
4.57,0.1213557906,-0.1257349015
4.58,0.1130851645,-0.1329048396
4.59,0.1043941259,-0.139533051
4.6,0.09531801742,-0.145595106
4.61,0.08589358585,-0.1510688721
4.62,0.07615883329,-0.1559345935
4.63,0.066152864,-0.1601749611
4.64,0.05591572737,-0.1637751728
4.65,0.04548825775,-0.1667229834
4.66,0.03491191165,-0.1690087447
4.67,0.02422860315,-0.1706254349
4.68,0.01348053794,-0.1715686782
4.69,0.002710046905,-0.1718367531
4.7,-0.008040580377,-0.1714305909
4.71,-0.01872926129,-0.1703537636
4.72,-0.02931428456,-0.1686124615
4.73,-0.03975447257,-0.1662154607
4.74,-0.05000934111,-0.1631740801
4.75,-0.06003925582,-0.1595021294
4.76,-0.06980558479,-0.1552158469
4.77,-0.07927084677,-0.150333828
4.78,-0.08839885434,-0.1448769449
4.79,-0.09715485153,-0.1388682578
4.8,-0.1055056454,-0.1323329176
4.81,-0.1134197311,-0.1252980603
4.82,-0.1208674097,-0.1177926951
4.83,-0.127820899,-0.1098475844
4.84,-0.1342544359,-0.1014951182
4.85,-0.140144371,-0.09276918176
4.86,-0.1454692544,-0.08370501843
4.87,-0.1502099126,-0.07433908752
4.88,-0.1543495164,-0.06470891769
4.89,-0.157873639,-0.0548529568
4.9,-0.1607703053,-0.04481041858
4.91,-0.1630300304,-0.0346211269
4.92,-0.1646458494,-0.02432535807
4.93,-0.165613336,-0.01396368194
4.94,-0.1659306122,-0.003576802419
4.95,-0.1655983475,0.006794602099
4.96,-0.1646197482,0.0171100376
4.97,-0.1630005367,0.02732935213
4.98,-0.1607489214,0.03741289157
4.99,-0.1578755567,0.047321653
5,-0.1543934935,0.05701743498
5.01,-0.1503181209,0.06646298423
5.02,-0.1456670986,0.07562213813
5.03,-0.1404602809,0.08445996247
5.04,-0.134719632,0.092942884
5.05,-0.1284691339,0.1010388171
5.06,-0.1217346862,0.1087172846
5.07,-0.1145439991,0.1159495313
5.08,-0.1069264796,0.122708631
5.09,-0.09891311139,0.1289695858
5.1,-0.09053632891,0.1347094175
5.11,-0.08182988639,0.139907251
5.12,-0.07282872201,0.144544389
5.13,-0.0635688179,0.148604378
5.14,-0.05408705654,0.1520730658
5.15,-0.04442107419,0.1549386491
5.16,-0.03460911171,0.1571917123
5.17,-0.02468986365,0.1588252568
5.18,-0.01470232597,0.1598347205
5.19,-0.004685643111,0.1602179884
5.2,0.005321044983,0.1599753925
5.21,0.0152787554,0.1591097037
5.22,0.02514881366,0.1576261125
5.23,0.03489300336,0.1555322022
5.24,0.04447371372,0.1528379109
5.25,0.05385408406,0.1495554863
5.26,0.06299814514,0.1456994304
5.27,0.07187095637,0.141286436
5.28,0.08043873869,0.1363353149
5.29,0.08866900249,0.1308669184
5.3,0.09653067005,0.1249040492
5.31,0.1039941921,0.1184713673
5.32,0.1110316583,0.1115952876
5.33,0.1176169004,0.104303872
5.34,0.123725589,0.09662671522
5.35,0.1293353224,0.0885948245
5.36,0.1344257077,0.08024049499
5.37,0.1389784341,0.07159717993
5.38,0.1429773376,0.06269935702
5.39,0.1464084572,0.05358239113
5.4,0.1492600825,0.04428239404
5.41,0.1515227922,0.03483608175
5.42,0.1531894837,0.0252806298
5.43,0.1542553935,0.01565352737
5.44,0.1547181087,0.005992430583
5.45,0.1545775691,-0.003664984415
5.46,0.1538360601,-0.01328116791
5.47,0.1524981966,-0.02281884218
5.48,0.150570898,-0.03224114551
5.49,0.1480633543,-0.04151177413
5.5,0.1449869832,-0.05059512157
5.51,0.1413553794,-0.05945641481
5.52,0.1371842544,-0.06806184685
5.53,0.1324913697,-0.07637870499
5.54,0.1272964612,-0.0843754946
5.55,0.1216211564,-0.09202205762
5.56,0.115488885,-0.09928968565
5.57,0.1089247823,-0.1061512269
5.58,0.1019555863,-0.112581187
5.59,0.09460952915,-0.1185558227
5.6,0.08691622288,-0.1240532289
5.61,0.07890654048,-0.1290534177
5.62,0.0706124921,-0.1335383908
5.63,0.06206709743,-0.1374922025
5.64,0.05330425456,-0.140901016
5.65,0.04435860572,-0.1437531502
5.66,0.03526540073,-0.1460391186
5.67,0.02606035837,-0.1477516598
5.68,0.01677952645,-0.1488857581
5.69,0.007459141024,-0.1494386571
5.7,-0.001864514697,-0.149409863
5.71,-0.01115525116,-0.1488011396
5.72,-0.0203771125,-0.1476164948
5.73,-0.02949451519,-0.1458621585
5.74,-0.03847238487,-0.1435465514
5.75,-0.04727629076,-0.1406802459
5.76,-0.0558725771,-0.1372759184
5.77,-0.06422849126,-0.1333482944
5.78,-0.07231230795,-0.1289140847
5.79,-0.08009344897,-0.1239919149
5.8,-0.0875425983,-0.1186022475
5.81,-0.09463181176,-0.1127672972
5.82,-0.1013346212,-0.1065109394
5.83,-0.1076261326,-0.09985861292
5.84,-0.1134831175,-0.09283721663
5.85,-0.1188840984,-0.0854750011
5.86,-0.1238094262,-0.07780145509
5.87,-0.128241351,-0.06984718768
5.88,-0.1321640852,-0.06164380645
5.89,-0.1355638586,-0.05322379219
5.9,-0.1384289657,-0.04462037052
5.91,-0.1407498048,-0.03586738118
5.92,-0.142518909,-0.0269991452
5.93,-0.1437309685,-0.0180503307
5.94,-0.1443828451,-0.00905581778
5.95,-0.1444735773,-5.056291364E-05
5.96,-0.1440043781,0.008930536437
5.97,-0.1429786235,0.01785277662
5.98,-0.1414018332,0.02668178139
5.99,-0.1392816428,0.0353836339
6,-0.136627768,0.04392500641
