"Freq [GHz]","re(S(Tx_p1,Tx_p1)) []","im(S(Tx_p1,Tx_p1)) []"
1,-0.2378486871,0.06109757888
1.01,-0.2339362218,0.07475216937
1.02,-0.2292258113,0.08817606814
1.03,-0.2237306,0.1013211063
1.04,-0.2174667388,0.1141398986
1.05,-0.2104533324,0.126586034
1.06,-0.2027123757,0.1386142623
1.07,-0.1942686776,0.1501806765
1.08,-0.1851497741,0.1612428896
1.09,-0.1753858297,0.1717602061
1.1,-0.1650095291,0.1816937861
1.11,-0.1540559577,0.1910068028
1.12,-0.1425624734,0.1996645922
1.13,-0.1305685682,0.2076347937
1.14,-0.1181157222,0.2148874822
1.15,-0.1052472484,0.2213952911
1.16,-0.09200813163,0.2271335242
1.17,-0.07844485889,0.2320802582
1.18,-0.06460524505,0.2362164339
1.19,-0.05053825239,0.2395259362
1.2,-0.03629380562,0.2419956629
1.21,-0.02192260297,0.2436155813
1.22,-0.007475924037,0.2443787733
1.23,0.00699456484,0.244281468
1.24,0.02143700685,0.2433230621
1.25,0.03579955193,0.2415061281
1.26,0.05003055411,0.2388364098
1.27,0.06407876819,0.2353228059
1.28,0.07789354504,0.2309773409
1.29,0.09142502469,0.2258151241
1.3,0.1046243265,0.2198542965
1.31,0.1174437356,0.2131159657
1.32,0.129836885,0.2056241297
1.33,0.1417589325,0.1974055894
1.34,0.1531667317,0.1884898497
1.35,0.1640189968,0.1789090109
1.36,0.1742764601,0.1686976493
1.37,0.1839020216,0.1578926889
1.38,0.1928608906,0.1465332638
1.39,0.2011207182,0.1346605714
1.4,0.2086517208,0.1223177189
1.41,0.2154267931,0.1095495614
1.42,0.2214216113,0.09640253381
1.43,0.2266147257,0.08292447662
1.44,0.2309876421,0.06916445604
1.45,0.2345248915,0.05517257986
1.46,0.2372140891,0.0409998091
1.47,0.2390459805,0.02669776653
1.48,0.2400144765,0.01231854266
1.49,0.2401166759,-0.002085499899
1.5,0.2393528755,-0.01646192311
1.51,0.2377265687,-0.03075841037
1.52,0.235244431,-0.0449229628
1.53,0.2319162943,-0.05890409421
1.54,0.2277551084,-0.07265102401
1.55,0.2227768912,-0.08611386728
1.56,0.2170006669,-0.09924382133
1.57,0.2104483929,-0.111993348
1.58,0.2031448762,-0.1243163509
1.59,0.1951176775,-0.1361683474
1.6,0.1863970069,-0.1475066335
1.61,0.177015608,-0.158290443
1.62,0.1670086333,-0.1684810979
1.63,0.1564135108,-0.1780421519
1.64,0.145269801,-0.186939524
1.65,0.1336190474,-0.1951416242
1.66,0.1215046187,-0.2026194691
1.67,0.1089715444,-0.2093467869
1.68,0.09606634465,-0.2153001132
1.69,0.08283685449,-0.2204588751
1.7,0.06933204324,-0.2248054646
1.71,0.05560182998,-0.2283253004
1.72,0.04169689571,-0.2310068789
1.73,0.02766849284,-0.2328418125
1.74,0.0135682528,-0.2338248567
1.75,-0.0005520073978,-0.2339539251
1.76,-0.01464047908,-0.2332300924
1.77,-0.02864555544,-0.2316575857
1.78,-0.04251602402,-0.2292437635
1.79,-0.0562012573,-0.2259990832
1.8,-0.06965140084,-0.2219370571
1.81,-0.08281755809,-0.2170741962
1.82,-0.09565197132,-0.2114299441
1.83,-0.1081081979,-0.2050265985
1.84,-0.1201412811,-0.1978892232
1.85,-0.1317079155,-0.1900455494
1.86,-0.1427666051,-0.1815258671
1.87,-0.1532778149,-0.172362907
1.88,-0.1632041146,-0.1625917141
1.89,-0.1725103138,-0.1522495116
1.9,-0.181163589,-0.1413755585
1.91,-0.1891336011,-0.1300109982
1.92,-0.1963926032,-0.1181987016
1.93,-0.2029155388,-0.1059831036
1.94,-0.2086801291,-0.09341003373
1.95,-0.2136669505,-0.08052654233
1.96,-0.2178595,-0.06738072266
1.97,-0.2212442508,-0.05402152913
1.98,-0.2238106954,-0.04049859292
1.99,-0.2255513781,-0.02686203546
2,-0.2264619155,-0.01316228055
2.01,-0.2265410058,0.000550134225
2.02,-0.2257904259,0.01422474602
2.03,-0.2242150177,0.02781135453
2.04,-0.221822662,0.0412602083
2.05,-0.2186242423,0.05452218889
2.06,-0.2146335963,0.06754899217
2.07,-0.2098674571,0.08029330609
2.08,-0.2043453833,0.09270898431
2.09,-0.198089679,0.1047512149
2.1,-0.1911253039,0.1163766837
2.11,-0.1834797728,0.1275437314
2.12,-0.175183047,0.1382125043
2.13,-0.1662674158,0.148345098
2.14,-0.1567673706,0.1579056923
2.15,-0.1467194701,0.1668606796
2.16,-0.1361621987,0.1751787834
2.17,-0.1251358184,0.182831168
2.18,-0.1136822138,0.1897915393
2.19,-0.1018447317,0.196036235
2.2,-0.089668016,0.2015443049
2.21,-0.07719783813,0.2062975817
2.22,-0.06448092342,0.2102807396
2.23,-0.05156477484,0.2134813437
2.24,-0.0384974942,0.2158898872
2.25,-0.02532760167,0.2174998182
2.26,-0.01210385433,0.2183075553
2.27,0.001124935656,0.218312492
2.28,0.01431008246,0.2175169901
2.29,0.02740320699,0.2159263612
2.3,0.04035641551,0.2135488391
2.31,0.05312247601,0.2103955393
2.32,0.06565499142,0.206480409
2.33,0.07790856917,0.201820167
2.34,0.0898389865,0.1964342325
2.35,0.1014033509,0.1903446444
2.36,0.1125602548,0.1835759717
2.37,0.1232699247,0.1761552142
2.38,0.1334943631,0.1681116942
2.39,0.1431974842,0.1594769406
2.4,0.1523452407,0.1502845648
2.41,0.160905744,0.1405701292
2.42,0.1688493753,0.1303710092
2.43,0.1761488873,0.1197262484
2.44,0.1827794982,0.1086764086
2.45,0.1887189744,0.09726341464
2.46,0.1939477049,0.08553039407
2.47,0.1984487652,0.07352151377
2.48,0.2022079704,0.06128181271
2.49,0.2052139189,0.04885703225
2.5,0.2074580249,0.03629344436
2.51,0.2089345407,0.02363767859
2.52,0.209640568,0.01093654818
2.53,0.209576059,-0.001763123778
2.54,0.2087438066,-0.01441467762
2.55,0.207149424,-0.02697178918
2.56,0.2048013146,-0.03938863997
2.57,0.2017106306,-0.05162008489
2.58,0.1978912224,-0.06362181673
2.59,0.1933595774,-0.0753505271
2.6,0.1881347505,-0.08676406297
2.61,0.1822382836,-0.09782157833
2.62,0.1756941177,-0.1084836805
2.63,0.1685284956,-0.1187125706
2.64,0.1607698569,-0.128472177
2.65,0.1524487244,-0.1377282831
2.66,0.1435975846,-0.1464486462
2.67,0.1342507598,-0.1546031099
2.68,0.1244442754,-0.1621637076
2.69,0.1142157201,-0.1691047578
2.7,0.1036041017,-0.1754029505
2.71,0.09264969774,-0.1810374245
2.72,0.08139390236,-0.185989835
2.73,0.06987906927,-0.1902444128
2.74,0.05814835199,-0.1937880117
2.75,0.04624554172,-0.1966101482
2.76,0.03421490343,-0.1987030299
2.77,0.0221010109,-0.2000615736
2.78,0.009948581185,-0.2006834148
2.79,-0.002197690721,-0.2005689052
2.8,-0.01429329655,-0.1997211019
2.81,-0.02629407803,-0.1981457453
2.82,-0.03815638829,-0.1958512282
2.83,-0.04983725066,-0.1928485542
2.84,-0.06129451442,-0.1891512879
2.85,-0.07248700685,-0.1847754943
2.86,-0.08337468106,-0.1797396709
2.87,-0.0939187591,-0.1740646695
2.88,-0.1040818698,-0.1677736108
2.89,-0.1138281808,-0.1608917904
2.9,-0.1231235246,-0.153446577
2.91,-0.1319355175,-0.1454673042
2.92,-0.1402336721,-0.1369851545
2.93,-0.1479895017,-0.1280330376
2.94,-0.1551766176,-0.1186454622
2.95,-0.1617708175,-0.1088584036
2.96,-0.1677501662,-0.09870916498
2.97,-0.173095067,-0.08823623538
2.98,-0.1777883248,-0.07747914351
2.99,-0.1818151994,-0.06647830836
3,-0.1851634505,-0.05527488719
3.01,-0.1878233719,-0.04391062142
3.02,-0.189787818,-0.03242768097
3.03,-0.1910522191,-0.0208685077
3.04,-0.1916145881,-0.009275658525
3.05,-0.1914755178,0.002308351327
3.06,-0.1906381679,0.01384120417
3.07,-0.1891082432,0.02528093437
3.08,-0.1868939628,0.03658608096
3.09,-0.1840060192,0.04771583763
3.1,-0.1804575298,0.05863019988
3.11,-0.1762639783,0.06929010843
3.12,-0.1714431487,0.07965758864
3.13,-0.1660150509,0.08969588537
3.14,-0.1600018378,0.09936959273
3.15,-0.153427716,0.1086447784
3.16,-0.1463188483,0.117489102
3.17,-0.1387032498,0.1258719271
3.18,-0.130610678,0.1337644264
3.19,-0.1220725164,0.1411396799
3.2,-0.1131216532,0.1479727661
3.21,-0.1037923542,0.1542408444
3.22,-0.09412013213,0.1599232307
3.23,-0.08414161127,0.1650014641
3.24,-0.07389438885,0.1694593651
3.25,-0.06341689346,0.1732830858
3.26,-0.05274824097,0.1764611505
3.27,-0.04192808857,0.1789844883
3.28,-0.03099648747,0.180846456
3.29,-0.01999373476,0.1820428524
3.3,-0.008960224995,0.1825719237
3.31,0.002063697888,0.1824343596
3.32,0.01303788788,0.1816332804
3.33,0.02392254281,0.180174216
3.34,0.03467834842,0.1780650751
3.35,0.04526661998,0.1753161066
3.36,0.05564944101,0.1719398526
3.37,0.06578979861,0.1679510923
3.38,0.07565171484,0.1633667794
3.39,0.08520037383,0.1582059706
3.4,0.09440224402,0.1524897475
3.41,0.1032251952,0.1462411305
3.42,0.1116386099,0.1394849875
3.43,0.1196134889,0.1322479345
3.44,0.12712255,0.1245582317
3.45,0.1341403206,0.1164456731
3.46,0.140643223,0.1079414714
3.47,0.146609652,0.09907813804
3.48,0.152020046,0.08988935936
3.49,0.1568569492,0.08040986852
3.5,0.1611050665,0.0706753145
3.51,0.1647513102,0.06072212819
3.52,0.1677848382,0.0505873863
3.53,0.170197084,0.04030867341
3.54,0.1719817785,0.02992394287
3.55,0.1731349625,0.01947137686
3.56,0.1736549919,0.008989246328
3.57,0.1735425335,-0.001484228837
3.58,0.1728005529,-0.01191101882
3.59,0.1714342936,-0.0222534216
3.6,0.1694512484,-0.03247419883
3.61,0.1668611225,-0.04253670949
3.62,0.1636757886,-0.05240504072
3.63,0.1599092345,-0.06204413544
3.64,0.1555775029,-0.07141991634
3.65,0.1506986246,-0.08049940564
3.66,0.1452925439,-0.08925084044
3.67,0.1393810382,-0.09764378306
3.68,0.1329876307,-0.1056492261
3.69,0.1261374972,-0.1132396917
3.7,0.1188573678,-0.1203893252
3.71,0.1111754225,-0.1270739818
3.72,0.103121183,-0.1332713074
3.73,0.09472539928,-0.1389608117
3.74,0.08601993236,-0.1441239351
3.75,0.07703763404,-0.1487441076
3.76,0.06781222302,-0.1528068005
3.77,0.05837815863,-0.1562995704
3.78,0.04877051242,-0.1592120952
3.79,0.03902483811,-0.1615362027
3.8,0.02917704026,-0.1632658911
3.81,0.01926324243,-0.1643973408
3.82,0.009319654913,-0.1649289196
3.83,-0.0006175570602,-0.1648611784
3.84,-0.0105124045,-0.1641968402
3.85,-0.02032920456,-0.1629407809
3.86,-0.03003270874,-0.1611000018
3.87,-0.03958822899,-0.1586835951
3.88,-0.04896176113,-0.155702702
3.89,-0.05812010535,-0.1521704633
3.9,-0.06703098312,-0.1481019628
3.91,-0.07566315039,-0.1435141642
3.92,-0.08398650635,-0.1384258417
3.93,-0.09197219771,-0.1328575034
3.94,-0.0995927179,-0.1268313097
3.95,-0.106822001,-0.1203709859
3.96,-0.1136355098,-0.1135017289
3.97,-0.1200103184,-0.1062501096
3.98,-0.1259251881,-0.09864397066
3.99,-0.131360637,-0.09071231977
4,-0.1362990032,-0.08248521958
4.01,-0.1407245003,-0.07399367405
4.02,-0.1446232671,-0.06526951194
4.03,-0.1479834089,-0.05634526784
4.04,-0.1507950322,-0.04725406124
4.05,-0.1530502717,-0.03802947389
4.06,-0.1547433099,-0.02870542616
4.07,-0.1558703891,-0.01931605264
4.08,-0.1564298163,-0.009895577566
4.09,-0.1564219597,-0.0004781904662
4.1,-0.155849239,0.008902077505
4.11,-0.1547161069,0.01821147611
4.12,-0.1530290246,0.02741665699
4.13,-0.1507964291,0.03648479265
4.14,-0.1480286944,0.04538369299
4.15,-0.1447380851,0.05408191906
4.16,-0.1409387037,0.06254889346
4.17,-0.1366464317,0.07075500732
4.18,-0.1318788638,0.07867172309
4.19,-0.1266552371,0.08627167309
4.2,-0.1209963542,0.0935287534
4.21,-0.1149245007,0.1004182127
4.22,-0.1084633583,0.1069167358
4.23,-0.1016379129,0.1130025216
4.24,-0.09447435833,0.1186553555
4.25,-0.08699999645,0.123856675
4.26,-0.07924313336,0.1285896298
4.27,-0.07123297264,0.1328391354
4.28,-0.06299950578,0.1365919192
4.29,-0.05457340022,0.139836561
4.3,-0.04598588549,0.1425635256
4.31,-0.03726863783,0.1447651893
4.32,-0.02845366368,0.1464358587
4.33,-0.01957318255,0.1475717828
4.34,-0.01065950963,0.1481711577
4.35,-0.001744938564,0.1482341249
4.36,0.007138375145,0.1477627617
4.37,0.01595852968,0.146761065
4.38,0.02468399107,0.1452349288
4.39,0.03328370544,0.1431921141
4.4,0.04172720905,0.1406422122
4.41,0.04998473573,0.1375966027
4.42,0.05802732123,0.1340684036
4.43,0.06582690425,0.1300724166
4.44,0.07335642374,0.125625066
4.45,0.08058991213,0.120744332
4.46,0.08750258421,0.115449679
4.47,0.09407092128,0.1097619786
4.48,0.1002727504,0.1037034278
4.49,0.1060873184,0.09729746296
4.5,0.1114953604,0.09056866993
4.51,0.1164791626,0.08354268973
4.52,0.1210226194,0.07624612147
4.53,0.125111284,0.06870642199
4.54,0.1287324133,0.06095180294
4.55,0.1318750061,0.05301112555
4.56,0.1345298352,0.04491379356
4.57,0.1366894722,0.03668964471
4.58,0.1383483064,0.02836884112
4.59,0.139502557,0.01998175898
4.6,0.1401502782,0.01155887808
4.61,0.1402913582,0.003130671335
4.62,0.1399275109,-0.00527250507
4.63,0.1390622617,-0.01362052062
4.64,0.1377009267,-0.02188357812
4.65,0.1358505851,-0.03003231964
4.66,0.1335200458,-0.03803793033
4.67,0.1307198077,-0.04587223993
4.68,0.1274620145,-0.05350782133
4.69,0.1237604029,-0.06091808609
4.7,0.1196302462,-0.06807737647
4.71,0.115088292,-0.07496105369
4.72,0.1101526955,-0.08154558203
4.73,0.1048429471,-0.08780860871
4.74,0.09917979659,-0.09372903898
4.75,0.09318517207,-0.0992871064
4.76,0.086882096,-0.104464438
4.77,0.08029459699,-0.1092441141
4.78,0.07344761869,-0.1136107226
4.79,0.06636692566,-0.1175504076
4.8,0.05907900686,-0.1210509121
4.81,0.05161097683,-0.1241016151
4.82,0.04399047517,-0.126693562
4.83,0.03624556453,-0.128819489
4.84,0.02840462766,-0.1304738423
4.85,0.02049626361,-0.1316527894
4.86,0.01254918381,-0.1323542252
4.87,0.004592108137,-0.1325777717
4.88,-0.003346338577,-0.1323247715
4.89,-0.01123772913,-0.1315982745
4.9,-0.01905393542,-0.1304030197
4.91,-0.02676722832,-0.1287454098
4.92,-0.03435037564,-0.1266334804
4.93,-0.04177673789,-0.124076864
4.94,-0.0490203614,-0.1210867474
4.95,-0.05605606854,-0.1176758242
4.96,-0.06285954475,-0.1138582426
4.97,-0.06940742201,-0.1096495473
4.98,-0.07567735854,-0.1050666168
4.99,-0.08164811439,-0.1001275971
5,-0.08729962275,-0.09485182998
5.01,-0.09261305664,-0.08925977788
5.02,-0.09757089086,-0.08337294515
5.03,-0.1021569589,-0.07721379571
5.04,-0.1063565049,-0.07080566772
5.05,-0.1101562297,-0.06417268556
5.06,-0.1135443325,-0.05733966931
5.07,-0.1165105454,-0.05033204223
5.08,-0.1190461638,-0.04317573641
5.09,-0.1211440703,-0.03589709717
5.1,-0.1227987521,-0.02852278631
5.11,-0.1240063143,-0.02107968475
5.12,-0.1247644852,-0.01359479479
5.13,-0.1250726175,-0.006095142491
5.14,-0.1249316828,0.001392319652
5.15,-0.1243442601,0.008840809271
5.16,-0.1233145193,0.0162238096
5.17,-0.1218481981,0.02351516354
5.18,-0.1199525746,0.030689166
5.19,-0.1176364334,0.03772065412
5.2,-0.1149100265,0.04458509515
5.21,-0.1117850302,0.05125867161
5.22,-0.1082744958,0.05771836347
5.23,-0.1043927962,0.06394202708
5.24,-0.1001555677,0.06990847053
5.25,-0.09557964839,0.07559752524
5.26,-0.09068301115,0.08099011351
5.27,-0.08548469397,0.08606831184
5.28,-0.08000472636,0.09081540974
5.29,-0.07426405258,0.09521596391
5.3,-0.06828445195,0.09925584766
5.31,-0.06208845662,0.1029222952
5.32,-0.05569926696,0.106203941
5.33,-0.04914066498,0.1090908537
5.34,-0.04243692606,0.111574565
5.35,-0.03561272943,0.1136480929
5.36,-0.02869306749,0.1153059592
5.37,-0.02170315457,0.1165442026
5.38,-0.01466833532,0.1173603848
5.39,-0.007613992988,0.117753592
5.4,-0.0005654581786,0.117724431
5.41,0.006452081903,0.1172750193
5.42,0.01341367316,0.1164089702
5.43,0.02029468303,0.1151313724
5.44,0.02707088736,0.1134487645
5.45,0.03371855535,0.1113691045
5.46,0.04021453227,0.1089017341
5.47,0.04653631977,0.1060573383
5.48,0.05266215336,0.1028479006
5.49,0.05857107688,0.09928665341
5.5,0.06424301371,0.09538802428
5.51,0.06965883446,0.09116757846
5.52,0.07480042088,0.08664195721
5.53,0.07965072585,0.08182881273
5.54,0.08419382918,0.07674673983
5.55,0.08841498913,0.07141520451
5.56,0.0923006894,0.06585446971
5.57,0.09583868145,0.06008551872
5.58,0.09901802211,0.0541299762
5.59,0.1018291063,0.04801002746
5.6,0.1042636946,0.04174833603
5.61,0.1063149361,0.03536796001
5.62,0.107977386,0.0288922673
5.63,0.1092470177,0.02234485035
5.64,0.1101212306,0.01574944031
5.65,0.1105988516,0.009129821324
5.66,0.1106801324,0.002509744915
5.67,0.1103667414,-0.004087154964
5.68,0.1096617504,-0.01063744608
5.69,0.1085696164,-0.01711798088
5.7,0.1070961586,-0.02350597803
5.71,0.1052485305,-0.0297791022
5.72,0.1030351874,-0.03591554181
5.73,0.1004658499,-0.04189408454
5.74,0.09755146165,-0.04769419029
5.75,0.09430414465,-0.05329606126
5.76,0.09073714933,-0.05868070913
5.77,0.08686480135,-0.06383001892
5.78,0.08270244471,-0.06872680931
5.79,0.07826638146,-0.07335488945
5.8,0.07357380839,-0.07769911173
5.81,0.06864275071,-0.08174542071
5.82,0.06349199319,-0.08548089772
5.83,0.05814100894,-0.08889380121
5.84,0.05260988603,-0.0919736027
5.85,0.04691925233,-0.09471101809
5.86,0.04109019883,-0.09709803437
5.87,0.03514420168,-0.09912793173
5.88,0.02910304323,-0.1007953007
5.89,0.02298873244,-0.1020960547
5.9,0.01682342492,-0.1030274377
5.91,0.01062934278,-0.1035880269
5.92,0.004428694752,-0.103777731
5.93,-0.001756403242,-0.1035977833
5.94,-0.007904006751,-0.1030507301
5.95,-0.01399242044,-0.1021404152
5.96,-0.02000027438,-0.1008719583
5.97,-0.02590659884,-0.0992517306
5.98,-0.03169089711,-0.09728732512
5.99,-0.03733321636,-0.09498752278
6,-0.04281421611,-0.09236225477
