"Freq [GHz]","re(S(Tx_p1,Tx_p1)) []","im(S(Tx_p1,Tx_p1)) []"
1,-0.1079543254,0.05088369011
1.01,-0.1043024705,0.05683661465
1.02,-0.1003179137,0.06253702305
1.03,-0.09601817926,0.06796570296
1.04,-0.09142193967,0.07310470433
1.05,-0.08654892089,0.07793740852
1.06,-0.08141980315,0.08244859015
1.07,-0.07605611842,0.08662447135
1.08,-0.07048014502,0.09045276837
1.09,-0.06471479987,0.09392273029
1.1,-0.0587835291,0.09702516985
1.11,-0.05271019744,0.09975248628
1.12,-0.04651897711,0.1020986802
1.13,-0.04023423673,0.1040593604
1.14,-0.03388043076,0.1056317431
1.15,-0.02748199014,0.1068146431
1.16,-0.02106321464,0.1076084576
1.17,-0.01464816732,0.1080151428
1.18,-0.008260571855,0.1080381825
1.19,-0.001923712919,0.1076825509
1.2,0.004339659635,0.1069546686
1.21,0.01050742258,0.1058623514
1.22,0.01655816655,0.1044147544
1.23,0.02247127848,0.1026223103
1.24,0.02822701868,0.100496662
1.25,0.03380659252,0.09805059111
1.26,0.03919221621,0.09529794252
1.27,0.04436717655,0.09225354444
1.28,0.04931588445,0.08893312574
1.29,0.05402392202,0.08535323044
1.3,0.05847808307,0.08153112977
1.31,0.06266640709,0.07748473263
1.32,0.0665782064,0.07323249465
1.33,0.07020408674,0.06879332657
1.34,0.07353596107,0.06418650226
1.35,0.07656705684,0.05943156701
1.36,0.07929191673,0.05454824648
1.37,0.08170639292,0.04955635682
1.38,0.08380763526,0.0444757164
1.39,0.08559407333,0.03932605951
1.4,0.08706539273,0.03412695266
1.41,0.0882225058,0.02889771355
1.42,0.08906751711,0.02365733338
1.43,0.08960368393,0.01842440266
1.44,0.08983537216,0.01321704095
1.45,0.08976800785,0.008052830654
1.46,0.08940802492,0.002948755363
1.47,0.08876280926,-0.00207885724
1.48,0.08784063972,-0.007014387598
1.49,0.08665062631,-0.01184297149
1.5,0.08520264618,-0.01655054211
1.51,0.0835072775,-0.02112386691
1.52,0.08157573203,-0.02555057911
1.53,0.0794197865,-0.02981920389
1.54,0.07705171331,-0.0339191793
1.55,0.07448421106,-0.03784087173
1.56,0.07173033516,-0.04157558629
1.57,0.06880342899,-0.04511557191
1.58,0.06571705601,-0.04845402152
1.59,0.06248493309,-0.05158506728
1.6,0.05912086555,-0.05450377111
1.61,0.05563868414,-0.0572061108
1.62,0.05205218423,-0.05968896173
1.63,0.04837506769,-0.06195007464
1.64,0.04462088751,-0.06398804961
1.65,0.04080299549,-0.06580230658
1.66,0.03693449332,-0.06739305265
1.67,0.03302818697,-0.06876124653
1.68,0.02909654494,-0.06990856045
1.69,0.02515166006,-0.07083733985
1.7,0.02120521537,-0.07155056115
1.71,0.01726845379,-0.07205178804
1.72,0.01335215199,-0.07234512655
1.73,0.009466598066,-0.0724351792
1.74,0.005621573472,-0.07232699878
1.75,0.001826338762,-0.07202604179
1.76,-0.001910376635,-0.07153812214
1.77,-0.005580380839,-0.07086936521
1.78,-0.009176022198,-0.07002616283
1.79,-0.01269018838,-0.06901512911
1.8,-0.016116302,-0.06784305781
1.81,-0.01944831304,-0.06651688121
1.82,-0.02268068817,-0.06504363077
1.83,-0.0258083972,-0.0634304
1.84,-0.028826897,-0.06168430946
1.85,-0.03173211294,-0.05981247428
1.86,-0.03452041834,-0.05782197422
1.87,-0.03718861197,-0.05571982657
1.88,-0.03973389406,-0.05351296174
1.89,-0.04215384096,-0.05120820193
1.9,-0.04444637887,-0.04881224266
1.91,-0.04660975679,-0.04633163741
1.92,-0.04864251909,-0.0437727852
1.93,-0.05054347787,-0.04114192126
1.94,-0.05231168558,-0.03844511057
1.95,-0.05394640786,-0.03568824442
1.96,-0.05544709725,-0.03287703965
1.97,-0.05681336769,-0.0300170407
1.98,-0.05804497019,-0.02711362415
1.99,-0.05914176998,-0.0241720057
2,-0.06010372517,-0.02119724946
2.01,-0.06093086723,-0.01819427914
2.02,-0.06162328348,-0.01516789129
2.03,-0.06218110164,-0.01212277
2.04,-0.06260447669,-0.00906350311
2.05,-0.06289358011,-0.005994599569
2.06,-0.06304859151,-0.002920507668
2.07,-0.06306969292,0.0001543660168
2.08,-0.06295706552,0.00322563731
2.09,-0.0627108891,0.006288924969
2.1,-0.06233134398,0.009339831345
2.11,-0.06181861565,0.01237392343
2.12,-0.06117290178,0.01538671456
2.13,-0.06039442179,0.01837364696
2.14,-0.05948342872,0.02133007552
2.15,-0.05844022333,0.02425125286
2.16,-0.05726517029,0.02713231604
2.17,-0.05595871638,0.02996827507
2.18,-0.0545214103,0.03275400343
2.19,-0.05295392419,0.03548423077
2.2,-0.05125707643,0.03815353795
2.21,-0.04943185558,0.04075635462
2.22,-0.0474794452,0.04328695936
2.23,-0.04540124934,0.04573948259
2.24,-0.04319891834,0.04810791219
2.25,-0.04087437488,0.05038610213
2.26,-0.03842983971,0.05256778382
2.27,-0.03586785706,0.05464658048
2.28,-0.03319131931,0.05661602436
2.29,-0.03040349069,0.05846957677
2.3,-0.02750802965,0.06020065095
2.31,-0.02450900982,0.06180263757
2.32,-0.02141093911,0.06326893292
2.33,-0.01821877677,0.06459296941
2.34,-0.01493794815,0.06576824848
2.35,-0.01157435705,0.06678837557
2.36,-0.008134395184,0.067647097
2.37,-0.00462494884,0.06833833859
2.38,-0.001053402363,0.06885624571
2.39,0.002572361613,0.06919522453
2.4,0.006243965356,0.06934998423
2.41,0.009952542765,0.06931557987
2.42,0.01368874973,0.06908745563
2.43,0.01744277822,0.06866148807
2.44,0.02120437406,0.06803402919
2.45,0.02496285863,0.06720194895
2.46,0.02870715414,0.06616267679
2.47,0.03242581286,0.06491424209
2.48,0.03610704988,0.06345531299
2.49,0.03973877955,0.06178523343
2.5,0.04330865544,0.05990405799
2.51,0.04680411361,0.05781258433
2.52,0.05021241908,0.05551238274
2.53,0.0535207154,0.05300582277
2.54,0.05671607689,0.0502960965
2.55,0.05978556361,0.04738723818
2.56,0.06271627847,0.04428414009
2.57,0.06549542655,0.04099256437
2.58,0.06811037603,0.03751915059
2.59,0.07054872064,0.03387141888
2.6,0.07279834314,0.03005776848
2.61,0.07484747963,0.02608747168
2.62,0.07668478419,0.02197066277
2.63,0.07829939359,0.01771832229
2.64,0.07968099167,0.0133422562
2.65,0.08081987298,0.008855070189
2.66,0.08170700533,0.004270138984
2.67,0.08233409084,-0.0003984292143
2.68,0.08269362509,-0.005135833151
2.69,0.08277895413,-0.009926623655
2.7,0.08258432866,-0.0147547534
2.71,0.08210495545,-0.01960363108
2.72,0.08133704519,-0.0244561799
2.73,0.08027785678,-0.02929490003
2.74,0.07892573753,-0.03410193492
2.75,0.07728015906,-0.0388591411
2.76,0.07534174848,-0.04354816127
2.77,0.07311231476,-0.04815050017
2.78,0.07059486986,-0.05264760321
2.79,0.06779364453,-0.05702093712
2.8,0.06471409847,-0.06125207255
2.81,0.06136292476,-0.06532276806
2.82,0.05774804839,-0.06921505507
2.83,0.05387861877,-0.07291132353
2.84,0.0497649961,-0.07639440757
2.85,0.04541873168,-0.07964767104
2.86,0.04085254196,-0.08265509217
2.87,0.03608027652,-0.08540134711
2.88,0.0311168799,-0.08787189181
2.89,0.02597834743,-0.09005304179
2.9,0.02068167521,-0.09193204941
2.91,0.01524480423,-0.09349717807
2.92,0.009686559106,-0.09473777312
2.93,0.004026581267,-0.09564432883
2.94,-0.001714742781,-0.09620855115
2.95,-0.007516358101,-0.09642341593
2.96,-0.01335662245,-0.09628322201
2.97,-0.01921339161,-0.09578363907
2.98,-0.02506410843,-0.09492174982
2.99,-0.03088589547,-0.09369608616
3,-0.03665565046,-0.09210665914
3.01,-0.04235014446,-0.09015498252
3.02,-0.04794612215,-0.08784408953
3.03,-0.05342040372,-0.08517854283
3.04,-0.05874998798,-0.08216443747
3.05,-0.0639121562,-0.07880939669
3.06,-0.06888457602,-0.07512256057
3.07,-0.0736454052,-0.07111456741
3.08,-0.07817339439,-0.06679752787
3.09,-0.08244798861,-0.06218499197
3.1,-0.0864494269,-0.05729190882
3.11,-0.09015883952,-0.05213457953
3.12,-0.09355834234,-0.04673060301
3.13,-0.09663112781,-0.04109881525
3.14,-0.09936155212,-0.03525922208
3.15,-0.101735218,-0.02923292562
3.16,-0.1037390528,-0.02304204488
3.17,-0.1053613813,-0.01670963073
3.18,-0.1065919931,-0.01025957556
3.19,-0.1074222036,-0.003716518051
3.2,-0.1078449092,0.002894256463
3.21,-0.1078546353,0.009546919778
3.22,-0.1074475779,0.01621520813
3.23,-0.1066216371,0.02287253265
3.24,-0.1053764441,0.02949209237
3.25,-0.1037133801,0.0360469894
3.26,-0.101635587,0.04251034561
3.27,-0.09914797069,0.04885542035
3.28,-0.09625719635,0.05505572863
3.29,-0.09297167513,0.06108515922
3.3,-0.0893015432,0.06691809206
3.31,-0.08525863265,0.07252951449
3.32,-0.08085643433,0.07789513568
3.33,-0.07611005288,0.08299149873
3.34,-0.07103615412,0.08779608986
3.35,-0.06565290479,0.09228744425
3.36,-0.05997990511,0.09644524779
3.37,-0.0540381143,0.1002504346
3.38,-0.04784976933,0.1036852792
3.39,-0.04143829742,0.106733484
3.4,-0.03482822235,0.10938026
3.41,-0.02804506536,0.1116124018
3.42,-0.02111524074,0.1134183559
3.43,-0.01406594677,0.114788282
3.44,-0.006925052401,0.1157141066
3.45,0.0002790197535,0.1161895692
3.46,0.007517413654,0.1162102608
3.47,0.01476096271,0.1157736535
3.48,0.02198031472,0.1148791232
3.49,0.02914605839,0.1135279622
3.5,0.03622885071,0.1117233843
3.51,0.04319954476,0.1094705211
3.52,0.05002931714,0.1067764094
3.53,0.05668979474,0.10364997
3.54,0.06315317989,0.1001019784
3.55,0.06939237361,0.09614502654
3.56,0.07538109622,0.09179347635
3.57,0.08109400475,0.08706340521
3.58,0.08650680667,0.08197254359
3.59,0.09159636933,0.07654020489
3.6,0.09634082461,0.07078720806
3.61,0.1007196683,0.0647357931
3.62,0.1047138537,0.05840953001
3.63,0.1083058789,0.05183322147
3.64,0.111479868,0.04503279965
3.65,0.1142216441,0.03803521782
3.66,0.1165187965,0.0308683369
3.67,0.1183607386,0.02356080788
3.68,0.1197387593,0.01614195023
3.69,0.1206460649,0.008641627158
3.7,0.1210778136,0.001090118162
3.71,0.1210311404,-0.0064820106
3.72,0.1205051742,-0.0140440374
3.73,0.1195010454,-0.02156521698
3.74,0.1180218848,-0.02901491294
3.75,0.116072814,-0.03636272979
3.76,0.1136609261,-0.04357864416
3.77,0.1107952587,-0.05063313453
3.78,0.1074867572,-0.05749730882
3.79,0.1037482305,-0.06414302935
3.8,0.09959429781,-0.07054303461
3.81,0.09504132777,-0.07667105713
3.82,0.09010736948,-0.08250193711
3.83,0.08481207637,-0.08801173117
3.84,0.07917662277,-0.09317781573
3.85,0.07322361386,-0.09797898463
3.86,0.06697698922,-0.1023955404
3.87,0.06046192055,-0.1064093791
3.88,0.05370470397,-0.1100040676
3.89,0.0467326474,-0.1131649143
3.9,0.03957395356,-0.115879031
3.91,0.03225759908,-0.1181353882
3.92,0.02481321033,-0.1199248608
3.93,0.01727093646,-0.1212402664
3.94,0.009661320316,-0.1220763941
3.95,0.00201516777,-0.1224300259
3.96,-0.00563658396,-0.1222999479
3.97,-0.01326299836,-0.1216869536
3.98,-0.02083327145,-0.1205938382
3.99,-0.02831686284,-0.1190253839
4,-0.03568362538,-0.1169883368
4.01,-0.04290393284,-0.114491375
4.02,-0.04994880502,-0.1115450687
4.03,-0.05679002981,-0.1081618316
4.04,-0.06340028156,-0.1043558648
4.05,-0.06975323532,-0.1001430926
4.06,-0.07582367641,-0.09554109148
4.07,-0.08158760485,-0.09056901161
4.08,-0.08702233417,-0.08524749186
4.09,-0.09210658423,-0.07959856861
4.1,-0.09682056765,-0.07364557876
4.11,-0.1011460694,-0.06741305731
4.12,-0.1050665193,-0.06092663017
4.13,-0.1085670573,-0.05421290249
4.14,-0.1116345906,-0.04729934322
4.15,-0.1142578435,-0.04021416632
4.16,-0.1164273989,-0.03298620917
4.17,-0.1181357313,-0.02564480877
4.18,-0.119377232,-0.01821967633
4.19,-0.1201482252,-0.01074077065
4.2,-0.1204469768,-0.003238171108
4.21,-0.120273693,0.004258049385
4.22,-0.1196305127,0.0117179508
4.23,-0.1185214895,0.01911185125
4.24,-0.1169525668,0.02641045046
4.25,-0.1149315446,0.0335849511
4.26,-0.1124680381,0.0406071772
4.27,-0.1095734294,0.04744968938
4.28,-0.1062608109,0.05408589617
4.29,-0.1025449225,0.06049016123
4.3,-0.09844208155,0.06663790568
4.31,-0.09397010672,0.07250570548
4.32,-0.08914823563,0.07807138311
4.33,-0.08399703704,0.08331409348
4.34,-0.07853831778,0.08821440352
4.35,-0.07279502503,0.09275436531
4.36,-0.06679114421,0.09691758223
4.37,-0.06055159326,0.1006892682
4.38,-0.05410211346,0.1040562997
4.39,-0.04746915759,0.1070072598
4.4,-0.04067977575,0.1095324755
4.41,-0.03376149945,0.1116240467
4.42,-0.02674222446,0.1132758673
4.43,-0.01965009302,0.1144836392
4.44,-0.01251337574,0.1152448778
4.45,-0.005360353985,0.1155589103
4.46,0.001780797002,0.1154268656
4.47,0.008882123545,0.1148516574
4.48,0.01591600717,0.1138379595
4.49,0.02285527589,0.1123921738
4.5,0.02967331269,0.110522391
4.51,0.03634416079,0.1082383455
4.52,0.04284262518,0.105551362
4.53,0.04914437014,0.1024742979
4.54,0.0552260122,0.0990214777
4.55,0.06106520833,0.09520862339
4.56,0.06664073895,0.09105277869
4.57,0.07193258542,0.08657222866
4.58,0.07692200181,0.08178641485
4.59,0.08159158062,0.07671584638
4.6,0.08592531229,0.07138200732
4.61,0.08990863821,0.06580726092
4.62,0.09352849723,0.06001475107
4.63,0.09677336539,0.0540283015
4.64,0.09963328878,0.0478723131
4.65,0.1020999096,0.04157165987
4.66,0.1041664853,0.03515158404
4.67,0.1058279007,0.02863759065
4.68,0.1070806731,0.02205534221
4.69,0.1079229509,0.01543055383
4.7,0.1083545052,0.008788889239
4.71,0.1083767149,0.00215585817
4.72,0.1079925449,-0.004443284456
4.73,0.1072065188,-0.01098363719
4.74,0.1060246844,-0.01744074809
4.75,0.1044545745,-0.02379070784
4.76,0.1025051606,-0.03001023951
4.77,0.1001868031,-0.03607678466
4.78,0.09751119418,-0.04196858544
4.79,0.09449129793,-0.04766476247
4.8,0.09114128459,-0.05314538807
4.81,0.0874764614,-0.05839155478
4.82,0.08351319939,-0.06338543876
4.83,0.07926885678,-0.06811035802
4.84,0.07476169942,-0.07255082525
4.85,0.07001081851,-0.07669259503
4.86,0.06503604599,-0.08052270545
4.87,0.05985786819,-0.08402951392
4.88,0.05449733785,-0.08720272719
4.89,0.04897598512,-0.09003342545
4.9,0.04331572781,-0.09251408058
4.91,0.03753878138,-0.09463856855
4.92,0.03166756889,-0.09640217597
4.93,0.02572463156,-0.09780160089
4.94,0.01973253995,-0.09883494791
4.95,0.01371380643,-0.09950171771
4.96,0.007690799159,-0.09980279126
4.97,0.001685657851,-0.09974040859
4.98,-0.004279788233,-0.09931814263
4.99,-0.01018409985,-0.09854086802
5,-0.01600630454,-0.09741472531
5.01,-0.02172597045,-0.09594708068
5.02,-0.02732327674,-0.09414648147
5.03,-0.03277908057,-0.09202260769
5.04,-0.03807498036,-0.08958621993
5.05,-0.04319337503,-0.08684910384
5.06,-0.04811751928,-0.08382401144
5.07,-0.05283157451,-0.08052459974
5.08,-0.05732065542,-0.07696536674
5.09,-0.06157087214,-0.07316158526
5.1,-0.06556936775,-0.06912923494
5.11,-0.0693043512,-0.06488493262
5.12,-0.07276512555,-0.06044586143
5.13,-0.07594211152,-0.05582969899
5.14,-0.07882686632,-0.051054545
5.15,-0.08141209783,-0.04613884835
5.16,-0.08369167416,-0.0411013344
5.17,-0.08566062855,-0.03596093237
5.18,-0.0873151599,-0.03073670333
5.19,-0.08865262875,-0.02544776902
5.2,-0.08967154906,-0.02011324174
5.21,-0.09037157581,-0.01475215562
5.22,-0.09075348852,-0.009383399387
5.23,-0.09081917097,-0.00402565106
5.24,-0.09057158711,0.001302685393
5.25,-0.09001475358,0.006583541151
5.26,-0.08915370876,0.0117992412
5.27,-0.08799447876,0.01693256042
5.28,-0.08654404048,0.02196677689
5.29,-0.08481028188,0.02688572234
5.3,-0.08280195983,0.03167382957
5.31,-0.08052865563,0.03631617672
5.32,-0.07800072851,0.04079852836
5.33,-0.07522926729,0.04510737326
5.34,-0.07222604046,0.04922995884
5.35,-0.06900344485,0.05315432217
5.36,-0.06557445329,0.05686931762
5.37,-0.06195256117,0.06036464094
5.38,-0.05815173253,0.06363085008
5.39,-0.05418634546,0.0666593824
5.4,-0.05007113748,0.06944256864
5.41,-0.04582115065,0.07197364343
5.42,-0.04145167701,0.07424675253
5.43,-0.03697820426,0.07625695688
5.44,-0.03241636203,0.07800023341
5.45,-0.02778186886,0.07947347287
5.46,-0.02309048001,0.08067447458
5.47,-0.01835793638,0.08160193846
5.48,-0.01359991458,0.08225545411
5.49,-0.008831978289,0.08263548744
5.5,-0.004069531169,0.08274336466
5.51,0.0006722287588,0.08258125394
5.52,0.005378352991,0.08215214483
5.53,0.01003418467,0.08145982556
5.54,0.01462539886,0.08050885835
5.55,0.01913804086,0.07930455293
5.56,0.02355856255,0.0778529384
5.57,0.02787385671,0.07616073347
5.58,0.03207128913,0.07423531542
5.59,0.03613872878,0.07208468771
5.6,0.04006457564,0.06971744656
5.61,0.04383778649,0.06714274653
5.62,0.04744789846,0.06437026524
5.63,0.05088505049,0.06141016746
5.64,0.0541400025,0.05827306859
5.65,0.05720415254,0.05496999767
5.66,0.06006955174,0.0515123601
5.67,0.06272891725,0.04791190015
5.68,0.065175643,0.04418066337
5.69,0.06740380858,0.04033095895
5.7,0.06940818606,0.03637532226
5.71,0.07118424495,0.03232647756
5.72,0.0727281552,0.02819730093
5.73,0.07403678852,0.02400078365
5.74,0.07510771782,0.01974999596
5.75,0.07593921501,0.01545805138
5.76,0.07653024721,0.0111380715
5.77,0.07688047126,0.006803151544
5.78,0.07699022685,0.002466326479
5.79,0.07686052811,-0.001859462056
5.8,0.07649305387,-0.006161398095
5.81,0.07589013652,-0.01042682285
5.82,0.07505474971,-0.01464326541
5.83,0.07399049471,-0.01879847249
5.84,0.07270158573,-0.0228804374
5.85,0.07119283406,-0.02687742792
5.86,0.06946963122,-0.03077801344
5.87,0.06753793106,-0.03457109093
5.88,0.06540423098,-0.03824591007
5.89,0.06307555218,-0.04179209734
5.9,0.06055941913,-0.04519967911
5.91,0.05786383814,-0.04845910371
5.92,0.05499727521,-0.05156126252
5.93,0.05196863317,-0.05449750995
5.94,0.04878722804,-0.05725968245
5.95,0.04546276478,-0.05984011641
5.96,0.04200531239,-0.06223166508
5.97,0.03842527844,-0.06442771432
5.98,0.03473338296,-0.06642219736
5.99,0.03094063184,-0.06820960837
6,0.02705828968,-0.06978501505
