"Freq [GHz]","re(S(Tx_p1,Tx_p1)) []","im(S(Tx_p1,Tx_p1)) []"
1,-0.1199188459,0.06412581018
1.01,-0.1154271869,0.0707149683
1.02,-0.1105713496,0.07699753968
1.03,-0.1053724723,0.08295296694
1.04,-0.09985287556,0.08856221078
1.05,-0.0940359477,0.09380781681
1.06,-0.0879460271,0.09867397348
1.07,-0.08160828174,0.1031465611
1.08,-0.07504858664,0.1072131917
1.09,-0.06829339982,0.1108632402
1.1,-0.06136963759,0.1140878656
1.11,-0.05430454972,0.1168800245
1.12,-0.04712559523,0.1192344742
1.13,-0.03986031936,0.1211477683
1.14,-0.03253623241,0.122618243
1.15,-0.02518069101,0.1236459951
1.16,-0.01782078237,0.1242328526
1.17,-0.01048321216,0.1243823367
1.18,-0.003194196318,0.1240996171
1.19,0.004020642415,0.12339146
1.2,0.01113637313,0.1222661698
1.21,0.01812884991,0.1207335245
1.22,0.02497479923,0.1188047056
1.23,0.03165190126,0.116492223
1.24,0.03813886485,0.113809835
1.25,0.04441549582,0.1107724645
1.26,0.05046275845,0.1073961118
1.27,0.05626283007,0.103697764
1.28,0.06179914845,0.09969530235
1.29,0.0670564521,0.09540740757
1.3,0.07202081342,0.09085346402
1.31,0.07667966465,0.0860534629
1.32,0.08102181669,0.08102790542
1.33,0.08503747101,0.07579770611
1.34,0.08871822458,0.07038409706
1.35,0.09205706822,0.06480853339
1.36,0.09504837841,0.05909260053
1.37,0.09768790284,0.05325792367
1.38,0.09997274008,0.04732607989
1.39,0.1019013135,0.04131851331
1.4,0.1034733399,0.0352564536
1.41,0.1046897931,0.02916083827
1.42,0.105552863,0.02305223894
1.43,0.1060659104,0.01695079191
1.44,0.106233418,0.01087613329
1.45,0.1060609377,0.004847338784
1.46,0.1055550354,-0.001117131605
1.47,0.104723233,-0.006999483874
1.48,0.1035739481,-0.01278263524
1.49,0.1021164323,-0.01845025424
1.5,0.1003607078,-0.0239867956
1.51,0.09831750388,-0.02937753008
1.52,0.09599819196,-0.03460856911
1.53,0.09341472142,-0.0396668845
1.54,0.09057955526,-0.04454032324
1.55,0.08750560671,-0.04921761753
1.56,0.08420617675,-0.05368839027
1.57,0.08069489307,-0.05794315609
1.58,0.07698565068,-0.06197331834
1.59,0.07309255453,-0.06577116199
1.6,0.06902986425,-0.06932984305
1.61,0.06481194144,-0.07264337444
1.62,0.06045319955,-0.07570660883
1.63,0.05596805662,-0.07851521869
1.64,0.05137089091,-0.0810656738
1.65,0.04667599972,-0.08335521661
1.66,0.04189756128,-0.08538183574
1.67,0.03704959992,-0.08714423794
1.68,0.03214595447,-0.08864181878
1.69,0.02720024986,-0.08987463251
1.7,0.02222587204,-0.09084336122
1.71,0.01723594596,-0.09154928381
1.72,0.01224331667,-0.09199424481
1.73,0.007260533381,-0.09218062355
1.74,0.002299836404,-0.09211130376
1.75,-0.002626853281,-0.09178964405
1.76,-0.007507941893,-0.09121944917
1.77,-0.01233216839,-0.09040494263
1.78,-0.01708860788,-0.08935074054
1.79,-0.02176667313,-0.08806182706
1.8,-0.02635611433,-0.08654353138
1.81,-0.03084701751,-0.08480150659
1.82,-0.03522980161,-0.08284171023
1.83,-0.03949521468,-0.08067038689
1.84,-0.04363432935,-0.07829405263
1.85,-0.04763853778,-0.07571948134
1.86,-0.05149954642,-0.07295369309
1.87,-0.05520937079,-0.0700039443
1.88,-0.05876033044,-0.0668777197
1.89,-0.06214504448,-0.06358272607
1.9,-0.06535642765,-0.06012688758
1.91,-0.06838768736,-0.05651834255
1.92,-0.07123232174,-0.05276544162
1.93,-0.0738841189,-0.04887674706
1.94,-0.07633715755,-0.04486103302
1.95,-0.0785858091,-0.04072728663
1.96,-0.08062474134,-0.03648470963
1.97,-0.08244892378,-0.03214272038
1.98,-0.08405363472,-0.02771095595
1.99,-0.08543447009,-0.02319927421
2,-0.08658735398,-0.01861775547
2.01,-0.08750855102,-0.01397670363
2.02,-0.0881946804,-0.009286646442
2.03,-0.08864273153,-0.004558334825
2.04,-0.0888500813,0.0001972591763
2.05,-0.08881451275,0.004968945866
2.06,-0.08853423505,0.009745323078
2.07,-0.08800790462,0.01451478325
2.08,-0.08723464727,0.01926552254
2.09,-0.08621408106,0.02398555222
2.1,-0.08494633976,0.02866271243
2.11,-0.08343209663,0.03328468837
2.12,-0.08167258826,0.03783902923
2.13,-0.07966963832,0.04231316969
2.14,-0.07742568077,0.04669445425
2.15,-0.07494378242,0.05097016429
2.16,-0.07222766448,0.05512754796
2.17,-0.06928172281,0.05915385278
2.18,-0.06611104662,0.06303636106
2.19,-0.06272143532,0.06676242787
2.2,-0.05911941317,0.07031952161
2.21,-0.0553122416,0.07369526701
2.22,-0.05130792878,0.0768774904
2.23,-0.04711523626,0.079854267
2.24,-0.04274368244,0.0826139702
2.25,-0.03820354261,0.08514532242
2.26,-0.03350584532,0.08743744739
2.27,-0.02866236499,0.08947992357
2.28,-0.02368561048,0.09126283842
2.29,-0.01858880954,0.0927768431
2.3,-0.01338588896,0.09401320753
2.31,-0.008091450402,0.09496387513
2.32,-0.002720741743,0.09562151716
2.33,0.002710375981,0.09597958618
2.34,0.008185466176,0.09603236824
2.35,0.01368755871,0.09577503347
2.36,0.01919919633,0.09520368469
2.37,0.02470248546,0.09431540364
2.38,0.0301791511,0.09310829444
2.39,0.03561059585,0.09158152396
2.4,0.04097796278,0.08973535873
2.41,0.04626220194,0.08757119793
2.42,0.05144414032,0.08509160235
2.43,0.0565045549,0.08230031874
2.44,0.06142424855,0.07920229947
2.45,0.0661841285,0.07580371707
2.46,0.07076528686,0.07211197345
2.47,0.07514908301,0.06813570361
2.48,0.07931722732,0.06388477355
2.49,0.08325186585,0.05937027228
2.5,0.08693566556,0.05460449779
2.51,0.09035189961,0.04960093674
2.52,0.09348453225,0.04437423806
2.53,0.09631830289,0.03894018013
2.54,0.09883880878,0.03331563174
2.55,0.1010325859,0.02751850677
2.56,0.1028871876,0.02156771277
2.57,0.1043912602,0.01548309331
2.58,0.1055346158,0.009285364625
2.59,0.1063083008,0.002996046374
2.6,0.1067046607,-0.003362613041
2.61,0.1067174001,-0.009767716388
2.62,0.1063416372,-0.01619580248
2.63,0.1055739539,-0.02262293565
2.64,0.104412439,-0.02902479948
2.65,0.1028567257,-0.03537679436
2.66,0.1009080225,-0.04165413848
2.67,0.09856913709,-0.0478319718
2.68,0.09584449369,-0.05388546251
2.69,0.09274014225,-0.05978991544
2.7,0.08926376076,-0.06552088198
2.71,0.08542464965,-0.07105427093
2.72,0.08123371839,-0.07636645966
2.73,0.07670346426,-0.08143440516
2.74,0.07184794317,-0.08623575427
2.75,0.06668273267,-0.09074895258
2.76,0.06122488702,-0.0949533514
2.77,0.05549288456,-0.09882931221
2.78,0.0495065675,-0.1023583081
2.79,0.04328707426,-0.1055230214
2.8,0.03685676458,-0.1083074373
2.81,0.03023913783,-0.1106969327
2.82,0.02345874456,-0.1126783595
2.83,0.01654109188,-0.1142401227
2.84,0.009512542956,-0.1153722516
2.85,0.002400211025,-0.1160664646
2.86,-0.004768151533,-0.1163162272
2.87,-0.01196426865,-0.1161168022
2.88,-0.01915945996,-0.1154652915
2.89,-0.02632476367,-0.114360671
2.9,-0.03343106219,-0.1128038158
2.91,-0.04044921005,-0.1107975176
2.92,-0.0473501635,-0.1083464929
2.93,-0.054105111,-0.105457382
2.94,-0.06068560417,-0.1021387392
2.95,-0.06706368838,-0.09840101377
2.96,-0.07321203238,-0.09425652187
2.97,-0.07910405642,-0.08971940903
2.98,-0.08471405795,-0.08480560395
2.99,-0.09001733455,-0.07953276325
3,-0.09499030318,-0.07392020761
3.01,-0.09961061536,-0.06798884943
3.02,-0.1038572674,-0.06176111232
3.03,-0.1077107055,-0.05526084277
3.04,-0.1111529246,-0.04851321439
3.05,-0.1141675607,-0.04154462504
3.06,-0.1167399769,-0.0343825874
3.07,-0.1188573405,-0.02705561341
3.08,-0.120508694,-0.01959309322
3.09,-0.1216850161,-0.01202516898
3.1,-0.1223792751,-0.004382604348
3.11,-0.1225864727,0.003303349903
3.12,-0.1223036786,0.01100109342
3.13,-0.121530056,0.01867881631
3.14,-0.1202668768,0.02630464103
3.15,-0.1185175271,0.03384676537
3.16,-0.116287503,0.04127360598
3.17,-0.1135843963,0.04855394151
3.18,-0.1104178701,0.05565705487
3.19,-0.1067996249,0.06255287378
3.2,-0.1027433546,0.06921210893
3.21,-0.09826469285,0.0756063891
3.22,-0.09338115054,0.08170839251
3.23,-0.08811204369,0.08749197375
3.24,-0.08247841282,0.0929322857
3.25,-0.07650293384,0.09800589574
3.26,-0.07020982098,0.1026908957
3.27,-0.06362472213,0.106967005
3.28,-0.05677460716,0.1108156666
3.29,-0.04968764972,0.1142201345
3.3,-0.04239310304,0.117165554
3.31,-0.0349211704,0.1196390322
3.32,-0.02730287082,0.1216297
3.33,-0.01956990072,0.123128765
3.34,-0.01175449204,0.1241295534
3.35,-0.003889267786,0.1246275439
3.36,0.003992904602,0.1246203902
3.37,0.01185906111,0.1241079334
3.38,0.01967628963,0.1230922048
3.39,0.0274118783,0.1215774182
3.4,0.03503346298,0.119569951
3.41,0.04250917314,0.1170783169
3.42,0.04980777548,0.114113127
3.43,0.05689881454,0.1106870418
3.44,0.06375274957,0.1068147136
3.45,0.07034108717,0.1025127192
3.46,0.07663650877,0.09779948423
3.47,0.08261299269,0.09269519816
3.48,0.08824592979,0.0872217217
3.49,0.09351223254,0.08140248623
3.5,0.09839043668,0.07526238604
3.51,0.1028607952,0.06882766392
3.52,0.1069053639,0.06212579063
3.53,0.1105080788,0.05518533889
3.54,0.1136548241,0.04803585242
3.55,0.1163334909,0.04070771083
3.56,0.1185340269,0.0332319909
3.57,0.1202484756,0.02564032499
3.58,0.1214710061,0.01796475727
3.59,0.1221979326,0.01023759852
3.6,0.1224277242,0.002491280098
3.61,0.122161004,-0.005241792063
3.62,0.1214005385,-0.01292938285
3.63,0.1201512171,-0.02053957195
3.64,0.1184200216,-0.02804089582
3.65,0.1162159861,-0.03540248683
3.66,0.1135501473,-0.04259420907
3.67,0.1104354865,-0.04958679008
3.68,0.1068868614,-0.05635194787
3.69,0.1029209309,-0.06286251273
3.7,0.09855607129,-0.06909254315
3.71,0.09381228445,-0.07501743545
3.72,0.08871109995,-0.08061402645
3.73,0.08327546988,-0.08586068892
3.74,0.07752965798,-0.09073741926
3.75,0.07149912332,-0.09522591704
3.76,0.06521039915,-0.09930965614
3.77,0.05869096757,-0.1029739471
3.78,0.05196913069,-0.1062059907
3.79,0.04507387878,-0.1089949218
3.8,0.03803475633,-0.1113318449
3.81,0.0308817264,-0.113209859
3.82,0.02364503417,-0.1146240741
3.83,0.01635507016,-0.1155716177
3.84,0.009042234007,-0.1160516318
3.85,0.001736799224,-0.1160652608
3.86,-0.005531220265,-0.1156156304
3.87,-0.01273220121,-0.1147078169
3.88,-0.01983703916,-0.1133488083
3.89,-0.02681727298,-0.1115474566
3.9,-0.03364520528,-0.1093144219
3.91,-0.04029401807,-0.1066621089
3.92,-0.04673788332,-0.1036045958
3.93,-0.05295206771,-0.100157556
3.94,-0.05891303135,-0.09633817356
3.95,-0.06459851992,-0.09216505225
3.96,-0.06998764986,-0.08765811918
3.97,-0.07506098629,-0.08283852336
3.98,-0.07980061349,-0.07772852968
3.99,-0.08419019741,-0.07235140895
4,-0.08821504027,-0.06673132466
4.01,-0.09186212693,-0.06089321681
4.02,-0.09512016298,-0.05486268372
4.03,-0.0979796044,-0.04866586209
4.04,-0.1004326788,-0.04232930624
4.05,-0.1024733983,-0.03587986684
4.06,-0.1040975639,-0.02934456991
4.07,-0.1053027616,-0.02275049662
4.08,-0.1060883508,-0.0161246644
4.09,-0.1064554438,-0.009493910018
4.1,-0.1064068784,-0.002884775106
4.11,-0.1059471827,0.003676605345
4.12,-0.1050825324,0.01016461101
4.13,-0.1038207018,0.0165542403
4.14,-0.1021710072,0.02282121008
4.15,-0.1001442454,0.02894205051
4.16,-0.09775262532,0.03489419479
4.17,-0.09500969473,0.04065606331
4.18,-0.09193026201,0.04620714192
4.19,-0.08853031333,0.05152805415
4.2,-0.08482692596,0.05660062698
4.21,-0.08083817795,0.06140795003
4.22,-0.07658305488,0.06593442802
4.23,-0.07208135413,0.07016582629
4.24,-0.06735358706,0.07408930938
4.25,-0.06242087984,0.07769347254
4.26,-0.05730487322,0.08096836616
4.27,-0.05202762186,0.08390551322
4.28,-0.04661149371,0.08649791962
4.29,-0.0410790699,0.08874007777
4.3,-0.03545304563,0.09062796324
4.31,-0.02975613252,0.0921590249
4.32,-0.02401096283,0.09333216854
4.33,-0.01823999609,0.09414773434
4.34,-0.01246542835,0.09460746829
4.35,-0.006709104603,0.09471448797
4.36,-0.0009924346976,0.09447324284
4.37,0.004663687015,0.09388946954
4.38,0.0102389579,0.0929701423
4.39,0.01571373888,0.09172341908
4.4,0.02106912168,0.09015858357
4.41,0.02628699124,0.08828598356
4.42,0.03135008308,0.0861169661
4.43,0.03624203554,0.08366380969
4.44,0.04094743668,0.08093965411
4.45,0.04545186589,0.07795842817
4.46,0.04974192996,0.07473477573
4.47,0.05380529372,0.07128398062
4.48,0.05763070528,0.06762189061
4.49,0.06120801574,0.063764841
4.5,0.06452819358,0.05972957808
4.51,0.06758333375,0.05553318303
4.52,0.0703666616,0.05119299639
4.53,0.07287253181,0.0467265436
4.54,0.07509642231,0.04215146194
4.55,0.07703492371,0.03748542908
4.56,0.07868572408,0.03274609371
4.57,0.08004758958,0.02795100831
4.58,0.08112034096,0.02311756453
4.59,0.08190482641,0.01826293122
4.6,0.08240289079,0.01340399552
4.61,0.08261734173,0.008557307007
4.62,0.08255191272,0.003739025149
4.63,0.08221122358,-0.001035129755
4.64,0.08160073855,-0.005749922123
4.65,0.0807267224,-0.01039064299
4.66,0.07959619469,-0.01494314818
4.67,0.07821688264,-0.01939389278
4.68,0.07659717283,-0.02372996183
4.69,0.074746062,-0.02793909721
4.7,0.07267310733,-0.03200972088
4.71,0.07038837637,-0.03593095442
4.72,0.06790239694,-0.03969263491
4.73,0.06522610722,-0.04328532737
4.74,0.06237080639,-0.04670033369
4.75,0.05934810582,-0.0499296984
4.76,0.05616988128,-0.05296621115
4.77,0.05284822619,-0.05580340627
4.78,0.04939540619,-0.05843555949
4.79,0.04582381509,-0.06085768192
4.8,0.04214593248,-0.06306551168
4.81,0.03837428303,-0.06505550306
4.82,0.03452139766,-0.06682481375
4.83,0.03059977652,-0.06837129004
4.84,0.02662185412,-0.06969345043
4.85,0.02259996639,-0.0707904676
4.86,0.0185463199,-0.07166214924
4.87,0.01447296309,-0.07230891763
4.88,0.01039175976,-0.07273178845
4.89,0.006314364477,-0.07293234874
4.9,0.002252200169,-0.0729127344
4.91,-0.001783562321,-0.07267560735
4.92,-0.00578202271,-0.07222413237
4.93,-0.009732567868,-0.07156195404
4.94,-0.01362488661,-0.07069317369
4.95,-0.01744898276,-0.06962232659
4.96,-0.02119518666,-0.0683543595
4.97,-0.0248541651,-0.06689460871
4.98,-0.02841692998,-0.06524877854
4.99,-0.03187484558,-0.06342292056
5,-0.03521963482,-0.06142341344
5.01,-0.03844338447,-0.05925694356
5.02,-0.04153854945,-0.05693048639
5.03,-0.04449795641,-0.05445128866
5.04,-0.04731480675,-0.05182685137
5.05,-0.04998267903,-0.04906491354
5.06,-0.05249553108,-0.04617343676
5.07,-0.05484770184,-0.04316059055
5.08,-0.05703391298,-0.0400347383
5.09,-0.05904927059,-0.03680442399
5.1,-0.06088926675,-0.03347835939
5.11,-0.06254978133,-0.03006541188
5.12,-0.06402708395,-0.02657459259
5.13,-0.06531783611,-0.02301504498
5.14,-0.06641909375,-0.01939603364
5.15,-0.06732831004,-0.01572693323
5.16,-0.06804333852,-0.0120172175
5.17,-0.06856243672,-0.008276448222
5.18,-0.06888427001,-0.004514264065
5.19,-0.06900791589,-0.0007403690951
5.2,-0.06893286859,0.003035479003
5.21,-0.06865904394,0.00680348118
5.22,-0.06818678453,0.01055380982
5.23,-0.06751686497,0.0142766222
5.24,-0.06665049733,0.01796207459
5.25,-0.06558933659,0.02160033729
5.26,-0.06433548596,0.02518161035
5.27,-0.06289150213,0.02869614037
5.28,-0.06126040015,0.03213423813
5.29,-0.059445658,0.03548629731
5.3,-0.05745122054,0.03874281417
5.31,-0.05528150296,0.04189440827
5.32,-0.05294139329,0.04493184425
5.33,-0.05043625421,0.0478460546
5.34,-0.04777192363,0.05062816335
5.35,-0.04495471424,0.05326951082
5.36,-0.04199141173,0.05576167914
5.37,-0.03888927158,0.0580965186
5.38,-0.03565601429,0.06026617479
5.39,-0.03229981903,0.0622631163
5.4,-0.02882931543,0.06408016291
5.41,-0.02525357355,0.06571051427
5.42,-0.02158209188,0.06714777877
5.43,-0.01782478332,0.0683860025
5.44,-0.01399195898,0.06941969825
5.45,-0.01009430989,0.07024387423
5.46,-0.006142886451,0.07085406245
5.47,-0.002149075621,0.07124634653
5.48,0.001875424108,0.07141738876
5.49,0.005918630038,0.07136445625
5.5,0.009968304822,0.07108544596
5.51,0.01401198824,0.07057890836
5.52,0.01803703113,0.06984406965
5.53,0.02203063144,0.06888085224
5.54,0.02597987228,0.06768989329
5.55,0.02987176186,0.06627256129
5.56,0.03369327531,0.06463097022
5.57,0.0374313981,0.0627679914
5.58,0.04107317097,0.06068726267
5.59,0.04460573629,0.05839319478
5.6,0.04801638553,0.05589097499
5.61,0.0512926077,0.05318656747
5.62,0.05442213868,0.05028671064
5.63,0.05739301097,0.04719891125
5.64,0.06019360386,0.04393143503
5.65,0.06281269371,0.04049329396
5.66,0.06523950398,0.03689423005
5.67,0.06746375499,0.03314469557
5.68,0.06947571291,0.0292558298
5.69,0.07126623787,0.02523943215
5.7,0.0728268309,0.02110793183
5.71,0.07414967938,0.01687435405
5.72,0.07522770076,0.01255228277
5.73,0.07605458431,0.008155820135
5.74,0.07662483068,0.003699542688
5.75,0.07693378883,-0.0008015454822
5.76,0.07697769035,-0.005332062592
5.77,0.07675368069,-0.009876301773
5.78,0.07625984729,-0.01441828628
5.79,0.07549524414,-0.01894182713
5.8,0.07445991286,-0.02343058285
5.81,0.07315489984,-0.02786812126
5.82,0.07158226951,-0.03223798282
5.83,0.06974511334,-0.03652374555
5.84,0.0676475547,-0.04070909092
5.85,0.06529474923,-0.04477787072
5.86,0.06269288078,-0.04871417437
5.87,0.0598491528,-0.05250239657
5.88,0.0567717751,-0.05612730471
5.89,0.05346994597,-0.05957410603
5.9,0.04995382976,-0.06282851388
5.91,0.04623452972,-0.06587681307
5.92,0.0423240564,-0.06870592362
5.93,0.03823529147,-0.07130346299
5.94,0.03398194719,-0.07365780604
5.95,0.0295785216,-0.0757581428
5.96,0.02504024953,-0.0775945334
5.97,0.02038304975,-0.07915796007
5.98,0.01562346819,-0.08044037588
5.99,0.01077861775,-0.0814347498
6,0.005866114628,-0.08213510806
