"Freq [GHz]","re(S(Antenna1_1_1,Antenna1_1_1)) []","im(S(Antenna1_1_1,Antenna1_1_1)) []"
2,-0.00695450315011894,-0.511511574014548
2.008,-0.0290405248752378,-0.510832290040796
2.016,-0.0507787516716979,-0.509126116596018
2.024,-0.0721190592717822,-0.506412383565986
2.032,-0.0930076843956682,-0.502715959658778
2.04,-0.11338890754668,-0.498068719429336
2.048,-0.133207089612358,-0.49251048628945
2.056,-0.152408917308575,-0.486089370013379
2.064,-0.170945690623356,-0.478861455570764
2.072,-0.188775473992459,-0.470889845400303
2.08,-0.205864934483774,-0.462243106523549
2.088,-0.222190706174835,-0.452993223103601
2.096,-0.23774015035402,-0.443213199612187
2.104,-0.252511424677962,-0.432974495245887
2.112,-0.266512828171224,-0.422344492487967
2.12,-0.279761448754956,-0.411384208674454
2.128,-0.292278796095386,-0.400146196863229
2.136,-0.304091852273341,-0.388675861612586
2.144,-0.315235702723065,-0.377007670214384
2.152,-0.325740279626532,-0.365164546626566
2.16,-0.335631519526404,-0.353160475726213
2.168,-0.344929100573387,-0.341002399881813
2.176,-0.353644826538988,-0.328692699722447
2.184,-0.361781808368458,-0.316232046668314
2.192,-0.369334524782459,-0.303622376651769
2.2,-0.376289764911863,-0.290869718728682
2.208,-0.382628375312214,-0.277986621245068
2.216,-0.388327658762013,-0.264993951565641
2.224,-0.393364210399975,-0.251921900508891
2.232,-0.397716934217205,-0.238810094629423
2.24,-0.40136996428731,-0.225706801774734
2.248,-0.40431522262912,-0.212667299944895
2.256,-0.406555825048417,-0.199742471058507
2.264,-0.408098078406204,-0.187001892218537
2.272,-0.408966268267834,-0.174511507036598
2.28,-0.409197237649204,-0.16232915732085
2.288,-0.408837163442652,-0.150504898772887
2.296,-0.407938986433782,-0.139079025077284
2.304,-0.4065594309393,-0.128081006365539
2.312,-0.404755929180287,-0.117529410967539
2.32,-0.402583769043006,-0.107432774709003
2.328,-0.400093753662809,-0.0977912818231616
2.336,-0.397330600475174,-0.0885990363959877
2.344,-0.394332222342107,-0.079846642240781
2.352,-0.391129933051983,-0.0715237787847885
2.36,-0.387749514562087,-0.0636214643733517
2.368,-0.384212985046648,-0.056133736160579
2.376,-0.380540825784408,-0.0490585436855275
2.384,-0.37675437010204,-0.0423977442871446
2.392,-0.37287803523859,-0.0361561931063692
2.4,-0.368941090989016,-0.030340027405787
2.408,-0.364978706476164,-0.0249543427297952
2.416,-0.3610320938481,-0.0200005362528146
2.424,-0.357147667310062,-0.01547364169844
2.432,-0.35337524735738,-0.0113599945098741
2.44,-0.349765451637036,-0.00763554317934311
2.448,-0.346366513516649,-0.00426506431367591
2.456,-0.343220846167753,-0.00120245045209239
2.464,-0.340361714999072,0.00160787051181627
2.472,-0.337810388823733,0.00422844613668712
2.48,-0.335574108410209,0.00672542103498068
2.488,-0.333645142149898,0.00916455409411065
2.496,-0.332001098531922,0.0116069945658222
2.504,-0.330614306277042,0.0141178409770862
2.512,-0.32942868339426,0.0167438751441604
2.52,-0.328378030542835,0.0194952377848905
2.528,-0.327407101879281,0.022374435413788
2.536,-0.326466441163954,0.0253676910986554
2.544,-0.325517118832385,0.0284475863650301
2.552,-0.324534473580122,0.0315770817774551
2.56,-0.323510463727692,0.0347145547001632
2.568,-0.322454362602703,0.0378193832540474
2.576,-0.321391690027388,0.0408575411985809
2.584,-0.320361443266772,0.0438066564059697
2.592,-0.319411858445247,0.0466600275883467
2.6,-0.318595080693384,0.0494291864681198
2.608,-0.317961233283547,0.0521447269337747
2.616,-0.317552441267823,0.0548552859239978
2.624,-0.317397376812771,0.0576247370129416
2.632,-0.317525346071402,0.0605214226310688
2.64,-0.317912630162514,0.0636421652915357
2.648,-0.318519881194251,0.0670680108059872
2.656,-0.319289046105677,0.0708693035540683
2.664,-0.320144310681079,0.0751016412520638
2.672,-0.32099684343543,0.0798014584807366
2.68,-0.321750592024996,0.0849832233167554
2.688,-0.322308589032216,0.0906384752616856
2.696,-0.322579184400489,0.0967367539717462
2.704,-0.322481639512234,0.103228287263548
2.712,-0.321950590630725,0.110048141389919
2.72,-0.320939009125407,0.117121402996208
2.728,-0.319419440231463,0.124368873192705
2.736,-0.317383475073812,0.131712718216791
2.744,-0.314839584789518,0.139081540997438
2.752,-0.311804585761636,0.146413002081245
2.76,-0.308303420733634,0.153651435833172
2.768,-0.304389835146503,0.160767479935647
2.776,-0.300098086118741,0.167745272855929
2.784,-0.29545564356092,0.174579988608332
2.792,-0.290480387808462,0.18127400770477
2.8,-0.285179311925692,0.187832535546581
2.808,-0.279548783580982,0.194259197190189
2.816,-0.273576246751704,0.200552115790386
2.824,-0.267243087762358,0.206700905467604
2.832,-0.260528269842376,0.212684887438918
2.84,-0.25341226792438,0.218472685289056
2.848,-0.245880817898619,0.224023188714347
2.856,-0.237928033063552,0.229287713685584
2.864,-0.229558530038374,0.234213048713334
2.872,-0.220788336217563,0.238744977155969
2.88,-0.21164450615646,0.242831815228154
2.888,-0.202163537139308,0.246427510248323
2.896,-0.192388826133001,0.249493903073915
2.904,-0.182367533824623,0.252001866163484
2.912,-0.172147302063967,0.253931172395769
2.92,-0.161773298925211,0.25526911354783
2.928,-0.151286036616393,0.25600805291675
2.936,-0.140720323629033,0.256142244903503
2.944,-0.130105581994278,0.255664368136236
2.952,-0.119467596629697,0.254562283937705
2.96,-0.108831583951886,0.252816539592332
2.968,-0.0982262907233891,0.250399082940826
2.976,-0.0876886811932816,0.247273544807803
2.984,-0.0772686588445542,0.243397288267409
2.992,-0.0670332125265599,0.23872523385688
3,-0.0570693839775194,0.23321526650641
3.008,-0.0473913713932395,0.226787781881054
3.016,-0.0382460893275333,0.219422594403015
3.024,-0.0298012982593591,0.211137513452968
3.032,-0.0222329877933765,0.201988965958259
3.04,-0.0157149094074938,0.19207553901952
3.048,-0.0104070458273507,0.181538372297987
3.056,-0.00644401408719126,0.170558125760521
3.064,-0.00392445862688321,0.159348569022986
3.072,-0.00290244718204855,0.148147167268816
3.08,-0.00338173711513777,0.137203343113745
3.088,-0.00531354436937138,0.126765342884838
3.096,-0.00859814210844526,0.117066803434755
3.104,-0.0130902689641395,0.108314183150514
3.112,-0.0186079704396214,0.100676178854901
3.12,-0.0249441653000494,0.0942760998318491
3.128,-0.0318358300345895,0.0892431417383601
3.136,-0.0389856582125288,0.085590562497433
3.144,-0.0462673182556444,0.0831621951043911
3.152,-0.0535448975336495,0.081883713679944
3.16,-0.0607223126645714,0.0816697882693214
3.168,-0.0677424775930837,0.0824383691390548
3.176,-0.0745819669746113,0.0841239432672815
3.184,-0.0812416780040552,0.0866884256853444
3.192,-0.0877343756228158,0.0901285548445144
3.2,-0.0940703095243528,0.0944789729397152
3.208,-0.10024228882331,0.099810560822624
3.216,-0.10621167362571,0.106224027758043
3.224,-0.1118966852326,0.113839189994292
3.232,-0.117164253575263,0.12278077007305
3.24,-0.121826328087748,0.133161875440953
3.248,-0.125641202703781,0.145066541487572
3.256,-0.12838736742435,0.158692270889606
3.264,-0.129590683479233,0.173935159701716
3.272,-0.128865350815286,0.190605502462865
3.28,-0.125877039377077,0.208481256895256
3.288,-0.120325450883656,0.227266152696041
3.296,-0.111961339951872,0.246598025080424
3.304,-0.100600870871996,0.26606109541199
3.312,-0.0861364194624075,0.285201302165395
3.32,-0.0685432244357805,0.303543599631145
3.328,-0.047881620029627,0.320610049345482
3.336,-0.0242949128773336,0.335937533134824
3.344,0.00199672618043998,0.349094011454328
3.352,0.0307057243409967,0.359692423538995
3.36,0.0614890978209783,0.367401557896962
3.368,0.0939620298744793,0.371953490093266
3.376,0.127690825858083,0.373142121873963
3.384,0.162120738314177,0.370852014587722
3.392,0.196995570559222,0.36508627973531
3.4,0.231926988597398,0.355821923845139
3.408,0.266538053312308,0.343080855370366
3.416,0.300467536760177,0.326924953845475
3.424,0.333372862860829,0.307451182039919
3.432,0.364931894936395,0.284787052121088
3.44,0.394843847430074,0.259086658682507
3.448,0.422829621242424,0.230527388791781
3.456,0.448631853338283,0.199307321524244
3.464,0.472014936211065,0.16564324489146
3.472,0.492765207683368,0.129769152679455
3.48,0.510691443892055,0.0919350410829586
3.488,0.525625715810942,0.0524058064456482
3.496,0.537424599537402,0.0114600496079113
3.504,0.545974152934427,-0.0306504404592271
3.512,0.551157712729219,-0.0736201022055648
3.52,0.55290662528324,-0.117089612695128
3.528,0.551198914852595,-0.160735151679228
3.536,0.546046729968444,-0.204233944263065
3.544,0.537496109190992,-0.247268296069236
3.552,0.52562617034208,-0.289529654964936
3.56,0.510547703654586,-0.330722591725904
3.568,0.492401174215225,-0.370568587644402
3.576,0.471354163990529,-0.408809518893216
3.584,0.447598307360653,-0.445210735040857
3.592,0.421345795071816,-0.479563641772434
3.6,0.392825538922604,-0.511687714798863
3.608,0.362279102594715,-0.5414318919764
3.616,0.329956512335551,-0.568675312801129
3.624,0.296112064597491,-0.593327397494425
3.632,0.261050371434748,-0.615307312947434
3.64,0.224984254147614,-0.634625162311027
3.648,0.188141699400999,-0.651280068636397
3.656,0.150747247402365,-0.665288638488056
3.664,0.11301359015134,-0.676687061641578
3.672,0.0751400546109034,-0.685528637873326
3.68,0.0373115107318918,-0.691881255092467
3.688,-0.000302316447683472,-0.695824886499707
3.696,-0.0375471615955425,-0.697449165938514
3.704,-0.0742841994726834,-0.696851090775631
3.712,-0.110389734748163,-0.694132891050518
3.72,-0.145754647685052,-0.689400092932249
3.728,-0.180283642341102,-0.682759794397318
3.736,-0.213894342182711,-0.674319161853069
3.744,-0.24651627462339,-0.664184148659006
3.752,-0.278093238384396,-0.652456631918349
3.76,-0.308580087614258,-0.639230182338773
3.768,-0.337922564522677,-0.624605712332488
3.776,-0.366085256478079,-0.608677104093693
3.784,-0.393039417701702,-0.591534026079148
3.792,-0.418762007524237,-0.573261670188529
3.8,-0.443234755825121,-0.553940590648171
3.808,-0.466443253552392,-0.533646638507792
3.816,-0.488376067162071,-0.51245099049675
3.824,-0.509023878580236,-0.490420274711516
3.832,-0.528378656329687,-0.467616797704727
3.84,-0.546432868089039,-0.444098877651119
3.848,-0.563178749420302,-0.419921286389585
3.856,-0.578607647025522,-0.395135799429469
3.864,-0.592709457060594,-0.369791847890189
3.872,-0.6054721793381,-0.343937260407917
3.88,-0.616884315166486,-0.317643020803916
3.888,-0.626941789952852,-0.290943661601292
3.896,-0.635625582142019,-0.263867452127677
3.904,-0.64291132683635,-0.236459515974107
3.912,-0.648771455374336,-0.208768727567354
3.92,-0.653176006057826,-0.180848812302452
3.928,-0.656093644668142,-0.152759250464744
3.936,-0.657492842185932,-0.124565947801032
3.944,-0.657343150508678,-0.0963416509170502
3.952,-0.655616515043795,-0.0681661021755963
3.96,-0.652288565922687,-0.0401259448349497
3.968,-0.647339836966942,-0.0123144035273571
3.976,-0.640756872605565,0.0151692235371186
3.984,-0.632533196676587,0.0422202169514953
3.992,-0.622670132058933,0.0687291866958482
4,-0.611177474953775,0.0945828766265275
4.008,-0.598064512893696,0.11968321799772
4.016,-0.583360878580168,0.143888523766517
4.024,-0.567106594879799,0.167076088321909
4.032,-0.549352659668431,0.189123163676022
4.04,-0.530161188433262,0.209907915666966
4.048,-0.509605533614705,0.229310339022497
4.056,-0.487770409022976,0.247213160332456
4.064,-0.464752268946146,0.263490414631224
4.072,-0.440678166123388,0.277993804029461
4.08,-0.415677896848474,0.290682795219133
4.088,-0.389878468897214,0.301471302853755
4.096,-0.363415831604375,0.310280035069468
4.104,-0.336435270312008,0.317037283194289
4.112,-0.309091776165904,0.321680034013752
4.12,-0.281550277930993,0.324155413882683
4.128,-0.253976324896467,0.324428407506062
4.136,-0.226543940930464,0.322467399124852
4.144,-0.199463393878162,0.318246290747323
4.152,-0.172939911219701,0.311771922829785
4.16,-0.147184147726861,0.303072955901341
4.168,-0.122409364783423,0.292201697927413
4.176,-0.0988281452543273,0.279235476568221
4.184,-0.0766487382293832,0.264277450025989
4.192,-0.0560394018961638,0.247458635439262
4.2,-0.0371955978203335,0.228911813950116
4.208,-0.0203221230850043,0.208809376400117
4.216,-0.00557961626151838,0.187356422967703
4.224,0.00689655137321055,0.164780605913358
4.232,0.0170003543789728,0.141328311099271
4.24,0.0246585140419837,0.117259999759477
4.248,0.0298330416209296,0.0928448395594759
4.256,0.0324683924291512,0.068377767326856
4.264,0.0326533722580718,0.0441402938384033
4.272,0.030490709961207,0.0203801122668599
4.28,0.0260950861226392,-0.00267113789156801
4.288,0.0196083408990805,-0.0248058932083333
4.296,0.0111943332917752,-0.0458445587315075
4.304,0.00103313214913985,-0.0656382585624369
4.312,-0.0106851983955534,-0.0840703086568416
4.32,-0.0238656003913853,-0.101152424991477
4.328,-0.0382671366319594,-0.116688201817698
4.336,-0.0536804924241051,-0.130631400486764
4.344,-0.0699103369851872,-0.142975670277532
4.352,-0.0867764551324303,-0.1537431839221
4.36,-0.1041186853609,-0.162979762747754
4.368,-0.121800529339836,-0.170749035577512
4.376,-0.139686951993376,-0.17713998311892
4.384,-0.157585121066898,-0.182365110953094
4.392,-0.175654517262577,-0.186422340143206
4.4,-0.193877944245335,-0.189347605091519
4.408,-0.212244526200497,-0.191159632059969
4.416,-0.230743865089081,-0.191860261521729
4.424,-0.249360792243542,-0.191436298760651
4.432,-0.268071084231537,-0.189862616965739
4.44,-0.286846738085151,-0.187090078545606
4.448,-0.305629312221141,-0.183058010212294
4.456,-0.324326373058631,-0.177772173080879
4.464,-0.342863325746934,-0.171212719477399
4.472,-0.361157960462617,-0.163366892977919
4.48,-0.379122604170455,-0.154230599558391
4.488,-0.396666442066731,-0.143809170752863
4.496,-0.413697738876831,-0.132117354737246
4.504,-0.430114549338409,-0.119185195614805
4.512,-0.445835204046515,-0.105050196079275
4.52,-0.460789473930443,-0.0897418443203235
4.528,-0.474895824800375,-0.0732980015235248
4.536,-0.48807388114104,-0.0557605054683126
4.544,-0.50024371190318,-0.0371749639389373
4.552,-0.511325001080344,-0.0175910205332263
4.56,-0.521236289895124,0.002936872926735
4.568,-0.529894482276296,0.0243482071968306
4.576,-0.537214789953006,0.0465747822469503
4.584,-0.543111259154752,0.0695388379629524
4.592,-0.547497970671187,0.0931511402033508
4.6,-0.550290943261562,0.117309239849975
4.608,-0.551410702402915,0.141896129431054
4.616,-0.550785408131466,0.166779508329729
4.624,-0.54835437293219,0.19181183414362
4.632,-0.544080551781285,0.216849507273722
4.64,-0.537921069686948,0.241702071001939
4.648,-0.529870545034461,0.266181378505054
4.656,-0.519949876837732,0.290097438661793
4.664,-0.508205569309456,0.313260174902463
4.672,-0.494709992013713,0.335483964173787
4.68,-0.479560665205258,0.356592206013511
4.688,-0.462878597311181,0.376418525834991
4.696,-0.444814003838542,0.394775174037568
4.704,-0.425531524515948,0.411587366902405
4.712,-0.405202623936171,0.426753854085518
4.72,-0.384006861442012,0.440200655817874
4.728,-0.362121575352538,0.451886773891818
4.736,-0.339745944977226,0.461773831200231
4.744,-0.317061722277534,0.469863605024145
4.752,-0.29424289129597,0.476178613509193
4.76,-0.271453026953721,0.480759791518653
4.768,-0.248835987020654,0.483662076609805
4.776,-0.226526724694407,0.484950062973614
4.784,-0.204647600016813,0.484696217887222
4.792,-0.183309469580874,0.482978664688665
4.8,-0.162613114405488,0.479879732736966
4.808,-0.142650708766418,0.475485296350512
4.816,-0.123501991680779,0.469886048767863
4.824,-0.105243293405124,0.463171766877335
4.832,-0.0879544442831354,0.45543806545956
4.84,-0.0717021444495802,0.44679048281939
4.848,-0.0565444239571963,0.437341970309145
4.856,-0.0425286490614568,0.427212976610065
4.864,-0.0296892249936558,0.416530798992243
4.872,-0.0180452612903658,0.405428098668563
4.88,-0.00761332268404576,0.394026931777372
4.888,0.00162209368353735,0.382479294962246
4.896,0.00970992785864642,0.370930259518195
4.904,0.0167128055603243,0.359504890527244
4.912,0.0227116260049168,0.348314179928735
4.92,0.0278025029767942,0.337451284775045
4.928,0.0320927610767052,0.326988546990938
4.936,0.0356962198311461,0.316975544205523
4.944,0.0387511526446529,0.307508835797135
4.952,0.0413879371848145,0.298517921866231
4.96,0.0436975942232779,0.289953632554478
4.968,0.0457551499871313,0.281770277608936
4.976,0.0474777671540099,0.273423193884185
4.984,0.0487959870764268,0.265374019930437
4.992,0.0497629875650704,0.257699861307172
5,0.050437893278469,0.250420283798242
5.008,0.0517132863647503,0.244597274742827
5.016,0.053333622619934,0.23863791187605
5.024,0.0547007402192085,0.231936393464649
5.032,0.0558348347489962,0.225134603452069
5.04,0.0565454651770261,0.218325171042405
5.048,0.056940841462499,0.211538904967949
5.056,0.0569886922385267,0.204818087523111
5.064,0.0566702405584426,0.198233429102284
5.072,0.056009736436167,0.19190069503165
5.08,0.0550379313821742,0.185779697988615
5.088,0.0537736457991174,0.179909513815318
5.096,0.052300833542035,0.174325731393765
5.104,0.0507346619731278,0.168999540851604
5.112,0.0489465674904455,0.163925731452984
5.12,0.0469550429683217,0.159133913967146
5.128,0.0446899874137583,0.154702513091625
5.136,0.0421768321266356,0.150765577202786
5.144,0.0396716037090172,0.14726535230596
5.152,0.0372461718762585,0.144170626560888
5.16,0.0349623233607329,0.141435305305781
5.168,0.0328686498339994,0.139001564718121
5.176,0.0309983697437914,0.136803569725035
5.184,0.0293681532193129,0.134771500929181
5.192,0.0279382695662546,0.132810621848376
5.2,0.0266893890447709,0.130888510222561
5.208,0.0256296288900341,0.128977112511637
5.216,0.0247299436825982,0.127028753532862
5.224,0.0239517959131725,0.125004846586995
5.232,0.0232495731187256,0.122877748569611
5.24,0.0225733353124274,0.120631997635592
5.248,0.0218717422967138,0.118264888770395
5.256,0.0210824206430097,0.115751751292422
5.264,0.0201507695090203,0.113146233528678
5.272,0.0190437232066514,0.110499353853689
5.28,0.0177376767647226,0.10785733195346
5.288,0.0162213628111598,0.105271044076636
5.296,0.0144966178713108,0.102793021844433
5.304,0.0125784591424594,0.100474333361466
5.312,0.0104944516964351,0.0983614973351431
5.32,0.00828337721182986,0.0964935865148211
5.328,0.0059932490051996,0.0948996762582557
5.336,0.00367875312341319,0.093596786316114
5.344,0.00139822989788942,0.0925884479876501
5.352,-0.000789657376764143,0.0918640041678823
5.36,-0.00282939257001232,0.091398716633351
5.368,-0.0046720215142949,0.0911547138559525
5.376,-0.00627060331889278,0.0910881004424272
5.384,-0.00754196920139075,0.0911550003890476
5.392,-0.00852833854393291,0.09123648287292
5.4,-0.00924633641712699,0.0912643643912066
5.408,-0.00972913175244726,0.0911768467243491
5.416,-0.0100243573713886,0.090922606462757
5.424,-0.0101910114569866,0.0904642464572006
5.432,-0.0102955302535272,0.0897808524484773
5.44,-0.0104691933555098,0.088807483519422
5.448,-0.0109041308400055,0.0875592425735285
5.456,-0.0115155319483613,0.0862594273063663
5.464,-0.0123035908374939,0.0849618312390285
5.472,-0.0132548651053008,0.0837148082615892
5.48,-0.0143450586286486,0.0825582913646098
5.488,-0.015542332244968,0.0815218604774822
5.496,-0.016810794656229,0.0806239059465468
5.504,-0.0175195571281126,0.0800030532484235
5.512,-0.017436181688038,0.0794684452789444
5.52,-0.0180721135214573,0.0778346255702516
5.528,-0.020196972718637,0.0756585475171408
5.536,-0.0227256028231723,0.0746859922814701
5.544,-0.0250272111908447,0.0746735938960864
5.552,-0.0270822154312737,0.0751079668882218
5.56,-0.0287760294768583,0.0758871405393117
5.568,-0.0300508761169593,0.0766331803573352
5.576,-0.0310268385423623,0.0773757711404947
5.584,-0.0317118682075657,0.078155366477481
5.592,-0.0321101018866451,0.0788994242590523
5.6,-0.0322442089241587,0.0795389377131932
5.608,-0.0321538120868347,0.0800131356268634
5.616,-0.0318927377900777,0.0802735943856396
5.624,-0.0315252961610443,0.0802874771247834
5.632,-0.0311529579767273,0.0797610361871327
5.64,-0.0309622248673977,0.0789858992704603
5.648,-0.030995680836257,0.078076024979957
5.656,-0.0312673407618227,0.0771073373896306
