"Freq [GHz]","re(S(Antenna1_1_1,Antenna1_1_1)) []","im(S(Antenna1_1_1,Antenna1_1_1)) []"
2,-0.00734961361911894,-0.506844201145548
2.008,-0.0282085229482378,-0.506245634690796
2.016,-0.0487883493106979,-0.504932971891018
2.024,-0.0691160711367823,-0.502895920689986
2.032,-0.0892046269724682,-0.500111425908898
2.04,-0.10905044099838,-0.496548397855336
2.048,-0.128632244321658,-0.49217281241845
2.056,-0.147911227780575,-0.486952848400379
2.064,-0.166832477362356,-0.480863732340764
2.072,-0.185327563283459,-0.473891986889303
2.08,-0.203318083699674,-0.466038823626649
2.088,-0.220719908127735,-0.457322481737701
2.096,-0.23744782743002,-0.447779385853287
2.104,-0.253420298594962,-0.437464074591887
2.112,-0.268563974233224,-0.426447930733967
2.12,-0.282817728058956,-0.414816819369454
2.128,-0.296136087563486,-0.402662836969029
2.136,-0.30848698528241,-0.390087361371986
2.144,-0.319859799637565,-0.377207741962384
2.152,-0.330265986967532,-0.364131410701566
2.16,-0.339735721503404,-0.350959288665213
2.168,-0.348315679341388,-0.337781660260813
2.176,-0.356065885342688,-0.324674755388647
2.184,-0.363055835538258,-0.311698243344214
2.192,-0.369360148727459,-0.298893781882769
2.2,-0.375054025713863,-0.286284697318982
2.208,-0.380208802146214,-0.273876800715068
2.216,-0.384887871189813,-0.261660275664641
2.224,-0.389143226328375,-0.249612508601691
2.232,-0.393012834312555,-0.237701676785523
2.24,-0.39651899630261,-0.225890864883734
2.248,-0.39966779472672,-0.214142450823895
2.256,-0.402486828825317,-0.202433985343507
2.264,-0.404931816827204,-0.190709991947437
2.272,-0.406947663997234,-0.178948117857398
2.28,-0.408482520879504,-0.16714976322965
2.288,-0.409481631400652,-0.155335131233687
2.296,-0.409892577319482,-0.143543661238484
2.304,-0.4096705002867,-0.131833112768339
2.312,-0.408782967525887,-0.120277340881939
2.32,-0.407214165482206,-0.108962883864503
2.328,-0.404968142881909,-0.0979845581640616
2.336,-0.402070878642674,-0.0874403189841877
2.344,-0.398571018203707,-0.077425694153081
2.352,-0.394539200556583,-0.0680281307090886
2.36,-0.390065983100587,-0.0593216058120517
2.368,-0.385258457904648,-0.051361844936179
2.376,-0.380235735690047,-0.0441824607229275
2.384,-0.375123548121801,-0.0377922764611446
2.392,-0.37004827990219,-0.0321740313159692
2.4,-0.365130785636016,-0.027284583505487
2.408,-0.360480369209464,-0.0230566371224952
2.416,-0.3561893033325,-0.0194019234841146
2.424,-0.352328243084062,-0.01621567441144
2.432,-0.34894284036538,-0.0133821387391741
2.44,-0.346051798226036,-0.0107808202831431
2.448,-0.343646518587649,-0.00829306069337591
2.456,-0.341692398800753,-0.00580855828919239
2.464,-0.340131727613072,-0.00323140713318373
2.472,-0.338888026136153,-0.000485260613312878
2.48,-0.337871581143609,0.00248272955098068
2.488,-0.336985833370098,0.00569947683111065
2.496,-0.336134218503322,0.00916521211982215
2.504,-0.335219247330842,0.0128931449270862
2.512,-0.33413654970426,0.0168259009591603
2.52,-0.332831939924835,0.0208438459036905
2.528,-0.331280447733281,0.024856024881788
2.536,-0.329486160489954,0.0287687229711554
2.544,-0.327481896026385,0.0324935158887301
2.552,-0.325326752626122,0.0359549764714551
2.56,-0.323101690332692,0.0390974879581632
2.568,-0.320903438449643,0.0418906715720474
2.576,-0.318837145842888,0.0443330282255809
2.584,-0.317008284415292,0.0464535163419697
2.592,-0.315514374576347,0.0483109314523467
2.6,-0.314437119965384,0.0499911083081198
2.608,-0.313835515107547,0.0516021216517747
2.616,-0.313740425229823,0.0532678061495178
2.624,-0.314151036408771,0.0551200386814416
2.632,-0.315071984172402,0.0572949694903688
2.64,-0.316398718345514,0.0599314329725357
2.648,-0.318022549044251,0.0631325860159872
2.656,-0.319817611217677,0.0669744270380683
2.664,-0.321642781502559,0.0715016571370638
2.672,-0.32335009342613,0.0767249319467366
2.68,-0.324793535399996,0.0826204156767554
2.688,-0.325837606122216,0.0891316453126856
2.696,-0.32636502520749,0.0961735453647461
2.704,-0.326283064405234,0.103638278991548
2.712,-0.325528071155725,0.111402491326319
2.72,-0.324067893297407,0.119335404979708
2.728,-0.321902070894463,0.127307172848805
2.736,-0.319059826322812,0.135196883330791
2.744,-0.315596044527518,0.142899648018438
2.752,-0.311572133040636,0.150324303128245
2.76,-0.307062023249434,0.157382582066172
2.768,-0.302212600974203,0.164066447838647
2.776,-0.297119293854441,0.170383725694929
2.784,-0.29186414298802,0.176367816920332
2.792,-0.286509558083462,0.18207228761077
2.8,-0.281093881599692,0.187564067250581
2.808,-0.275629035916982,0.192915818155689
2.816,-0.270100361307704,0.198198079355386
2.824,-0.264468584016358,0.203471783378394
2.832,-0.258673696391376,0.208781693839318
2.84,-0.25264039659838,0.214151221345356
2.848,-0.246284633551619,0.219578953771347
2.856,-0.239520739925152,0.225037095037584
2.864,-0.232268615824374,0.230471856403334
2.872,-0.224460447390463,0.235805697960969
2.88,-0.21604650472916,0.240941186958154
2.888,-0.206999655395908,0.245766133439323
2.896,-0.197318344226001,0.250159589519915
2.904,-0.187027917331623,0.253998260737804
2.912,-0.176180296518367,0.257162877274769
2.92,-0.164852129924211,0.25954410725283
2.928,-0.153141646023393,0.26104765895575
2.936,-0.141164514271033,0.261598306298503
2.944,-0.129049061854278,0.261142673619436
2.952,-0.116931210595997,0.259650722237805
2.96,-0.104949482037986,0.257115983056132
2.968,-0.0932403757463891,0.253554668345826
2.976,-0.0819343618122816,0.249003865141803
2.984,-0.0711526506195542,0.243519057812409
2.992,-0.0610048193845599,0.23717124640588
3,-0.0515872937345194,0.23004392077521
3.008,-0.0430274977786395,0.222171186819854
3.016,-0.0353702817835333,0.213734987549015
3.024,-0.0286625384053591,0.204844602247968
3.032,-0.0229377447113765,0.195609862032259
3.04,-0.0182172664414938,0.18613989833952
3.048,-0.0145115409893507,0.176542332202087
3.056,-0.0118210524235913,0.166922767072521
3.064,-0.0101370730333832,0.157384444622986
3.072,-0.00944220016104855,0.148027941180816
3.08,-0.00971075771613777,0.138950817807745
3.088,-0.0109091541503714,0.130247183251838
3.096,-0.0129962905195453,0.122007178390755
3.104,-0.0159240941711395,0.114316435977814
3.112,-0.0196382184966214,0.107255603246271
3.12,-0.0240789025770494,0.100900031964849
3.128,-0.0291472951875895,0.0953184543463601
3.136,-0.0347545057185288,0.090546110275433
3.144,-0.0409000541106444,0.0866332202079911
3.152,-0.0475257310376495,0.083641546933944
3.16,-0.0545701008530714,0.0816354180943214
3.168,-0.0619664775193837,0.0806829809010548
3.176,-0.0696401886686113,0.0808568961012815
3.184,-0.0775052608843552,0.0822341970533444
3.192,-0.0854607549468158,0.0848950729095144
3.2,-0.0933870656133528,0.0889203999437152
3.208,-0.10114256626231,0.094387938461124
3.216,-0.10856101549671,0.101367228007543
3.224,-0.1154501438676,0.109913341225292
3.232,-0.121591800722263,0.12005978557695
3.24,-0.126743963685748,0.131810960119953
3.248,-0.130644800204781,0.145134669677572
3.256,-0.13301480016825,0.160066457535606
3.264,-0.133510525340233,0.176399844920716
3.272,-0.131852216970186,0.193893140257865
3.28,-0.127792922808077,0.212288045024256
3.288,-0.121121629482656,0.231277857172041
3.296,-0.111673288336872,0.250513970411424
3.304,-0.0993373319839956,0.26961459839451
3.312,-0.0840641615074075,0.288175313962395
3.32,-0.0658692043047805,0.305780868511445
3.328,-0.044834292783627,0.322017667837482
3.336,-0.0211062834673336,0.336486235421824
3.344,0.00510698815743998,0.348812995991328
3.352,0.0335431527347967,0.358660761212995
3.36,0.0638937383515783,0.365737392055962
3.368,0.0958140556944793,0.369802241475266
3.376,0.128913918180083,0.370672363348963
3.384,0.162700090073177,0.368277475063722
3.392,0.196953350637222,0.36255595134151
3.4,0.231315148681398,0.353469120481039
3.408,0.265432738606308,0.341018624544166
3.416,0.298963255142177,0.325242995780475
3.424,0.331576718751829,0.306214083046919
3.432,0.362958082727395,0.284033609356088
3.44,0.392808500196973,0.258830084963507
3.448,0.420846036251424,0.230756228930781
3.456,0.446806074111283,0.199986972327244
3.464,0.470441663902265,0.16671803492546
3.472,0.491524039032368,0.131164991283455
3.48,0.509843481108055,0.0935626774179586
3.488,0.525210654002942,0.0541647411296482
3.496,0.537458456457402,0.0132431110418113
3.504,0.546420179604427,-0.0289622247122271
3.512,0.551947845286219,-0.0721215890937648
3.52,0.55398205542924,-0.115846492742128
3.528,0.552489099318595,-0.159797402748228
3.536,0.547473198297244,-0.203633838652065
3.544,0.538976618882092,-0.247019265284236
3.552,0.527079025597781,-0.289626087074936
3.56,0.511896031213586,-0.331140597106904
3.568,0.493576935929025,-0.371267721414402
3.576,0.472301684163529,-0.409735394815216
3.584,0.448277105718653,-0.446298409779657
3.592,0.421732544746816,-0.480741594500314
3.6,0.392915012749604,-0.512882200080063
3.608,0.362084028490715,-0.54257140838314
3.616,0.329506326180551,-0.569694909913329
3.624,0.295450622332491,-0.594172542922125
3.632,0.260227838923048,-0.615994465256434
3.64,0.224034070115614,-0.635131766467027
3.648,0.187102177136499,-0.651582038551397
3.656,0.149661499393065,-0.665369781243056
3.664,0.11192793616379,-0.676540134377578
3.672,0.0741021667023034,-0.685156084607326
3.68,0.0363683616480918,-0.691295551068267
3.688,-0.00110661400388347,-0.695048432652307
3.696,-0.0381735201715425,-0.696513697283414
3.704,-0.0747006103596834,-0.695796588777031
3.712,-0.110573089186163,-0.693006019687018
3.72,-0.145692208760052,-0.688252209259149
3.728,-0.179974062559102,-0.681644614583158
3.736,-0.213348141709411,-0.673290190699069
3.744,-0.24575572228659,-0.663292002287906
3.752,-0.277147967781166,-0.651740836714549
3.76,-0.307475731424558,-0.638716146673773
3.768,-0.336702056370277,-0.624331039805488
3.776,-0.364801008833379,-0.608670165885693
3.784,-0.391751271282092,-0.591811436936247
3.792,-0.417534482886237,-0.573826248534829
3.8,-0.442133731771121,-0.554779999437871
3.808,-0.465532252554992,-0.534732868204332
3.816,-0.487712372796371,-0.51374079478895
3.824,-0.508654739785236,-0.491856606698216
3.832,-0.528337844950687,-0.469131223840827
3.84,-0.54673784792534,-0.445614874121219
3.848,-0.563828686727302,-0.421358253414185
3.856,-0.579582445572022,-0.396413568825069
3.864,-0.593969938384744,-0.370835413004389
3.872,-0.6069614550571,-0.344681429206317
3.88,-0.618548034786586,-0.318011077875716
3.888,-0.628690174523752,-0.290877005164292
3.896,-0.637343870463519,-0.263347718361677
3.904,-0.64448120282612,-0.235498905601507
3.912,-0.650079243357036,-0.207410521246874
3.92,-0.654120863566626,-0.179165679827052
3.928,-0.656595158504342,-0.150849399533844
3.936,-0.657497460085932,-0.122547317599132
3.944,-0.656828949785877,-0.0943445036234502
3.952,-0.654595916515795,-0.0663244906595963
3.96,-0.650808739038687,-0.0385686277142537
3.968,-0.645480700582542,-0.0111558322576571
3.976,-0.638626764210665,0.0158372111542186
3.984,-0.630262449039087,0.0423353977364953
3.992,-0.620402948378933,0.0682641266515482
4,-0.609062620822375,0.0935478743787275
4.008,-0.596233496805396,0.11809586283842
4.016,-0.581957903666078,0.141829435213117
4.024,-0.566252385056399,0.164663355098209
4.032,-0.549134818668031,0.186505406614222
4.04,-0.530626617981862,0.207254908864966
4.048,-0.510755514911605,0.226801798245497
4.056,-0.489558773476376,0.245026452201356
4.064,-0.467093049031246,0.261806871855224
4.072,-0.443433704740688,0.277037858347461
4.08,-0.418627263794274,0.290550166086933
4.088,-0.392780691093214,0.302192099396255
4.096,-0.366028962352375,0.311815250142268
4.104,-0.338535815515708,0.319280713008668
4.112,-0.310492966606504,0.324465546121552
4.12,-0.282117746330493,0.327269074728283
4.128,-0.253662595099667,0.327617189492962
4.136,-0.225393132411864,0.325482069935652
4.144,-0.197547414887762,0.320868881573523
4.152,-0.170386824883071,0.313810695673885
4.16,-0.144169265766261,0.304376671483941
4.168,-0.119142779152823,0.292671005500113
4.176,-0.0955395925845273,0.278830555371221
4.184,-0.0735708991741832,0.263021301373989
4.192,-0.0534262515744638,0.245426168559762
4.2,-0.0352655406062335,0.226261638172526
4.208,-0.0192115418290043,0.205759462618617
4.216,-0.00535806362199838,0.184151793599603
4.224,0.00623068084261055,0.161673503072658
4.232,0.0155184281860728,0.138558062990771
4.24,0.0224947027265837,0.115034198182767
4.248,0.0271724029365296,0.0913233327225059
4.256,0.0295841368872512,0.067603014725056
4.264,0.0297601339466718,0.0441012550970933
4.272,0.027769063842407,0.0210311213536599
4.28,0.0237018119924392,-0.00141833276046801
4.288,0.0176668424153805,-0.0230729921770333
4.296,0.0097881610634752,-0.0437755485850075
4.304,0.000202999438862848,-0.0633872136048369
4.312,-0.0109408202014234,-0.0817892033630416
4.32,-0.0233692495829853,-0.0988468159026775
4.328,-0.0370187563088594,-0.114583202119898
4.336,-0.0517616792615051,-0.128952561419864
4.344,-0.0674665298311872,-0.141917132855932
4.352,-0.0840055167810303,-0.1534504548431
4.36,-0.1012550513306,-0.163536446806354
4.368,-0.119096242607536,-0.172168604640612
4.376,-0.137423674068176,-0.17933374667752
4.384,-0.156139517655998,-0.184933634843194
4.392,-0.175048490889478,-0.189102968855406
4.4,-0.194056849362535,-0.191895859686919
4.408,-0.213088928522297,-0.19336981916397
4.416,-0.232086432039981,-0.193581053431729
4.424,-0.251006475345442,-0.192580122440651
4.432,-0.269818526983337,-0.190408306812739
4.44,-0.288511546560151,-0.187101346988606
4.448,-0.307086589431141,-0.182668939752694
4.456,-0.325496324478631,-0.177090242836879
4.464,-0.343706878429934,-0.170355833979559
4.472,-0.361675804759617,-0.162449963332519
4.48,-0.379350183454455,-0.153353564951291
4.488,-0.396665630883731,-0.143047604580863
4.496,-0.413546254011731,-0.131516498830246
4.504,-0.429893370758489,-0.118743382191805
4.512,-0.445606291707315,-0.104739125647275
4.52,-0.460597936014643,-0.0895291166823235
4.528,-0.474768087099875,-0.0731390311465248
4.536,-0.48801511518404,-0.0556062759653126
4.544,-0.50023806151918,-0.0369800916437373
4.552,-0.511338536765344,-0.0173211970738263
4.56,-0.521222328442124,0.003298915483835
4.568,-0.529800655221296,0.0247989038634306
4.576,-0.536991053678006,0.0470885777435502
4.584,-0.542717931155752,0.0700698455600524
4.592,-0.546912861753887,0.0936374957743508
4.6,-0.549514736413762,0.117679737292975
4.608,-0.550469898633315,0.142078469390054
4.616,-0.549732401695266,0.166709302277729
4.624,-0.54726451000419,0.19144140019862
4.632,-0.543093500916785,0.216123977468322
4.64,-0.537154262153448,0.240653339601839
4.648,-0.529421786928161,0.264880731011754
4.656,-0.519893499972732,0.288644140824393
4.664,-0.508584788349456,0.311773784876063
4.672,-0.495531745346713,0.334094647610187
4.68,-0.480793435656258,0.355429844399511
4.688,-0.464444642369281,0.375595267011091
4.696,-0.446518188342942,0.394254149114168
4.704,-0.427337991539088,0.411385545123405
4.712,-0.407073621450271,0.426893865424518
4.72,-0.385888338445712,0.440736114132874
4.728,-0.363852603047638,0.452964036011818
4.736,-0.341168262281796,0.463344636645631
4.744,-0.318033995426534,0.471833449920645
4.752,-0.29465491279097,0.478408998284053
4.76,-0.271242348307721,0.483076710631953
4.768,-0.247988076385654,0.485889342319605
4.776,-0.225077349292407,0.486910815880814
4.784,-0.202681824091713,0.486227339530722
4.792,-0.180956530208674,0.483944500691465
4.8,-0.160037504994088,0.480183956136966
4.808,-0.140040128108318,0.475079877576512
4.816,-0.121059503115479,0.468776099127863
4.824,-0.103167014915524,0.461422178582335
4.832,-0.0864103676946354,0.45316716245506
4.84,-0.0708185810562802,0.44415905322919
4.848,-0.0564013822361963,0.434541405681545
4.856,-0.0431509056504568,0.424450846346515
4.864,-0.0310436733446558,0.414014997148043
4.872,-0.0200427765433658,0.403350820176863
4.88,-0.0100990641280458,0.392569435300472
4.888,-0.00115237904366265,0.381759375235646
4.896,0.00685985637404642,0.370994516180195
4.904,0.0140035878309243,0.360339736882244
4.912,0.0203464102744168,0.349847656519735
4.92,0.0259557845939942,0.339559358081045
4.928,0.0308974867593052,0.329505323241938
4.936,0.0352343043288461,0.319706529912323
4.944,0.0390399523476529,0.310149993834335
4.952,0.0423407627818145,0.300855119583231
4.96,0.0451788381622779,0.291833948236178
4.968,0.0475980242971313,0.283089359790736
4.976,0.0495028506810099,0.274799255541885
4.984,0.0511581904414268,0.266841943102137
4.992,0.0526214846780704,0.259151094787202
5,0.053912619410669,0.251675263215042
5.008,0.0551504082525603,0.243989439042827
5.016,0.056017674780734,0.23640684204205
5.024,0.0564332088434085,0.229191088153649
5.032,0.0565791278228962,0.222202772146069
5.04,0.0565273508750261,0.215461794740005
5.048,0.056243983452499,0.208924610616049
5.056,0.0557347543315267,0.202596209190311
5.064,0.0550088444224426,0.196476769318684
5.072,0.054068663623167,0.19054942110195
5.08,0.0529052354861742,0.184866496824819
5.088,0.0515374374511174,0.179450904224918
5.096,0.049984783910835,0.174327944380765
5.104,0.0482796271418279,0.169527455561604
5.112,0.0464844254104255,0.165044750205984
5.12,0.0446400647452217,0.160873228108146
5.128,0.0427881354249583,0.157011286254625
5.136,0.0409745233194456,0.153442840516786
5.144,0.0392265818300172,0.15011412380756
5.152,0.0375641933042585,0.146989405430488
5.16,0.0359986356477329,0.144030913097881
5.168,0.0345324030789994,0.141200998476821
5.176,0.0331595882347913,0.138464266685435
5.184,0.0318667935763129,0.135789525514681
5.192,0.0306281630463546,0.133141361066376
5.2,0.0294147136808709,0.130508939857561
5.208,0.0282057007051341,0.127893433490637
5.216,0.0269780434039982,0.125294168625862
5.224,0.0257108051119725,0.122716877277995
5.232,0.0243866471879956,0.120172770164111
5.24,0.0229929773945274,0.117677295785592
5.248,0.0215227280797138,0.115248677542095
5.256,0.0199754483450097,0.112917868521512
5.264,0.0183619806160203,0.110694164069378
5.272,0.0166917166956514,0.108588088238889
5.28,0.0149770405204226,0.10661155158526
5.288,0.0132332829563598,0.104773179052736
5.296,0.0114777604401108,0.103077761054433
5.304,0.00972873825241939,0.101525966268466
5.312,0.00800438607173505,0.100114318637143
5.32,0.00632178992242986,0.0988354242078211
5.328,0.0046960769979996,0.0976784185069557
5.336,0.00313969888911319,0.096629593136514
5.344,0.00166190546088942,0.0956731518849501
5.352,0.000268427104235857,0.0947920421985823
5.36,-0.00103863152001232,0.093968807509791
5.368,-0.0022606967042949,0.0931864093163525
5.376,-0.00340199334449278,0.0924292165165272
5.384,-0.00446663167139075,0.0916841675960476
5.392,-0.00546707533733291,0.0909370189520201
5.4,-0.00641499990752699,0.0901779321072066
5.408,-0.00732350814094726,0.0893998992253491
5.416,-0.00820652429938856,0.088598961380757
5.424,-0.00907815704398665,0.0877743079662006
5.432,-0.00995205050202717,0.0869282526909773
5.44,-0.0108428529582098,0.086058069789622
5.448,-0.0117729094007055,0.0851641641940285
5.456,-0.0127498162394613,0.0842800800373663
5.464,-0.0137761045290939,0.0834232766264985
5.472,-0.0148491086800008,0.0826109831632892
5.48,-0.0159613093755486,0.0818587448432097
5.488,-0.017101080632368,0.0811791453172822
5.496,-0.018253766954729,0.0805808168168468
5.504,-0.0193473020221126,0.0801012748288235
5.512,-0.020367224158628,0.0797740008719444
5.52,-0.0212984172056473,0.0793915229003516
5.528,-0.022243005029587,0.0788359048320408
5.536,-0.0233176561641723,0.0783849390446701
5.544,-0.0244222783148447,0.0781050161950864
5.552,-0.0254870419013737,0.0779326283207218
5.56,-0.0264827202468583,0.0778603865600117
5.568,-0.0273587496929593,0.0778198177528352
5.576,-0.0281433025153623,0.0777964190628947
5.584,-0.0288479265845657,0.077794144378481
5.592,-0.0294713701119451,0.0777969539783523
5.6,-0.0300161839739587,0.0777883202197932
5.608,-0.0304889021907347,0.0777521935088634
5.616,-0.0308999682138777,0.0776740301656396
5.624,-0.0312633868679343,0.0775418130007834
5.632,-0.0315568401539273,0.0772500028891327
5.64,-0.0318898117072977,0.0768643494408603
5.648,-0.032293424563557,0.076421786626257
5.656,-0.0327808006660227,0.0759517380143306
