"Freq [GHz]","re(S(Antenna1_1_1,Antenna1_1_1)) []","im(S(Antenna1_1_1,Antenna1_1_1)) []"
2,-0.0122159158051189,-0.505524145983548
2.008,-0.0326677128622378,-0.503727166927796
2.016,-0.0525460356404979,-0.501338546993018
2.024,-0.0719141469867823,-0.498420070120986
2.032,-0.0908388271774682,-0.495010095699778
2.04,-0.10938477843138,-0.491124044975336
2.048,-0.127609314001658,-0.48675617233645
2.056,-0.145557635477575,-0.481882522663379
2.064,-0.163258969839356,-0.476464901617864
2.072,-0.180723786996459,-0.470455621827803
2.08,-0.197942252507774,-0.463802739344649
2.088,-0.214883993600835,-0.456455464935701
2.096,-0.23149917501202,-0.448369426050287
2.104,-0.247720800443962,-0.439511468062887
2.112,-0.263468081365224,-0.429863716494967
2.12,-0.278650652607416,-0.419426672562454
2.128,-0.293180462822486,-0.408220717289229
2.136,-0.30696633062741,-0.396281575344586
2.144,-0.319904206433565,-0.383670545791384
2.152,-0.331912177511532,-0.370470635311566
2.16,-0.342923175823404,-0.356781761624213
2.168,-0.352888543245387,-0.342716990162013
2.176,-0.361780589846988,-0.328398083418447
2.184,-0.369594031891458,-0.313950625086214
2.192,-0.376346261579459,-0.299498993272769
2.2,-0.382076464547863,-0.285161453746982
2.208,-0.386843660270214,-0.271045627081068
2.216,-0.390723792313813,-0.257244554822641
2.224,-0.393806038095405,-0.243833552045891
2.232,-0.396188540313555,-0.230867989270423
2.24,-0.39797378425361,-0.218382098274734
2.248,-0.39926385664672,-0.206388845845895
2.256,-0.400141292132317,-0.194932166531507
2.264,-0.400732003515204,-0.183957115715437
2.272,-0.401120425524834,-0.173395544114898
2.28,-0.401362877127204,-0.16318287660965
2.288,-0.401494218145652,-0.153247818557687
2.296,-0.401527159809482,-0.143517855115484
2.304,-0.4014529002677,-0.133924763972339
2.312,-0.401243061774887,-0.124409832213939
2.32,-0.400852835496206,-0.114928477289003
2.328,-0.400225171430209,-0.105453997412262
2.336,-0.399295788431674,-0.0959802178801877
2.344,-0.397998726620707,-0.086522855573081
2.352,-0.396272125255583,-0.0771194920380885
2.36,-0.394063886423587,-0.0678281228430517
2.368,-0.391336881193648,-0.058724333235179
2.376,-0.388073371181547,-0.0498972328574275
2.384,-0.384278355162801,-0.0414443601861446
2.392,-0.37998160574719,-0.0334658354849692
2.4,-0.375238232913016,-0.026058094619487
2.408,-0.370127695184464,-0.0193075711414952
2.416,-0.3647512708345,-0.0132847077001146
2.424,-0.359228094962062,-0.00803866849804
2.432,-0.35368995788408,-0.0035930921501741
2.44,-0.348275140249036,5.68298118568886E-05
2.448,-0.343121625250649,0.00294573635162409
2.456,-0.338360074080753,0.00513781735780761
2.464,-0.334106973896072,0.00672484317381627
2.472,-0.330458366399733,0.00782257601268712
2.48,-0.327484539181609,0.00856573425753068
2.488,-0.325226012555098,0.00910177040911065
2.496,-0.323691084288322,0.00958379911582215
2.504,-0.322908921920842,0.0101576041410862
2.512,-0.32282292452526,0.0110031844051604
2.52,-0.323278883382835,0.0122623667648905
2.528,-0.324150036075281,0.014030767773788
2.536,-0.325293676205954,0.0163709819771554
2.544,-0.326559553776385,0.0193099086207301
2.552,-0.327798678813122,0.0228381940984551
2.56,-0.328872001141692,0.0269118297801632
2.568,-0.329658444022703,0.0314558151440474
2.576,-0.330061805658888,0.0363696711605809
2.584,-0.330016108399292,0.0415344760922697
2.592,-0.329489067026347,0.0468210023423467
2.6,-0.328483459415384,0.0520984642931198
2.608,-0.327036308465547,0.0572433476647747
2.616,-0.325215915999823,0.0621477832739978
2.624,-0.323116919338771,0.0667269528974416
2.632,-0.320832917437552,0.0708770996513688
2.64,-0.318533048783514,0.0746091315495357
2.648,-0.316352800059251,0.0779515077349872
2.656,-0.314414101914677,0.0809621729720683
2.664,-0.312821085901079,0.0837313182110638
2.672,-0.31165239552813,0.0863761298667366
2.68,-0.310954996373996,0.0890338060876554
2.688,-0.310739859498216,0.0918532555866856
2.696,-0.31097978001349,0.0949859717477461
2.704,-0.311609465369234,0.098576621977548
2.712,-0.312527893710725,0.102753907299919
2.72,-0.313602809200407,0.107622229331708
2.728,-0.314677096883463,0.113254652551805
2.736,-0.315576671241112,0.119687572460791
2.744,-0.316119426430518,0.126917399839438
2.752,-0.316134660444636,0.134922143962245
2.76,-0.315444803008634,0.143671151369172
2.768,-0.313851501562203,0.152968311953647
2.776,-0.311234113005441,0.162644993126929
2.784,-0.30751136505102,0.172509406051832
2.792,-0.302645558685462,0.18235643397677
2.8,-0.296644299306692,0.191978144324581
2.808,-0.289559672604982,0.201174372330189
2.816,-0.281484929271704,0.209762763534386
2.824,-0.272548886306358,0.217587696850394
2.832,-0.262908383642576,0.224527576958318
2.84,-0.25273924613538,0.230500080601356
2.848,-0.242226286583619,0.235465060441347
2.856,-0.231552940553552,0.239424946248584
2.864,-0.220891145521374,0.242422627990334
2.872,-0.210392063725463,0.244536952182969
2.88,-0.20017820089716,0.245876102168154
2.888,-0.190337394006908,0.246569258008323
2.896,-0.180919034427001,0.246757034859915
2.904,-0.171932764298623,0.246581274095484
2.912,-0.163349740409367,0.246174804586769
2.92,-0.155106409159211,0.24565179947783
2.928,-0.147110587252393,0.24509932566475
2.936,-0.139249503694233,0.244570619924503
2.944,-0.131399337824278,0.244080530769436
2.952,-0.123435692809697,0.243603442859805
2.96,-0.115244380037886,0.243073859089132
2.968,-0.106731861461389,0.242389660698826
2.976,-0.0978347063432816,0.241417908449803
2.984,-0.0885274657795542,0.240002895778609
2.992,-0.0788284511415599,0.23797602792888
3,-0.0688030156895194,0.23516698697341
3.008,-0.0583106374676395,0.231505142097054
3.016,-0.0477336244565333,0.226638913834015
3.024,-0.0373147439703591,0.220457565893968
3.032,-0.0273292190983765,0.212907216026259
3.04,-0.0180706711444938,0.20399823367552
3.048,-0.00983559120835074,0.193809089105087
3.056,-0.00290723733519127,0.182486401471521
3.064,0.00246011413811679,0.170241157256986
3.072,0.00605565713595145,0.157341294865816
3.08,0.00772445448686223,0.144101062091745
3.088,0.00737704061762862,0.130867739152838
3.096,0.00499568679145474,0.118006469523755
3.104,0.000636981451860478,0.105884046471514
3.112,-0.00556940814462137,0.0948525588979008
3.12,-0.0134257080900494,0.0852338033858491
3.128,-0.0227425329225895,0.0774139133073601
3.136,-0.0331579688105288,0.071734956558433
3.144,-0.0441572964766444,0.0681514542079911
3.152,-0.0553770373586495,0.066692999956944
3.16,-0.0664681140415714,0.0673191708753214
3.168,-0.0771104568590837,0.0699270571340548
3.176,-0.0870250386366113,0.0743619083592815
3.184,-0.0959826825983552,0.0804301373363444
3.192,-0.103809196008816,0.0879137890465144
3.2,-0.110386614887353,0.0965855043027152
3.208,-0.11565059023831,0.106222986643624
3.216,-0.11958418938771,0.116622020360043
3.224,-0.1222086128036,0.127607184508292
3.232,-0.123571524348263,0.13903955752995
3.24,-0.123733848696748,0.150820900970953
3.248,-0.122755994127781,0.162894038594572
3.256,-0.12095000306035,0.175091229686606
3.264,-0.118222453605233,0.187680185985716
3.272,-0.114417587964186,0.200779919264865
3.28,-0.109409039689077,0.214426116369256
3.288,-0.103029028502656,0.228625888916041
3.296,-0.0950758358788718,0.243344446916424
3.304,-0.0853247671809956,0.25849389432299
3.312,-0.0735419912764075,0.273924985299395
3.32,-0.0595004564567805,0.289422508324445
3.328,-0.042996936717627,0.304704750972482
3.336,-0.0238691737933336,0.319427254660824
3.344,-0.00201205389356002,0.333190809777328
3.352,0.0226082047499967,0.345553383455995
3.36,0.0499427784895783,0.356045430309962
3.368,0.0798526489874793,0.364187824512266
3.376,0.112132389387083,0.369473709125963
3.384,0.146530995124177,0.371192401593722
3.392,0.182363906708222,0.36922689741331
3.4,0.219138984840398,0.363319732570139
3.408,0.256322313804308,0.353296385335166
3.416,0.293354796810177,0.339071750079475
3.424,0.329669626403029,0.320652968102919
3.432,0.364709800005395,0.298138546145088
3.44,0.397944864219073,0.271713883495507
3.448,0.428886128342424,0.241643509555781
3.456,0.457099684086283,0.208260494772244
3.464,0.482216698880265,0.17195363143946
3.472,0.503940607094368,0.133153079266055
3.48,0.522050997630055,0.0923152289229586
3.488,0.536404178005942,0.0499075521986482
3.496,0.546930573512402,0.00639417941591127
3.504,0.553758089197427,-0.0377203063562271
3.512,0.556970753532219,-0.0821105765897648
3.52,0.55652113467454,-0.126484120399128
3.528,0.552516383613595,-0.170490311854228
3.536,0.545097558021444,-0.213810538093065
3.544,0.534432258271992,-0.256160635210236
3.552,0.520707419674781,-0.297291781889936
3.56,0.504122567562586,-0.336989994687904
3.568,0.484883790881025,-0.375074426959402
3.576,0.463198628632529,-0.411394716682616
3.584,0.439271995999653,-0.445827655084257
3.592,0.413303207352816,-0.478273457573434
3.6,0.385484085849604,-0.508651911483263
3.608,0.355998087632715,-0.53689865300714
3.616,0.325020315987551,-0.562961790632329
3.624,0.292718259750491,-0.586799047417125
3.632,0.259227858053748,-0.608312785495434
3.64,0.224758540886714,-0.627520813629027
3.648,0.189469958468299,-0.644418693326397
3.656,0.153511390654665,-0.658998575136056
3.664,0.11702893539279,-0.671256787690578
3.672,0.0801669783703034,-0.681193967566326
3.68,0.0430693729700918,-0.688815673820467
3.688,0.00588022799011653,-0.694133370408807
3.696,-0.0312557643375425,-0.697165643098614
3.704,-0.0681934908176834,-0.697939510052431
3.712,-0.104788064976163,-0.696491686767518
3.72,-0.140895921235052,-0.692869675799349
3.728,-0.176376287627102,-0.687132568540158
3.736,-0.211092945510711,-0.679351468856069
3.744,-0.24491616756709,-0.669609475038906
3.752,-0.277731608660996,-0.658028004303549
3.76,-0.309470859743358,-0.644754446446773
3.768,-0.340025792655577,-0.629804955498488
3.776,-0.369300250065679,-0.613288985089693
3.784,-0.397209683170092,-0.595324811961148
3.792,-0.423682924923237,-0.576037860209529
3.8,-0.448663614051121,-0.555558569898771
3.808,-0.472111158355992,-0.534019898363992
3.816,-0.494001149026371,-0.51155456782545
3.824,-0.514325166233236,-0.488292192291016
3.832,-0.533089948903687,-0.464356428988827
3.84,-0.55031593636304,-0.439862303988219
3.848,-0.566035224747302,-0.414913857821185
3.856,-0.580289014736822,-0.389602244887069
3.864,-0.593124657348294,-0.364004400744389
3.872,-0.6045924295291,-0.338182365025317
3.88,-0.614722106563287,-0.312156251902716
3.888,-0.623553275231752,-0.285983006728292
3.896,-0.631139103448519,-0.259707145058677
3.904,-0.63751656608512,-0.233342427560107
3.912,-0.642711759763036,-0.206892640386254
3.92,-0.646737638636626,-0.180354576666252
3.928,-0.649592422910342,-0.153721512805744
3.936,-0.651258783747932,-0.126987027620132
3.944,-0.651703872708677,-0.10014899196445
3.952,-0.650880224690795,-0.0732135447815963
3.96,-0.648727522826687,-0.0461988687722537
3.968,-0.645175173855242,-0.0191385852646571
3.976,-0.640145605303365,0.00791539731421859
3.984,-0.633558163134587,0.0348907246204953
3.992,-0.625333461755933,0.0616932420928482
4,-0.615398018475375,0.0882065270625275
4.008,-0.603811598803396,0.11436667435672
4.016,-0.590366435698078,0.139993747816517
4.024,-0.575017681974399,0.164896983887109
4.032,-0.557748753208031,0.188865943008022
4.04,-0.538575936021262,0.211675847227966
4.048,-0.517551868149705,0.233093869677497
4.056,-0.494767704923976,0.252886128475356
4.064,-0.470342416112146,0.270823956456224
4.072,-0.444409671157388,0.286673307841461
4.08,-0.417232882630874,0.300237217592933
4.088,-0.389058068717214,0.311356132428755
4.096,-0.360156747112375,0.319907166904468
4.104,-0.330818908330708,0.325808513571289
4.112,-0.301345201759504,0.329022360705752
4.12,-0.272038655003593,0.329556173511683
4.128,-0.243177354150867,0.327388094941062
4.136,-0.215097086696464,0.322551520980852
4.144,-0.188123424817162,0.315325550545323
4.152,-0.162483944014701,0.305912322343785
4.16,-0.138361820536861,0.294538623558041
4.168,-0.115893005392423,0.281445177673613
4.176,-0.0951660492535273,0.266875639491121
4.184,-0.0762245980483832,0.251065956155989
4.192,-0.0591098954981638,0.234349749901262
4.2,-0.0437056035143335,0.216914051772116
4.208,-0.0299027736136043,0.198805231377117
4.216,-0.0176401189735984,0.180113151207703
4.224,-0.00686545951488945,0.160895388888258
4.232,0.00245500161697279,0.141183300815271
4.24,0.0103294807019837,0.120990464733477
4.248,0.0167360869559296,0.100322880019476
4.256,0.0218185900061512,0.079154164704856
4.264,0.0253310624650718,0.0574220371082933
4.272,0.027054331604807,0.0351887722903599
4.28,0.0268258154876392,0.012569346898432
4.288,0.0244878046360805,-0.0102689955503333
4.296,0.0199028759257752,-0.0331069764375075
4.304,0.0129690511896398,-0.0556778130364369
4.312,0.00363353966697664,-0.0776758899408416
4.32,-0.00866240008988526,-0.0985645456760775
4.328,-0.0231724039989594,-0.117921772251698
4.336,-0.0396148836391051,-0.135480713060764
4.344,-0.0577030121381872,-0.151021641078532
4.352,-0.0771174473424303,-0.1643847585242
4.36,-0.0975208323419001,-0.175475554619354
4.368,-0.118573078362536,-0.184266489935512
4.376,-0.139937607310376,-0.19082562119492
4.384,-0.161328653122898,-0.195441930397094
4.392,-0.182598219316578,-0.198023048969206
4.4,-0.203519502466435,-0.198713307073519
4.408,-0.223907778715297,-0.197689078507969
4.416,-0.243625774412081,-0.195148061630329
4.424,-0.262586364632542,-0.191297632718651
4.432,-0.280752459619537,-0.186342934118739
4.44,-0.298117401450151,-0.180497499853606
4.448,-0.314736906094141,-0.173968547382694
4.456,-0.330750018659631,-0.166837951232779
4.464,-0.346268104589934,-0.159185430948299
4.472,-0.361411157054617,-0.151046880824919
4.48,-0.376296446741455,-0.142414244702391
4.488,-0.391027551073731,-0.133238068243863
4.496,-0.405684371327231,-0.123432543922246
4.504,-0.420351865248789,-0.112853338729805
4.512,-0.435014974195415,-0.101342473051275
4.52,-0.449587384091843,-0.0887872378892235
4.528,-0.463985901473375,-0.0750580187015248
4.536,-0.47808851105704,-0.0600378858513126
4.544,-0.49173782733518,-0.0436315442478373
4.552,-0.504746421113344,-0.0257732455956263
4.56,-0.516903722076124,-0.006433296779865
4.568,-0.527984133047496,0.0143771200382306
4.576,-0.537755947957006,0.0366030083876503
4.584,-0.545990644250752,0.0601445964130524
4.592,-0.552472120944187,0.0848583560903508
4.6,-0.557005473776562,0.110559916396975
4.608,-0.559424936062815,0.137028705302054
4.616,-0.559600664179766,0.164014089116729
4.624,-0.55744410638559,0.19124272545162
4.632,-0.552855709744785,0.218438825324722
4.64,-0.545884606033448,0.245270531896939
4.648,-0.536599279824161,0.271444351915054
4.656,-0.525106118599732,0.296685430428793
4.664,-0.511552723824456,0.320742156939463
4.672,-0.496122265300013,0.343393212439587
4.68,-0.479026553236258,0.364453254018611
4.688,-0.460515031888181,0.383794566870891
4.696,-0.440993669521542,0.401615951839168
4.704,-0.420371007424948,0.417606854638405
4.712,-0.398874116860171,0.431691133689518
4.72,-0.376729796732012,0.443782277156874
4.728,-0.354221342498638,0.453674417417918
4.736,-0.331649429081796,0.461672805868231
4.744,-0.309206890999534,0.467877164263145
4.752,-0.28705642702797,0.472414019955193
4.76,-0.265322024347721,0.475428863325653
4.768,-0.244094151146654,0.477042842451805
4.776,-0.223438283124807,0.477390302697514
4.784,-0.203392860401813,0.476596945165722
4.792,-0.183974105354874,0.474774584657465
4.8,-0.165181843786488,0.472017468175966
4.808,-0.147005874822418,0.468400336893512
4.816,-0.129431531918779,0.463984511748863
4.824,-0.112442513275124,0.458807534488335
4.832,-0.0960351253946354,0.45288116810796
4.84,-0.0802187547162802,0.44621495195639
4.848,-0.0650174954741963,0.438813504992145
4.856,-0.0504709066814568,0.430682257236065
4.864,-0.0366330991306558,0.421833098709243
4.872,-0.0235702533343658,0.412289507459563
4.88,-0.0113394026571458,0.402067700946072
4.888,-4.05232964626461E-05,0.391226225121646
4.896,0.0102344244316464,0.379861447843195
4.904,0.0194173115463243,0.368079595780244
4.912,0.0274562819999168,0.356005438847735
4.92,0.0343208374197942,0.343778420588045
4.928,0.0400058095931052,0.331547524425238
4.936,0.0445339342103461,0.319465201832523
4.944,0.0478494340336529,0.307717847999135
4.952,0.0501419862278145,0.296469056948231
4.96,0.0515623221322779,0.285826179684478
4.968,0.0522519124281313,0.275871776292936
4.976,0.0531776480340099,0.266425848909185
4.984,0.0536320571674268,0.257364504246137
4.992,0.0535661521255704,0.248734299432202
5,0.053024380627469,0.240577162135042
5.008,0.0502593576127503,0.234055361476827
5.016,0.047791927607934,0.22891793424405
5.024,0.0467939948532085,0.224338562647649
5.032,0.0462893537784962,0.220164448932069
5.04,0.0462259930220261,0.216010819570404
5.048,0.046553704638499,0.211947976030949
5.056,0.0472245439685267,0.207837203588111
5.064,0.0481389107924426,0.203551339568284
5.072,0.049114525330167,0.19900041418785
5.08,0.0501297636901741,0.194195157852519
5.088,0.0510773567572174,0.189111352905918
5.096,0.051806407891035,0.183803103643765
5.104,0.0522040022371279,0.178417452449604
5.112,0.0523357564084455,0.172883463050984
5.12,0.0521397678013217,0.167245492891146
5.128,0.0515796799026583,0.161427086039625
5.136,0.0505158229514456,0.155410817948986
5.144,0.0488635866540172,0.14954520298696
5.152,0.0466463993012585,0.143963280015888
5.16,0.0439213049437329,0.138788691014781
5.168,0.0407753897679994,0.134127582773121
5.176,0.0373203418997914,0.130061680776535
5.184,0.0336854946387129,0.126642950252681
5.192,0.0300777533532546,0.123826782291376
5.2,0.0265752517327709,0.121571779687561
5.208,0.0232311017370341,0.119886433967637
5.216,0.0201532042765982,0.118717300449862
5.224,0.0174351055672725,0.117986930913995
5.232,0.0151505496389956,0.117597804688611
5.24,0.0133490939215274,0.117437472180792
5.248,0.0120530511667138,0.117384630781395
5.256,0.0113567065530097,0.117274930288422
5.264,0.0111292618070203,0.116964969689678
5.272,0.0112532673696514,0.116366151958689
5.28,0.0116282200777226,0.11540753360396
5.288,0.0121408691358598,0.114044991415736
5.296,0.0126720291233108,0.112263333441433
5.304,0.0131036742294594,0.110076717281466
5.312,0.0133259012834351,0.107527362254143
5.32,0.0132433585828299,0.104682640688821
5.328,0.0127807701783996,0.101630727171256
5.336,0.0118872394039132,0.098475067526114
5.344,0.0105390876758894,0.0953279969732501
5.352,0.00874107102623586,0.0923038851618823
5.36,0.00652591212398768,0.089512211957351
5.368,0.0039521844217051,0.0870509803469525
5.376,0.00109135234010722,0.0850129150386272
5.384,-0.00198631469039075,0.0835447175647476
5.392,-0.00507901219743291,0.08259376863492
5.4,-0.00807003774112699,0.0821454701952066
5.408,-0.0108509954284473,0.0821575445673491
5.416,-0.0133281612403886,0.082563234484757
5.424,-0.0154278046212867,0.0832759095562006
5.432,-0.0171001693997272,0.0841947683214773
5.44,-0.0181898837485098,0.085080318406822
5.448,-0.0186878047690055,0.0855738335640285
5.456,-0.0190130219083613,0.0858750243943663
5.464,-0.0192268049154939,0.0859768936780285
5.472,-0.0193849720313008,0.0858860730899892
5.48,-0.0195354492496486,0.0856201606197097
5.488,-0.019716693762968,0.0852047681105822
5.496,-0.019956965747229,0.0846705121098468
5.504,-0.0208811419251126,0.0852571295983235
5.512,-0.022024002161038,0.0877389680279444
5.52,-0.0201150328384573,0.0889918728862516
5.528,-0.016416487789637,0.0870784468501408
5.536,-0.0149866319487723,0.0838861450594701
5.544,-0.0154186567928447,0.0807246966780864
5.552,-0.0166630194342737,0.0777361458257218
5.56,-0.0186095373388583,0.0751394983723117
5.568,-0.0205742020479593,0.0731914333903352
5.576,-0.0226504865973623,0.0716339852761947
5.584,-0.0249856257255657,0.070446394588581
5.592,-0.0274868480210451,0.0696855403930523
5.6,-0.0300499274046587,0.0693843953781932
5.608,-0.0325652173478347,0.0695498960288634
5.616,-0.0349240396810777,0.0701623056076396
5.624,-0.0370250655185443,0.0711761175297834
5.632,-0.0383419949513273,0.0727798708151327
5.64,-0.0390957940053977,0.0744248246534603
5.648,-0.039387016311257,0.075940501822757
5.656,-0.0392886968698226,0.0772285416966306
5.664,-0.0390527755158133,0.0777661358265358
