"Freq [GHz]","re(S(Antenna1_1_1,Antenna1_1_1)) []","im(S(Antenna1_1_1,Antenna1_1_1)) []"
2,-0.00910133425731894,-0.511738905151548
2.008,-0.0311776606821178,-0.510534693238796
2.016,-0.0527780581598979,-0.508319591438018
2.024,-0.0738589797859823,-0.505144742105986
2.032,-0.0943814664314682,-0.501064699035478
2.04,-0.11431218583138,-0.496136630198736
2.048,-0.133624157017658,-0.49041919823855
2.056,-0.152297085214575,-0.483971246456639
2.064,-0.170317278151356,-0.476850429227164
2.072,-0.187677159953459,-0.469111921864003
2.08,-0.204374438590974,-0.460807327569349
2.088,-0.220411013620135,-0.451983871021701
2.096,-0.23579173005142,-0.442683933265287
2.104,-0.250523090548812,-0.432944945166887
2.112,-0.264612032229924,-0.422799621106967
2.12,-0.278064857876656,-0.412276484585454
2.128,-0.290884891151286,-0.401401065812329
2.136,-0.303074341588411,-0.390197473578686
2.144,-0.314636782739565,-0.378686259940184
2.152,-0.325570688786532,-0.366887231789866
2.16,-0.335872068219404,-0.354820171284913
2.168,-0.345534703045387,-0.342505612452013
2.176,-0.354550513456988,-0.329965508720947
2.184,-0.362910010862958,-0.317223789535114
2.192,-0.370602812415359,-0.304306814877769
2.2,-0.377618202853863,-0.291243740916982
2.208,-0.383945741699914,-0.278066807794068
2.216,-0.389575922965413,-0.264811552680641
2.224,-0.394500898400475,-0.251516939536891
2.232,-0.398715272668155,-0.238225383957423
2.24,-0.40221696949861,-0.224982640027634
2.248,-0.40500815279972,-0.211837509022095
2.256,-0.407093120569317,-0.198828448285107
2.264,-0.408479920260204,-0.186019625460237
2.272,-0.409190048478834,-0.173472437517498
2.28,-0.409253645527204,-0.16124285064965
2.288,-0.408709551394552,-0.149383904217687
2.296,-0.407604975298282,-0.137943750371484
2.304,-0.4059946534326,-0.126963727570339
2.312,-0.403939492387287,-0.116476614028939
2.32,-0.401504740503506,-0.106505210609003
2.328,-0.398757775686909,-0.0970613916922616
2.336,-0.395765641078674,-0.0881457366865877
2.344,-0.392592494575707,-0.079747815208081
2.352,-0.389297160114583,-0.0718471486975886
2.36,-0.385930974546587,-0.0644148143106517
2.368,-0.382536111997648,-0.057415598809179
2.376,-0.379144537711547,-0.0508105565169275
2.384,-0.375777697318801,-0.0445597818491446
2.392,-0.37244698874499,-0.0386251783899692
2.4,-0.369154997714416,-0.032972996596487
2.408,-0.365897409855264,-0.0275759229194952
2.416,-0.3626654494904,-0.0224145343251146
2.424,-0.359448643335062,-0.01747798189004
2.432,-0.35623767207138,-0.0127638312486741
2.44,-0.353027058011036,-0.00827706064654311
2.448,-0.349817444953649,-0.00402829262519591
2.456,-0.346617256758753,-3.14058535923898E-05
2.464,-0.343443571956072,0.00369926742461627
2.472,-0.340322118595733,0.00715191126068712
2.48,-0.337286370627809,0.0103200961849807
2.488,-0.334375807394398,0.0132052867531106
2.496,-0.331633473924142,0.0158187515508222
2.504,-0.329098914620242,0.0181721915100862
2.512,-0.32682193693926,0.0202974535031604
2.52,-0.324844834080835,0.0222522331388905
2.528,-0.323192851557281,0.024093489204488
2.536,-0.321878968369954,0.0258837643211554
2.544,-0.320902750573385,0.0276878236831301
2.552,-0.320250204278122,0.0295691225803551
2.56,-0.319894626346692,0.0315864014151632
2.568,-0.319798363158703,0.0337906905970474
2.576,-0.319915309487188,0.0362229660845809
2.584,-0.320193917798592,0.0389126336269697
2.592,-0.320580448665547,0.0418769421423467
2.6,-0.321022178649884,0.0451213415001198
2.608,-0.321470293924547,0.0486407153777747
2.616,-0.321882234366823,0.0524213436258978
2.624,-0.322223310017771,0.0564433876447416
2.632,-0.322461404319402,0.0606861289026388
2.64,-0.322584017467514,0.0651202952625357
2.648,-0.322583473515251,0.0697238448796872
2.656,-0.322457139400277,0.0744797151980683
2.664,-0.322206071801279,0.0793765330700638
2.672,-0.32183266028673,0.0844091565037366
2.68,-0.321338295516606,0.0895784608577554
2.688,-0.320721284814916,0.0948904330716856
2.696,-0.31997520243349,0.100354699486946
2.704,-0.319087810464434,0.105982659935948
2.712,-0.318040624245725,0.111785428996819
2.72,-0.316809129714707,0.117771792614808
2.728,-0.315363596226763,0.123946374711735
2.736,-0.313670373149712,0.130308176084291
2.744,-0.311693517303318,0.136849600764038
2.752,-0.309398683308136,0.143555082162945
2.76,-0.306755370274334,0.150403599553172
2.768,-0.303724269485203,0.157371534997547
2.776,-0.300275966553041,0.164425442843629
2.784,-0.29638607372631,0.171527579439232
2.792,-0.292035612574562,0.17863726058977
2.8,-0.287210956823692,0.185712126589781
2.808,-0.281903417562482,0.192709177213289
2.816,-0.276108592768004,0.199585478816086
2.824,-0.269825626730258,0.206298495892194
2.832,-0.263056530098176,0.212806054092818
2.84,-0.25580569758108,0.219065994502356
2.848,-0.248079729583419,0.225035623750586
2.856,-0.239887619852752,0.230671096124684
2.864,-0.231241318744974,0.235926878501434
2.872,-0.222156627031163,0.240755444793369
2.88,-0.21265432468566,0.245107323939054
2.888,-0.202761398780708,0.248931586590923
2.896,-0.192512209413001,0.252176804742715
2.904,-0.181949425812933,0.254792461192284
2.912,-0.171124577788867,0.256730728405869
2.92,-0.160098099570311,0.25794848561833
2.928,-0.148938790974593,0.25840940490655
2.936,-0.137722679788433,0.258085916316003
2.944,-0.126531333119278,0.256960861908036
2.952,-0.115449727274697,0.255028669703005
2.96,-0.104563838491886,0.252295919457932
2.968,-0.0939581543723891,0.248781229368526
2.976,-0.0837133233012816,0.244514460541503
2.984,-0.0739041537300542,0.239535307514409
2.992,-0.0645981464713599,0.23389141058788
3,-0.0558546931161194,0.22763618179441
3.008,-0.0477447012296395,0.220848439330054
3.016,-0.0402801053532333,0.213574642921015
3.024,-0.0334945299573591,0.205868059391968
3.032,-0.0274190382953765,0.197779493833659
3.04,-0.0220845662924938,0.18935776764942
3.048,-0.0175240666983507,0.180651164312947
3.056,-0.0137740375171913,0.171709722342521
3.064,-0.0108751568238832,0.162588151422086
3.072,-0.00887182601004855,0.153349062932816
3.08,-0.00781052817493777,0.144066149933745
3.088,-0.00773702755727138,0.134826930746838
3.096,-0.00869255788094526,0.125734688057755
3.104,-0.0107092596912395,0.116909291346514
3.112,-0.0138052175106214,0.108486679839901
3.12,-0.0179795070590494,0.100616897984649
3.128,-0.0232215616075895,0.0934532074158601
3.136,-0.0294944258135288,0.087172456742633
3.144,-0.0366885901776444,0.0819626875146911
3.152,-0.0446824371076495,0.077983967060944
3.16,-0.0533253164499714,0.0753803514403214
3.168,-0.0624409867720837,0.0742741740030548
3.176,-0.0718322725534713,0.0747614211962815
3.184,-0.0812865557599552,0.0769084622833444
3.192,-0.0905816647288158,0.0807502665465144
3.2,-0.0994917129023528,0.0862900990980152
3.208,-0.10779247514931,0.093500549533424
3.216,-0.11526596584271,0.102325630507663
3.224,-0.1217039917896,0.112683598025592
3.232,-0.126910582558263,0.12447010031825
3.24,-0.130703336426948,0.137561261960953
3.248,-0.132913847480281,0.151816353818572
3.256,-0.13339198211336,0.167051738524606
3.264,-0.132010231958433,0.183124203599716
3.272,-0.128635865212586,0.199867895753865
3.28,-0.123145543272877,0.217090735705456
3.288,-0.115428334248656,0.234582590534741
3.296,-0.105388561944872,0.252113994771224
3.304,-0.0929496067799956,0.26943549280089
3.312,-0.0780584621560075,0.286277948098595
3.32,-0.0606907437995805,0.302354091201645
3.328,-0.040855771709227,0.317361475137382
3.336,-0.0186013020453336,0.330986884527024
3.344,0.00598251644003998,0.342912114896028
3.352,0.0327603500743967,0.352820914356695
3.36,0.0615503683373783,0.360406772524362
3.368,0.0921246279771793,0.365381161076166
3.376,0.124213370806183,0.367480550105223
3.384,0.157512645622077,0.366465532975922
3.392,0.191656581440922,0.36215771117941
3.4,0.226271382589298,0.354420892095539
3.408,0.260965250357608,0.343169162218066
3.416,0.295336488266797,0.328368907051075
3.424,0.328981672660799,0.310039305618419
3.432,0.361503573678695,0.288251380286388
3.44,0.392518556641574,0.263125748574907
3.448,0.421663251604824,0.234829271705127
3.456,0.448600343030383,0.203570822963044
3.464,0.473023396032855,0.16959640772616
3.472,0.494660694882048,0.133183858184755
3.48,0.513278118979285,0.0946373028371586
3.488,0.528681118395742,0.0542815781735082
3.496,0.540715873960702,0.0124567124769413
3.504,0.549271184028627,-0.0304835617061971
3.512,0.554277349513819,-0.0741866894122648
3.52,0.55570104562547,-0.118303111504028
3.528,0.553548621360995,-0.162483134724928
3.536,0.547863996500334,-0.206385765601265
3.544,0.538726663151492,-0.249682874808236
3.552,0.52624923156708,-0.292063057388436
3.56,0.510574539114186,-0.333235135474304
3.568,0.491872351903325,-0.372931241055382
3.576,0.470335704527329,-0.410909411434196
3.584,0.446176942684653,-0.446955631249657
3.592,0.419623553696216,-0.480885263392634
3.6,0.390913888350004,-0.512543826945663
3.608,0.360292891511075,-0.54180710262064
3.616,0.328007966344281,-0.568580573368029
3.624,0.294305096308991,-0.592798237527225
3.632,0.259432305607748,-0.614420317177734
3.64,0.223615823420314,-0.633436935338227
3.648,0.187075468038199,-0.649854816499897
3.656,0.150020235501865,-0.663698899937906
3.664,0.11264616520679,-0.675010106999958
3.672,0.0751356314396034,-0.683842780237366
3.68,0.0376570461174918,-0.690262251977167
3.688,0.000364912841916527,-0.694342599940207
3.696,-0.0365998339565425,-0.696164630322914
3.704,-0.0731092728944834,-0.695814111469631
3.712,-0.109047788355963,-0.693380264999718
3.72,-0.144311271990422,-0.688954507001549
3.728,-0.178806284233302,-0.682629420430958
3.736,-0.212449216552311,-0.674497931641369
3.744,-0.24516548374739,-0.664652659222406
3.752,-0.276887982963296,-0.653185471972349
3.76,-0.307556545946358,-0.640187876598923
3.768,-0.337122042897277,-0.625749083564571
3.776,-0.365539287350679,-0.609956117181913
3.784,-0.392768793607192,-0.592893870669417
3.792,-0.418776218973737,-0.574644926905029
3.8,-0.443531822353221,-0.555289416144971
3.808,-0.467009931916022,-0.534904912976192
3.816,-0.489188418315401,-0.51356637761835
3.824,-0.510048173990183,-0.491346147786616
3.832,-0.529572602934657,-0.468313986786627
3.84,-0.54774712838578,-0.444537191636519
3.848,-0.564558727832302,-0.420080762218885
3.856,-0.579995505409522,-0.395007629273169
3.864,-0.594046311119294,-0.369378935948149
3.872,-0.6067004145921,-0.343254365099057
3.88,-0.617949357281286,-0.316693549323976
3.888,-0.627782338988552,-0.289752823412752
3.896,-0.636187070284919,-0.262488572845227
3.904,-0.64315191708432,-0.234958231847107
3.912,-0.648664813366936,-0.207219925096154
3.92,-0.652713328411126,-0.179332945535952
3.928,-0.655284804987192,-0.151358219523344
3.936,-0.656366562267322,-0.123358752636432
3.944,-0.655946157036588,-0.0954000527887502
3.952,-0.654011698084395,-0.0675505304586963
3.96,-0.650552211342087,-0.0398818783084537
3.968,-0.645558057139542,-0.0124694336962571
3.976,-0.639021405441665,0.0146074728389186
3.984,-0.630936779503087,0.0412651824123953
3.992,-0.621301682375733,0.0674153896420082
4,-0.610117323387375,0.0929648515168665
4.008,-0.597392638420796,0.11780943463346
4.016,-0.583138314983878,0.141852805308817
4.024,-0.567371570180399,0.164986613591309
4.032,-0.550117292474131,0.187096901338722
4.04,-0.531409543195262,0.208064324853666
4.048,-0.511293187719305,0.227764666062197
4.056,-0.489825606152646,0.246069689411656
4.064,-0.467079734220546,0.262847312802824
4.072,-0.443149302753788,0.277964106286261
4.08,-0.418133551031574,0.291296156009333
4.088,-0.392153957288714,0.302716795521555
4.096,-0.365351087434575,0.312105257809198
4.104,-0.337885107368208,0.319349945515159
4.112,-0.309935679669204,0.324352037658652
4.12,-0.281701126842293,0.327029305495683
4.128,-0.253388933248467,0.327318039661262
4.136,-0.225226235345664,0.325172294414252
4.144,-0.197471041866672,0.320583468926923
4.152,-0.170374091355851,0.313574542813485
4.16,-0.144187042053861,0.304201571992441
4.168,-0.119156875772323,0.292554306144713
4.176,-0.0955201470057273,0.278755665981921
4.184,-0.0734973420787832,0.262960048312289
4.192,-0.0532917921415638,0.245346347095672
4.2,-0.0350784029528335,0.226126358364016
4.208,-0.0189968643358043,0.205533009117617
4.216,-0.00515642021539838,0.183809539052503
4.224,0.00636788315201055,0.161207517292058
4.232,0.0155353895522728,0.137980925000271
4.24,0.0223388433919347,0.114380453901777
4.248,0.0268023259317296,0.0906482762777759
4.256,0.0289884195958512,0.067034728483856
4.264,0.0289789489745718,0.0437303508694933
4.272,0.026866267912607,0.0209157867650599
4.28,0.0227591196845392,-0.00124043603916801
4.288,0.0167772105299805,-0.0225901094643233
4.296,0.0090475849887752,-0.0430050693762075
4.304,-0.000298580951460152,-0.0623763084607369
4.312,-0.0111286807934234,-0.0806126311801416
4.32,-0.0233614897297853,-0.0976347494574775
4.328,-0.0368151080072594,-0.113361196777798
4.336,-0.0513511163518341,-0.127746386701264
4.344,-0.0668398956644872,-0.140758871663132
4.352,-0.0831583399534303,-0.1523787570715
4.36,-0.1001904622061,-0.162595690635854
4.368,-0.117827604995036,-0.171406978196512
4.376,-0.135967353694176,-0.17882276559442
4.384,-0.154523916189598,-0.184893049089094
4.392,-0.173427109238578,-0.189575139727576
4.4,-0.192592152289635,-0.192873621185519
4.408,-0.211936738488397,-0.194795444817469
4.416,-0.231380622645781,-0.195349994522929
4.424,-0.250845374668042,-0.194549227366351
4.432,-0.270254293558437,-0.192407829473939
4.44,-0.289527584739721,-0.188939440825906
4.448,-0.308582939601341,-0.184165393229094
4.456,-0.327361061308531,-0.178121660110379
4.464,-0.345797289424734,-0.170834732770499
4.472,-0.363829686197517,-0.162332103294719
4.48,-0.381398750989855,-0.152641796267091
4.488,-0.398446996417631,-0.141791928672303
4.496,-0.414918380058231,-0.129810341484646
4.504,-0.430760833118789,-0.116729796756205
4.512,-0.445922602572115,-0.102574192113375
4.52,-0.460343987711843,-0.0873620393009235
4.528,-0.473964701647075,-0.0711183345138248
4.536,-0.4867212722272,-0.0538692677476126
4.544,-0.49854639592868,-0.0356432372265373
4.552,-0.509368469418944,-0.0164720964602263
4.56,-0.519111362471424,0.003607387530035
4.568,-0.527694495816896,0.0245519020209306
4.576,-0.535033283916606,0.0463098366285503
4.584,-0.541039994892852,0.0688194833718724
4.592,-0.545625067339087,0.0920072778466508
4.6,-0.548698906003662,0.115786186418775
4.608,-0.550174155184915,0.140054357182954
4.616,-0.549968420289766,0.164694160520429
4.624,-0.54800737516269,0.18957174646732
4.632,-0.544208271293885,0.214559766931122
4.64,-0.538530250339698,0.239463429929739
4.648,-0.530949938572561,0.264097296039254
4.656,-0.521464733978032,0.288270054717893
4.664,-0.510097460727956,0.311784456954463
4.672,-0.496898255773113,0.334441693613487
4.68,-0.481945531940458,0.356046300138211
4.688,-0.465354188702081,0.376413209853991
4.696,-0.447361895145742,0.395435584985088
4.704,-0.427968541718648,0.412957788626905
4.712,-0.407325482832871,0.428825916701218
4.72,-0.385608012361012,0.442884292734774
4.728,-0.363048101896438,0.454936462302218
4.736,-0.339909538265596,0.465019034083131
4.744,-0.316417961749954,0.473111173858545
4.752,-0.29279577351637,0.479227638361693
4.76,-0.269252645983021,0.483416390404553
4.768,-0.245987678786354,0.485736555084205
4.776,-0.223184690145107,0.486281119837414
4.784,-0.201007116333113,0.485163828092222
4.792,-0.179595634764474,0.482514764445565
4.8,-0.159066766853888,0.478475760044466
4.808,-0.139512423917718,0.473195833838512
4.816,-0.120999202229179,0.466825441973263
4.824,-0.103572811592224,0.459513992116934
4.832,-0.0872590420335354,0.45140978902456
4.84,-0.0720625266814602,0.44265250912349
4.848,-0.0579711079190963,0.433372104255045
4.856,-0.0449586222741568,0.423686983754965
4.864,-0.0329878126071558,0.413702809111043
4.872,-0.0220132515250658,0.403511889383963
4.88,-0.0119871798153458,0.393193958920872
4.888,-0.00285419770526265,0.382817321915416
4.896,0.00544291683494642,0.372435762162095
4.904,0.0129578119962243,0.362091673013344
4.912,0.0197405331787168,0.351817900363235
4.92,0.0258362482188942,0.341639761270045
4.928,0.0312845532220052,0.331577208542738
4.936,0.0361193771227961,0.321646988921523
4.944,0.0403829116411529,0.311864971362135
4.952,0.0440901009355145,0.302235928025831
4.96,0.0472535492603779,0.292776082189878
4.968,0.0498873532311313,0.283508157876436
4.976,0.0519139238980099,0.274498476732085
4.984,0.0534884329554268,0.265822701404967
4.992,0.0546899186500704,0.257477507824602
5,0.055573025893869,0.249442428378042
5.008,0.0560780247492503,0.241484484009127
5.016,0.056228097097434,0.23385844479435
5.024,0.0560127445707085,0.226663981484649
5.032,0.0555356848220262,0.219850599440069
5.04,0.0548882922482261,0.213449286477404
5.048,0.054118860383699,0.207408401646249
5.056,0.0532759061755267,0.201696613280711
5.064,0.0524037475734426,0.196267705801784
5.072,0.051535551215267,0.191040978837777
5.08,0.0506281020818741,0.185995587426119
5.088,0.0496686602206174,0.181108737168918
5.096,0.048614395365235,0.176361828099365
5.104,0.0474084913119278,0.171784312548804
5.112,0.0461351030914455,0.167418520081684
5.12,0.0448189932256217,0.163259302279946
5.128,0.0435171785613583,0.159276126060525
5.136,0.0422456177907756,0.155406492207686
5.144,0.0409368225922172,0.15165534817886
5.152,0.0395859469994585,0.148018512703688
5.16,0.0381884697409329,0.144494081504381
5.168,0.0367405272139994,0.141082241845621
5.176,0.0352392359933913,0.137785084347735
5.184,0.0336830242928129,0.134606392680541
5.192,0.0320804704697546,0.131546658073676
5.2,0.0304254116302709,0.128608536027261
5.208,0.0287129193227341,0.125805293094137
5.216,0.0269507179053982,0.123148374379862
5.224,0.0251510048740725,0.120647647050395
5.232,0.0233298150959956,0.118310026189511
5.24,0.0215059934621274,0.116138349179992
5.248,0.0196998694700138,0.114130605976195
5.256,0.0179451623048097,0.112281157987022
5.264,0.0162507307598203,0.110568223482778
5.272,0.0146242595930514,0.108974598070589
5.28,0.0130743215580226,0.10748255466602
5.288,0.0116055848908598,0.106072958911136
5.296,0.0102185149140108,0.104726260145133
5.304,0.00890933578955939,0.103423540152966
5.312,0.00767026213653505,0.102147551749843
5.32,0.00648999260392986,0.100883677972621
5.328,0.0053544398020196,0.0996207459082557
5.336,0.00424765440931319,0.098351636983414
5.344,0.00315288695838942,0.0970736475093501
5.352,0.00205371982903586,0.0957885687960823
5.36,0.000935195224987678,0.094502474292851
5.368,-0.000215136967594902,0.0932252208363525
5.376,-0.00140794644889278,0.0919698038660472
5.384,-0.00265701368179075,0.0907552339227476
5.392,-0.00394933255593291,0.0895985029481201
5.4,-0.00527914982312699,0.0885137595303066
5.408,-0.00663688434514725,0.0875132840186491
5.416,-0.00800971382878856,0.086606564724057
5.424,-0.00938238120540665,0.0857995416740006
5.432,-0.0107381751373272,0.0850940709410773
5.44,-0.0120507896570098,0.084489291459322
5.448,-0.0132944791317055,0.0839723823746285
5.456,-0.0144782367571613,0.0835266237509663
5.464,-0.0155924608969939,0.0831403364764285
5.472,-0.0166303212465008,0.0827990516944892
5.48,-0.0175887063007486,0.0824863091498397
5.488,-0.018468903330468,0.0821847910862822
5.496,-0.019276893236229,0.0818776907200468
5.504,-0.0200943306808126,0.0815276486804235
5.512,-0.021001081219538,0.0811712450716444
5.52,-0.0217525725557573,0.0809477489317516
5.528,-0.022262620179217,0.0807130461881408
5.536,-0.0227674268188723,0.0803089464784701
5.544,-0.0233264725975447,0.0798051640089864
5.552,-0.0239237574579737,0.0792561106545218
5.56,-0.0245730376895583,0.0786790111599117
5.568,-0.0252785321529593,0.0781255464070352
5.576,-0.0260278492776623,0.0775934748087047
5.584,-0.0268204638582657,0.077081786526281
5.592,-0.0276539151447451,0.0766041103701523
5.6,-0.0285224203818587,0.0761731079370932
5.608,-0.0294171719284347,0.0757997260229634
5.616,-0.0303267949898777,0.0754925258758396
5.624,-0.0312379495480643,0.0752571217925834
5.632,-0.0321560224195273,0.0751509677447327
5.64,-0.0330158367395977,0.0751336510847603
5.648,-0.033795562779357,0.075178311093057
5.656,-0.0344853508249226,0.0752609083790306
