"Freq [GHz]","re(S(Tx_p1,Tx_p1)) []","im(S(Tx_p1,Tx_p1)) []"
1,-0.001900803418,-0.001056171789
1.01,-0.001922040246,-0.0009699079151
1.02,-0.001939528654,-0.0008842215853
1.03,-0.001953393246,-0.0007992798937
1.04,-0.001963766954,-0.0007152366551
1.05,-0.00197078978,-0.0006322319591
1.06,-0.001974607511,-0.0005503918379
1.07,-0.001975370426,-0.0004698280463
1.08,-0.001973232001,-0.0003906379543
1.09,-0.001968347625,-0.0003129045508
1.1,-0.001960873324,-0.0002366965567
1.11,-0.001950964524,-0.0001620686457
1.12,-0.001938774832,-8.90617683E-05
1.13,-0.001924454872,-1.770357652E-05
1.14,-0.001908151163,5.199105593E-05
1.15,-0.001890005061,0.0001200194225
1.16,-0.001870151754,0.0001863902871
1.17,-0.001848719344,0.0002511231086
1.18,-0.001825827989,0.0003142471921
1.19,-0.001801589139,0.0003758007742
1.2,-0.001776104855,0.00043583005
1.21,-0.001749467218,0.000494388149
1.22,-0.001721757834,0.0005515340681
1.23,-0.001693047438,0.0006073315692
1.24,-0.001663395594,0.000661848051
1.25,-0.001632850502,0.0007151534022
1.26,-0.001601448907,0.0007673188455
1.27,-0.001569216103,0.0008184157807
1.28,-0.001536166048,0.000868514635
1.29,-0.00150230158,0.0009176837304
1.3,-0.001467614723,0.0009659881743
1.31,-0.001432087103,0.001013488784
1.32,-0.001395690446,0.00106024105
1.33,-0.001358387174,0.00110629415
1.34,-0.001320131083,0.001151690016
1.35,-0.001280868101,0.001196462464
1.36,-0.001240537125,0.001240636397
1.37,-0.001199070923,0.001284227072
1.38,-0.001156397105,0.001327239464
1.39,-0.001112439141,0.001369667696
1.4,-0.001067117438,0.00141149458
1.41,-0.001020350453,0.001452691232
1.42,-0.000972055838,0.001493216797
1.43,-0.0009221516191,0.001533018272
1.44,-0.0008705573822,0.001572030424
1.45,-0.0008171954755,0.001610175819
1.46,-0.0007619922099,0.001647364952
1.47,-0.0007048790521,0.001683496479
1.48,-0.0006457938007,0.001718457551
1.49,-0.000584681739,0.001752124257
1.5,-0.0005214967534,0.00178436216
1.51,-0.0004562024117,0.001815026931
1.52,-0.0003887729925,0.001843965077
1.53,-0.0003191944574,0.001871014764
1.54,-0.0002474653606,0.001896006718
1.55,-0.0001735976863,0.001918765207
1.56,-9.761761032E-05,0.001939109109
1.57,-1.956617753E-05,0.001956853031
1.58,6.050010929E-05,0.001971808504
1.59,0.0001425087945,0.001983785231
1.6,0.0002263710735,0.001992592374
1.61,0.0003119814983,0.001998039892
1.62,0.00039921779,0.001999939908
1.63,0.0004879407586,0.001998108095
1.64,0.0005779943345,0.001992365082
1.65,0.0006692057112,0.001982537868
1.66,0.0007613856014,0.001968461228
1.67,0.0008543286056,0.001949979115
1.68,0.0009478136932,0.001926946037
1.69,0.001041604795,0.001899228411
1.7,0.001135451504,0.001866705874
1.71,0.001229089883,0.001829272551
1.72,0.001322243379,0.001786838274
1.73,0.001414623827,0.001739329729
1.74,0.001505932564,0.001686691543
1.75,0.001595861619,0.001628887291
1.76,0.001684094994,0.001565900413
1.77,0.001770310022,0.001497735048
1.78,0.0018541788,0.00142441677
1.79,0.001935369678,0.001345993218
1.8,0.002013548811,0.001262534619
1.81,0.002088381759,0.001174134201
1.82,0.00215953513,0.001080908489
1.83,0.002226678246,0.0009829974812
1.84,0.002289484844,0.0008805647006
1.85,0.00234763478,0.0007737971284
1.86,0.00240081575,0.0006629050051
1.87,0.002448724993,0.0005481215098
1.88,0.002491070992,0.0004297023105
1.89,0.002527575145,0.0003079249908
1.9,0.002557973408,0.0001830883507
1.91,0.00258201789,5.551158665E-05
1.92,0.002599478409,-7.446664916E-05
1.93,0.002610143974,-0.0002064893044
1.94,0.00261382421,-0.0003401820947
1.95,0.002610350704,-0.000475154779
1.96,0.002599578262,-0.0006110025365
1.97,0.002581386083,-0.0007473074398
1.98,0.002555678824,-0.0008836400181
1.99,0.002522387568,-0.001019560902
2,0.002481470674,-0.001154622545
2.01,0.002432914514,-0.001288371009
2.02,0.002376734084,-0.001420347816
2.03,0.002312973492,-0.001550091839
2.04,0.002241706308,-0.001677141246
2.05,0.002163035792,-0.001801035468
2.06,0.002077094972,-0.00192131719
2.07,0.001984046597,-0.002037534362
2.08,0.001884082936,-0.002149242204
2.09,0.001777425453,-0.002256005209
2.1,0.001664324332,-0.002357399131
2.11,0.001545057864,-0.002453012939
2.12,0.001419931704,-0.002542450745
2.13,0.001289277987,-0.002625333676
2.14,0.001153454315,-0.002701301697
2.15,0.001012842619,-0.002770015368
2.16,0.0008678478968,-0.002831157522
2.17,0.000718896827,-0.002884434871
2.18,0.0005664362817,-0.002929579508
2.19,0.0004109317254,-0.002966350322
2.2,0.0002528655174,-0.0029945343
2.21,9.273512239E-05,-0.003013947717
2.22,-6.894876238E-05,-0.003024437209
2.23,-0.000231664156,-0.003025880718
2.24,-0.0003948798092,-0.003018188307
2.25,-0.0005580572775,-0.003001302838
2.26,-0.0007206530427,-0.002975200518
2.27,-0.0008821206726,-0.00293989129
2.28,-0.00104191301,-0.002895419091
2.29,-0.001199484381,-0.002841861954
2.3,-0.00135429281,-0.002779331967
2.31,-0.001505802234,-0.002707975078
2.32,-0.001653484706,-0.002627970758
2.33,-0.001796822573,-0.002539531508
2.34,-0.001935310626,-0.002442902228
2.35,-0.002068458205,-0.002338359432
2.36,-0.00219579125,-0.002226210337
2.37,-0.002316854291,-0.002106791797
2.38,-0.002431212375,-0.00198046912
2.39,-0.002538452894,-0.001847634746
2.4,-0.002638187344,-0.001708706811
2.41,-0.002730052978,-0.001564127592
2.42,-0.002813714348,-0.001414361839
2.43,-0.002888864747,-0.001259895014
2.44,-0.002955227525,-0.00110123143
2.45,-0.003012557279,-0.0009388923079
2.46,-0.003060640916,-0.0007734137509
2.47,-0.003099298576,-0.0006053446603
2.48,-0.003128384421,-0.0004352445857
2.49,-0.003147787272,-0.0002636815296
2.5,-0.00315743111,-9.122971331E-05
2.51,-0.003157275413,8.153268692E-05
2.52,-0.00314731536,0.0002540258208
2.53,-0.003127581866,0.0004256704536
2.54,-0.00309814148,0.0005958902539
2.55,-0.003059096126,0.0007641140679
2.56,-0.003010582687,0.0009297781714
2.57,-0.002952772454,0.001092328489
2.58,-0.002885870425,0.001251222771
2.59,-0.002810114454,0.001405932714
2.6,-0.002725774277,0.001555946028
2.61,-0.00263315039,0.00170076842
2.62,-0.002532572813,0.001839925511
2.63,-0.002424399719,0.001972964654
2.64,-0.002309015958,0.002099456658
2.65,-0.002186831468,0.002218997417
2.66,-0.00205827958,0.002331209412
2.67,-0.001923815241,0.002435743114
2.68,-0.001783913142,0.002532278246
2.69,-0.001639065775,0.002620524933
2.7,-0.001489781418,0.002700224706
2.71,-0.001336582072,0.002771151379
2.72,-0.001180001336,0.002833111778
2.73,-0.001020582255,0.002885946332
2.74,-0.0008588751319,0.002929529517
2.75,-0.0006954353231,0.002963770156
2.76,-0.0005308210268,0.002988611569
2.77,-0.0003655910699,0.003004031577
2.78,-0.0002003027066,0.003010042364
2.79,-3.550943834E-05,0.003006690191
2.8,0.0001282411357,0.002994054967
2.81,0.0002904094285,0.002972249685
2.82,0.0004504659261,0.00294141972
2.83,0.000607893189,0.00290174199
2.84,0.0007621877886,0.002853423999
2.85,0.0009128621668,0.002796702756
2.86,0.001059446414,0.002731843568
2.87,0.001201489958,0.00265913874
2.88,0.001338563149,0.002578906156
2.89,0.001470258755,0.002491487776
2.9,0.001596193328,0.00239724804
2.91,0.001716008478,0.002296572189
2.92,0.001829372006,0.002189864522
2.93,0.001935978932,0.002077546582
2.94,0.002035552382,0.001960055294
2.95,0.002127844352,0.00183784105
2.96,0.002212636341,0.001711365768
2.97,0.002289739848,0.001581100916
2.98,0.002358996731,0.001447525521
2.99,0.002420279441,0.001311124167
3,0.002473491112,0.001172385002
3.01,0.002518565524,0.001031797745
3.02,0.00255546693,0.0008898517174
3.03,0.002584189759,0.0007470339015
3.04,0.002604758188,0.0006038270362
3.05,0.002617225593,0.0004607077556
3.06,0.002621673882,0.000318144782
3.07,0.002618212714,0.0001765971794
3.08,0.002606978605,3.651267427E-05
3.09,0.00258813394,-0.0001016739482
3.1,0.002561865872,-0.0002375423668
3.11,0.002528385148,-0.0003706881595
3.12,0.002487924835,-0.0005007241462
3.13,0.002440738982,-0.0006272816327
3.14,0.002387101199,-0.000750011554
3.15,0.002327303188,-0.0008685855095
3.16,0.002261653206,-0.0009826966904
3.17,0.002190474496,-0.001092060694
3.18,0.002114103668,-0.001196416224
3.19,0.002032889055,-0.001295525674
3.2,0.00194718905,-0.001389175597
3.21,0.00185737043,-0.001477177051
3.22,0.001763806668,-0.00155936584
3.23,0.001666876258,-0.001635602623
3.24,0.001566961045,-0.001705772922
3.25,0.001464444579,-0.00176978701
3.26,0.001359710492,-0.00182757969
3.27,0.00125314091,-0.001879109969
3.28,0.001145114913,-0.001924360623
3.29,0.001036007031,-0.001963337671
3.3,0.0009261858084,-0.001996069746
3.31,0.0008160124216,-0.002022607379
3.32,0.0007058393632,-0.002043022197
3.33,0.0005960092023,-0.002057406043
3.34,0.0004868534181,-0.002065870021
3.35,0.0003786913163,-0.002068543477
3.36,0.0002718290303,-0.002065572912
3.37,0.0001665586097,-0.00205712085
3.38,6.315720155E-05,-0.002043364656
3.39,-3.811367671E-05,-0.002024495309
3.4,-0.0001370087678,-0.002000716149
3.41,-0.0002332996094,-0.001972241595
3.42,-0.0003267749721,-0.001939295844
3.43,-0.0004172411991,-0.001902111561
3.44,-0.0005045224504,-0.001860928565
3.45,-0.0005884608503,-0.001815992515
3.46,-0.0006689165399,-0.001767553606
3.47,-0.0007457676378,-0.001715865286
3.48,-0.00081891011,-0.001661182993
3.49,-0.0008882575524,-0.001603762917
3.5,-0.0009537408885,-0.00154386081
3.51,-0.001015307988,-0.001481730819
3.52,-0.001072923205,-0.001417624385
3.53,-0.001126566852,-0.001351789177
3.54,-0.001176234596,-0.001284468091
3.55,-0.001221936798,-0.001215898308
3.56,-0.0012636978,-0.001146310416
3.57,-0.001301555147,-0.001075927597
3.58,-0.001335558779,-0.001004964891
3.59,-0.001365770169,-0.0009336285221
3.6,-0.001392261437,-0.0008621153141
3.61,-0.001415114429,-0.0007906121699
3.62,-0.001434419782,-0.0007192956358
3.63,-0.001450275965,-0.0006483315422
3.64,-0.001462788313,-0.0005778747228
3.65,-0.001472068063,-0.0005080688123
3.66,-0.001478231388,-0.0004390461209
3.67,-0.001481398435,-0.0003709275858
3.68,-0.001481692387,-0.0003038227966
3.69,-0.001479238542,-0.0002378300935
3.7,-0.001474163407,-0.0001730367349
3.71,-0.001466593838,-0.0001095191329
3.72,-0.001456656206,-4.734315189E-05
3.73,-0.001444475599,1.343553203E-05
3.74,-0.00143017508,7.277101578E-05
3.75,-0.00141387498,0.0001306267013
3.76,-0.00139569225,0.00018697478
3.77,-0.001375739863,0.0002417956741
3.78,-0.001354126277,0.0002950774391
3.79,-0.001330954953,0.0003468151341
3.8,-0.001306323939,0.0003970101627
3.81,-0.001280325509,0.0004456695915
3.82,-0.001253045878,0.0004928054515
3.83,-0.00122456497,0.0005384340266
3.84,-0.001194956255,0.0005825751349
3.85,-0.001164286653,0.00062525141
3.86,-0.001132616499,0.000666487584
3.87,-0.001099999573,0.0007063097809
3.88,-0.001066483188,0.000744744823
3.89,-0.001032108343,0.0007818195571
3.9,-0.0009969099279,0.0008175602029
3.91,-0.0009609169904,0.0008519917309
3.92,-0.0009241530478,0.0008851372714
3.93,-0.0008866364531,0.0009170175608
3.94,-0.000848380805,0.0009476504272
3.95,-0.0008093953995,0.0009770503201
3.96,-0.0007696857201,0.001005227886
3.97,-0.0007292539616,0.001032189596
3.98,-0.0006880995836,0.001057937419
3.99,-0.0006462198877,0.001082468556
4,-0.0006036106167,0.001105775228
4.01,-0.0005602665678,0.001127844516
4.02,-0.0005161822168,0.001148658265
4.03,-0.0004713523482,0.001168193044
4.04,-0.0004257726859,0.001186420161
4.05,-0.0003794405196,0.001203305745
4.06,-0.0003323553227,0.001218810875
4.07,-0.0002845193562,0.001232891774
4.08,-0.0002359382539,0.001245500054
4.09,-0.0001866215855,0.001256583013
4.1,-0.0001365833921,0.001266083989
4.11,-8.584268965E-05,0.001273942759
4.12,-3.442393801E-05,0.00128009598
4.13,1.764252966E-05,0.001284477685
4.14,7.032012E-05,0.001287019806
4.15,0.0001235656383,0.001287652741
4.16,0.0001773289961,0.001286305951
4.17,0.0002315529697,0.001282908581
4.18,0.0002861730128,0.001277390116
4.19,0.0003411171238,0.001269681045
4.2,0.0003963057708,0.001259713545
4.21,0.000451651874,0.001247422178
4.22,0.000507060848,0.001232744588
4.23,0.0005624307026,0.001215622202
4.24,0.0006176522041,0.001196000931
4.25,0.0006726090947,0.001173831853
4.26,0.000727178372,0.00114907189
4.27,0.0007812306243,0.001121684468
4.28,0.0008346304239,0.001091640144
4.29,0.000887236773,0.001058917219
4.3,0.0009389036035,0.001023502313
4.31,0.0009894803256,0.0009853909004
4.32,0.001038812424,0.0009445878126
4.33,0.001086742099,0.0009011076949
4.34,0.001133108946,0.000854975415
4.35,0.001177750675,0.0008062264223
4.36,0.001220503863,0.0007549070537
4.37,0.001261204731,0.000701074784
4.38,0.001299689956,0.0006447984177
4.39,0.001335797493,0.00058615822
4.4,0.001369367419,0.0005252459866
4.41,0.001400242789,0.0004621650497
4.42,0.001428270492,0.0003970302196
4.43,0.001453302119,0.0003299676614
4.44,0.001475194815,0.0002611147062
4.45,0.001493812137,0.0001906195976
4.46,0.001509024886,0.0001186411732
4.47,0.001520711931,4.534848213E-05
4.48,0.001528761002,-2.907966006E-05
4.49,0.001533069459,-0.0001044551771
4.5,0.001533545036,-0.0001805812975
4.51,0.001530106532,-0.0002572531764
4.52,0.001522684478,-0.0003342585724
4.53,0.001511221749,-0.0004113785751
4.54,0.001495674128,-0.0004883883813
4.55,0.001476010824,-0.0005650581158
4.56,0.001452214928,-0.0006411536932
4.57,0.001424283807,-0.0007164377169
4.58,0.001392229451,-0.0007906704103
4.59,0.001356078737,-0.0008636105773
4.6,0.001315873638,-0.0009350165853
4.61,0.001271671364,-0.001004647369
4.62,0.00122354443,-0.001072263445
4.63,0.001171580649,-0.001137627942
4.64,0.001115883066,-0.001200507627
4.65,0.001056569808,-0.001260673934
4.66,0.0009937738645,-0.001317903991
4.67,0.0009276428046,-0.001371981629
4.68,0.0008583384121,-0.001422698376
4.69,0.0007860362571,-0.001469854432
4.7,0.0007109251985,-0.001513259619
4.71,0.0006332068184,-0.001552734292
4.72,0.0005530947939,-0.001588110224
4.73,0.0004708142055,-0.001619231441
4.74,0.0003866007872,-0.00164595502
4.75,0.0003007001204,-0.001668151833
4.76,0.0002133667756,-0.001685707242
4.77,0.000124863404,-0.001698521729
4.78,3.545978593E-05,-0.001706511478
4.79,-5.456816319E-05,-0.001709608884
4.8,-0.0001449394221,-0.001707763
4.81,-0.0002353689253,-0.001700939911
4.82,-0.0003255686515,-0.001689123046
4.83,-0.0004152487342,-0.001672313409
4.84,-0.0005041185893,-0.001650529737
4.85,-0.0005918880546,-0.001623808585
4.86,-0.0006782685362,-0.001592204336
4.87,-0.000762974156,-0.001555789126
4.88,-0.0008457228958,-0.001514652705
4.89,-0.0009262377321,-0.001468902212
4.9,-0.001004247757,-0.001418661874
4.91,-0.001079489277,-0.001364072638
4.92,-0.001151706893,-0.001305291724
4.93,-0.001220654545,-0.001242492104
4.94,-0.001286096523,-0.00117586192
4.95,-0.001347808443,-0.001105603828
4.96,-0.001405578175,-0.001031934277
4.97,-0.001459206724,-0.0009550827346
4.98,-0.001508509061,-0.000875290846
4.99,-0.001553314894,-0.0007928115441
5,-0.001593469385,-0.0007079081076
5.01,-0.001628833799,-0.0006208531728
5.02,-0.001659286089,-0.0005319277039
5.03,-0.001684721413,-0.000441419926
5.04,-0.001705052581,-0.0003496242255
5.05,-0.001720210427,-0.0002568400225
5.06,-0.001730144105,-0.000163370621
5.07,-0.001734821312,-6.952204119E-05
5.08,-0.001734228436,2.439816077E-05
5.09,-0.001728370618,0.0001180820799
5.1,-0.001717271743,0.0002112226516
5.11,-0.001700974351,0.0003035148376
5.12,-0.001679539472,0.0003946568032
5.13,-0.00165304638,0.0004843510806
5.14,-0.001621592277,0.0005723057141
5.15,-0.001585291899,0.0006582353799
5.16,-0.001544277048,0.0007418624789
5.17,-0.001498696063,0.0008229181942
5.18,-0.001448713214,0.0009011435119
5.19,-0.001394508032,0.0009762901982
5.2,-0.001336274585,0.00104812173
5.21,-0.001274220687,0.001116414176
5.22,-0.001208567058,0.001180957021
5.23,-0.001139546429,0.001241553932
5.24,-0.001067402605,0.001298023471
5.25,-0.0009923894794,0.001350199729
5.26,-0.0009147700162,0.001397932907
5.27,-0.0008348151955,0.001441089823
5.28,-0.0007528029317,0.001479554346
5.29,-0.0006690169667,0.00151322776
5.3,-0.0005837457454,0.001542029058
5.31,-0.0004972812769,0.001565895152
5.32,-0.0004099179871,0.001584781015
5.33,-0.0003219515672,0.001598659748
5.34,-0.0002336778242,0.001607522567
5.35,-0.0001453915376,0.001611378718
5.36,-5.738532675E-05,0.001610255321
5.37,3.005146401E-05,0.001604197131
5.38,0.0001166338606,0.001593266239
5.39,0.000202082328,0.0015775417
5.4,0.0002861238087,0.001557119086
5.41,0.0003684927269,0.001532109985
5.42,0.0004489319537,0.001502641431
5.43,0.0005271937295,0.001468855275
5.44,0.0006030405402,0.0014309075
5.45,0.000676245943,0.001388967485
5.46,0.000746595339,0.001343217218
5.47,0.0008138866905,0.001293850462
5.48,0.0008779311776,0.001241071886
5.49,0.0009385537954,0.001185096147
5.5,0.0009955938865,0.001126146956
5.51,0.001048905609,0.001064456098
5.52,0.001098358337,0.00100026244
5.53,0.001143836995,0.0009338109181
5.54,0.00118524232,0.0008653515045
5.55,0.001222491061,0.0007951381715
5.56,0.001255516102,0.0007234278461
5.57,0.001284266517,0.0006504793663
5.58,0.001308707565,0.0005765524406
5.59,0.001328820601,0.0005019066168
5.6,0.001344602938,0.0004268002643
5.61,0.00135606763,0.0003514895741
5.62,0.001363243195,0.0002762275803
5.63,0.00136617328,0.0002012632084
5.64,0.001364916265,0.0001268403537
5.65,0.001359544804,5.319699298E-05
5.66,0.001350145318,-1.943566539E-05
5.67,0.001336817437,-9.083399144E-05
5.68,0.001319673387,-0.0001607826989
5.69,0.001298837342,-0.0002290755641
5.7,0.001274444725,-0.0002955160946
5.71,0.001246641478,-0.0003599181471
5.72,0.001215583293,-0.0004221064897
5.73,0.001181434821,-0.0004819173103
5.74,0.001144368846,-0.0005391986654
5.75,0.001104565441,-0.0005938108722
5.76,0.001062211112,-0.0006456268396
5.77,0.001017497916,-0.0006945323403
5.78,0.000970622587,-0.0007404262208
5.79,0.000921785638,-0.0007832205523
5.8,0.0008711904785,-0.0008228407194
5.81,0.0008190425262,-0.0008592254506
5.82,0.0007655483293,-0.0008923267884
5.83,0.0007109146995,-0.0009221100019
5.84,0.0006553478608,-0.0009485534423
5.85,0.0005990526168,-0.0009716483439
5.86,0.0005422315406,-0.000991398571
5.87,0.0004850841917,-0.001007820314
5.88,0.0004278063605,-0.001020941737
5.89,0.0003705893468,-0.001030802577
5.9,0.0003136192726,-0.001037453704
5.91,0.0002570764328,-0.001040956633
5.92,0.0002011346866,-0.001041383007
5.93,0.0001459608913,-0.001038814037
5.94,9.171437974E-05,-0.001033339916
5.95,3.854648517E-05,-0.001025059203
5.96,-1.339988755E-05,-0.001014078184
5.97,-6.399064129E-05,-0.001000510212
5.98,-0.0001131008167,-0.0009844750237
5.99,-0.0001606148718,-0.0009660980559
6,-0.000206426911,-0.0009455097378
