"Freq [GHz]","re(S(Tx_p1,Tx_p1)) []","im(S(Tx_p1,Tx_p1)) []"
1,-0.006024073325,-0.02305853404
1.01,-0.006779697245,-0.02273147815
1.02,-0.007521098579,-0.02237941686
1.03,-0.0082472872,-0.02200301961
1.04,-0.008957319826,-0.02160300282
1.05,-0.0096503019,-0.02118012599
1.06,-0.01032538919,-0.02073518778
1.07,-0.01098178912,-0.02026902213
1.08,-0.01161876181,-0.01978249429
1.09,-0.01223562091,-0.019276497
1.1,-0.01283173409,-0.01875194657
1.11,-0.01340652337,-0.01820977914
1.12,-0.01395946511,-0.01765094693
1.13,-0.01449008983,-0.01707641458
1.14,-0.01499798182,-0.0164871556
1.15,-0.01548277841,-0.01588414894
1.16,-0.0159441692,-0.01526837562
1.17,-0.01638189495,-0.01464081558
1.18,-0.01679574634,-0.01400244454
1.19,-0.01718556257,-0.01335423117
1.2,-0.01755122978,-0.01269713427
1.21,-0.01789267928,-0.01203210021
1.22,-0.01820988574,-0.0113600605
1.23,-0.01850286515,-0.01068192956
1.24,-0.0187716727,-0.00999860266
1.25,-0.01901640066,-0.009310954052
1.26,-0.01923717601,-0.008619835313
1.27,-0.01943415815,-0.007926073859
1.28,-0.01960753646,-0.007230471669
1.29,-0.01975752788,-0.006533804207
1.3,-0.01988437446,-0.005836819537
1.31,-0.01998834082,-0.005140237636
1.32,-0.02006971176,-0.00444474991
1.33,-0.02012878974,-0.003751018886
1.34,-0.02016589248,-0.003059678109
1.35,-0.02018135058,-0.002371332207
1.36,-0.02017550518,-0.001686557147
1.37,-0.02014870571,-0.001005900653
1.38,-0.02010130769,-0.0003298827918
1.39,-0.02003367067,0.0003410032796
1.4,-0.01994615621,0.001006290427
1.41,-0.01983912604,0.001665536507
1.42,-0.01971294024,0.002318323204
1.43,-0.01956795566,0.002964254754
1.44,-0.01940452439,0.003602956552
1.45,-0.01922299242,0.004234073667
1.46,-0.01902369842,0.004857269269
1.47,-0.01880697269,0.005472222978
1.48,-0.01857313626,0.00607862916
1.49,-0.01832250014,0.006676195162
1.5,-0.01805536475,0.007264639515
1.51,-0.01777201952,0.007843690113
1.52,-0.0174727426,0.008413082374
1.53,-0.01715780085,0.00897255741
1.54,-0.01682744982,0.0095218602
1.55,-0.0164819341,0.01006073779
1.56,-0.01612148764,0.01058893755
1.57,-0.01574633435,0.01110620542
1.58,-0.01535668878,0.01161228432
1.59,-0.014952757,0.01210691251
1.6,-0.01453473759,0.01258982214
1.61,-0.01410282273,0.01306073782
1.62,-0.01365719951,0.01351937533
1.63,-0.01319805127,0.01396544042
1.64,-0.01272555906,0.01439862776
1.65,-0.01223990327,0.01481861999
1.66,-0.01174126524,0.01522508693
1.67,-0.01122982907,0.0156176849
1.68,-0.01070578338,0.01599605625
1.69,-0.01016932321,0.01635982894
1.7,-0.009620651962,0.01670861643
1.71,-0.009059983318,0.01704201756
1.72,-0.008487543233,0.01735961676
1.73,-0.007903571928,0.01766098429
1.74,-0.007308325864,0.01794567674
1.75,-0.006702079718,0.01821323766
1.76,-0.006085128326,0.01846319836
1.77,-0.005457788583,0.01869507889
1.78,-0.004820401293,0.01890838916
1.79,-0.004173332961,0.01910263027
1.8,-0.0035169775,0.01927729591
1.81,-0.002851757855,0.01943187403
1.82,-0.002178127529,0.01956584854
1.83,-0.001496571993,0.01967870125
1.84,-0.0008076099855,0.01976991386
1.85,-0.0001117946731,0.01983897011
1.86,0.000590285326,0.01988535811
1.87,0.001298005067,0.01990857262
1.88,0.002010702562,0.01990811763
1.89,0.002727678227,0.01988350883
1.9,0.003448194502,0.01983427633
1.91,0.004171475649,0.0197599673
1.92,0.004896707736,0.01966014876
1.93,0.005623038806,0.01953441039
1.94,0.006349579242,0.01938236732
1.95,0.007075402324,0.01920366301
1.96,0.007799544991,0.01899797208
1.97,0.008521008792,0.01876500316
1.98,0.009238761049,0.01850450168
1.99,0.00995173621,0.01821625265
2,0.01065883741,0.0179000834
2.01,0.01135893821,0.01755586623
2.02,0.01205088456,0.01718352099
2.03,0.01273349694,0.01678301756
2.04,0.01340557263,0.01635437825
2.05,0.01406588828,0.01589768009
2.06,0.01471320255,0.0154130569
2.07,0.01534625892,0.0149007014
2.08,0.01596378877,0.01436086694
2.09,0.01656451441,0.01379386929
2.1,0.01714715249,0.01320008808
2.11,0.01771041733,0.01257996813
2.12,0.01825302446,0.01193402065
2.13,0.01877369433,0.01126282408
2.14,0.01927115597,0.01056702487
2.15,0.01974415086,0.00984733799
2.16,0.02019143678,0.009104547157
2.17,0.02061179179,0.008339504935
2.18,0.02100401822,0.007553132533
2.19,0.02136694666,0.006746419384
2.2,0.02169944,0.005920422487
2.21,0.02200039748,0.005076265494
2.22,0.02226875867,0.004215137563
2.23,0.02250350749,0.003338291962
2.24,0.0227036761,0.002447044425
2.25,0.02286834881,0.001542771272
2.26,0.02299666588,0.0006269072791
2.27,0.02308782719,-0.0002990566789
2.28,0.02314109588,-0.001233576227
2.29,0.02315580182,-0.002175056312
2.3,0.02313134494,-0.003121854249
2.31,0.02306719843,-0.004072282976
2.32,0.02296291179,-0.005024614529
2.33,0.02281811368,-0.005977083699
2.34,0.02263251458,-0.006927891891
2.35,0.02240590927,-0.007875211151
2.36,0.02213817909,-0.00881718837
2.37,0.02182929397,-0.009751949637
2.38,0.02147931424,-0.01067760474
2.39,0.02108839217,-0.01159225178
2.4,0.02065677333,-0.01249398194
2.41,0.02018479759,-0.01338088431
2.42,0.01967289992,-0.01425105083
2.43,0.01912161095,-0.0151025813
2.44,0.01853155715,-0.01593358844
2.45,0.01790346082,-0.01674220299
2.46,0.01723813976,-0.01752657884
2.47,0.01653650664,-0.01828489817
2.48,0.01579956814,-0.01901537658
2.49,0.01502842373,-0.0197162682
2.5,0.01422426418,-0.02038587073
2.51,0.01338836984,-0.02102253048
2.52,0.01252210855,-0.02162464724
2.53,0.01162693335,-0.0221906792
2.54,0.01070437982,-0.0227191476
2.55,0.009756063266,-0.02320864139
2.56,0.008783675556,-0.02365782167
2.57,0.00778898171,-0.024065426
2.58,0.006773816273,-0.02443027256
2.59,0.005740079424,-0.02475126409
2.6,0.004689732863,-0.02502739163
2.61,0.003624795477,-0.02525773811
2.62,0.002547338804,-0.02544148161
2.63,0.001459482292,-0.0255778985
2.64,0.0003633883914,-0.02566636623
2.65,-0.0007387425388,-0.02570636593
2.66,-0.001844677462,-0.02569748469
2.67,-0.002952156042,-0.0256394176
2.68,-0.004058896144,-0.0255319695
2.69,-0.00516259944,-0.02537505638
2.7,-0.006260957103,-0.02516870659
2.71,-0.007351655585,-0.0249130616
2.72,-0.008432382434,-0.0246083766
2.73,-0.009500832173,-0.02425502065
2.74,-0.01055471218,-0.02385347664
2.75,-0.01159174858,-0.02340434079
2.76,-0.01260969213,-0.022908322
2.77,-0.01360632408,-0.02236624071
2.78,-0.01457946191,-0.02177902758
2.79,-0.01552696517,-0.02114772177
2.8,-0.016446741,-0.02047346897
2.81,-0.01733674978,-0.01975751906
2.82,-0.01819501049,-0.01900122354
2.83,-0.01901960603,-0.01820603261
2.84,-0.01980868836,-0.01737349201
2.85,-0.02056048343,-0.01650523953
2.86,-0.02127329602,-0.01560300129
2.87,-0.02194551431,-0.0146685878
2.88,-0.02257561423,-0.01370388964
2.89,-0.02316216364,-0.01271087306
2.9,-0.02370382623,-0.01169157529
2.91,-0.02419936518,-0.01064809959
2.92,-0.02464764657,-0.00958261021
2.93,-0.02504764248,-0.008497327098
2.94,-0.02539843384,-0.007394520451
2.95,-0.025699213,-0.006276505144
2.96,-0.02594928595,-0.005145635005
2.97,-0.0261480743,-0.004004296978
2.98,-0.02629511685,-0.00285490519
2.99,-0.02639007099,-0.001699894937
3,-0.02643271361,-0.0005417165996
3.01,-0.02642294181,0.0006171704775
3.02,-0.02636077323,0.001774304144
3.03,-0.02624634608,0.002927225606
3.04,-0.02607991878,0.004073485583
3.05,-0.02586186935,0.005210650436
3.06,-0.02559269446,0.006336308257
3.07,-0.02527300807,0.007448074888
3.08,-0.02490353992,0.00854359987
3.09,-0.02448513353,0.009620572291
3.1,-0.02401874401,0.01067672652
3.11,-0.02350543552,0.0117098478
3.12,-0.02294637848,0.01271777773
3.13,-0.02234284641,0.01369841955
3.14,-0.02169621265,0.01464974323
3.15,-0.02100794661,0.01556979045
3.16,-0.02027960997,0.01645667928
3.17,-0.01951285252,0.0173086087
3.18,-0.01870940778,0.01812386288
3.19,-0.01787108849,0.01890081516
3.2,-0.01699978176,0.01963793191
3.21,-0.0160974442,0.02033377594
3.22,-0.01516609675,0.02098700981
3.23,-0.01420781939,0.02159639875
3.24,-0.01322474576,0.02216081334
3.25,-0.0122190576,0.02267923187
3.26,-0.01119297911,0.02315074241
3.27,-0.01014877122,0.02357454455
3.28,-0.00908872578,0.02394995092
3.29,-0.008015159713,0.02427638822
3.3,-0.006930409107,0.02455339815
3.31,-0.00583682331,0.02478063786
3.32,-0.004736759012,0.02495788016
3.33,-0.003632574344,0.02508501339
3.34,-0.002526623009,0.02516204101
3.35,-0.001421248465,0.02518908085
3.36,-0.0003187781669,0.02516636407
3.37,0.0007784820982,0.02509423382
3.38,0.001868253789,0.0249731436
3.39,0.002948291067,0.02480365535
3.4,0.004016386126,0.02458643723
3.41,0.005070374381,0.02432226118
3.42,0.006108139495,0.02401200016
3.43,0.007127618238,0.02365662519
3.44,0.008126805161,0.02325720213
3.45,0.009103757071,0.0228148882
3.46,0.01005659731,0.02233092835
3.47,0.01098351978,0.02180665135
3.48,0.01188279283,0.02124346578
3.49,0.01275276274,0.02064285572
3.5,0.01359185718,0.02000637643
3.51,0.01439858819,0.0193356497
3.52,0.01517155508,0.01863235925
3.53,0.01590944696,0.01789824588
3.54,0.01661104504,0.01713510256
3.55,0.01727522464,0.01634476946
3.56,0.01790095692,0.01552912883
3.57,0.01848731037,0.01469009994
3.58,0.01903345196,0.01382963384
3.59,0.01953864805,0.01294970821
3.6,0.02000226498,0.01205232217
3.61,0.02042376945,0.01113949102
3.62,0.02080272854,0.01021324113
3.63,0.02113880952,0.009275604766
3.64,0.02143177936,0.008328615002
3.65,0.02168150396,0.007374300703
3.66,0.02188794716,0.006414681579
3.67,0.02205116948,0.005451763334
3.68,0.02217132658,0.004487532921
3.69,0.02224866758,0.00352395392
3.7,0.02228353299,0.002562962044
3.71,0.02227635259,0.001606460788
3.72,0.02222764297,0.0006563172366
3.73,0.02213800497,-0.00028564197
3.74,0.02200812082,-0.001217634489
3.75,0.02183875121,-0.002137925948
3.76,0.02163073213,-0.003044833429
3.77,0.02138497156,-0.003936728744
3.78,0.02110244604,-0.004812041516
3.79,0.02078419709,-0.005669262037
3.8,0.02043132752,-0.006506943917
3.81,0.02004499765,-0.007323706503
3.82,0.01962642142,-0.00811823708
3.83,0.01917686241,-0.008889292835
3.84,0.01869762986,-0.0096357026
3.85,0.01819007456,-0.01035636835
3.86,0.01765558475,-0.01105026649
3.87,0.017095582,-0.01171644887
3.88,0.01651151706,-0.01235404363
3.89,0.01590486571,-0.01296225573
3.9,0.01527712465,-0.01354036736
3.91,0.01462980743,-0.01408773803
3.92,0.01396444032,-0.01460380446
3.93,0.01328255841,-0.01508808035
3.94,0.0125857016,-0.01554015578
3.95,0.01187541078,-0.01595969652
3.96,0.01115322402,-0.01634644315
3.97,0.01042067293,-0.01670020987
3.98,0.009679279067,-0.01702088329
3.99,0.008930550496,-0.01730842091
4,0.008175978438,-0.01756284952
4.01,0.007417034081,-0.01778426338
4.02,0.00665516552,-0.01797282232
4.03,0.00589179484,-0.01812874962
4.04,0.005128315355,-0.01825232984
4.05,0.004366089006,-0.01834390649
4.06,0.003606443913,-0.01840387961
4.07,0.002850672106,-0.01843270319
4.08,0.002100027418,-0.01843088266
4.09,0.001355723549,-0.0183989721
4.1,0.0006189323163,-0.01833757156
4.11,-0.0001092179324,-0.01824732421
4.12,-0.0008276437192,-0.01812891353
4.13,-0.001535307663,-0.01798306041
4.14,-0.00223121953,-0.01781052026
4.15,-0.002914437103,-0.01761208011
4.16,-0.003584066888,-0.01738855569
4.17,-0.004239264639,-0.01714078853
4.18,-0.004879235716,-0.01686964312
4.19,-0.005503235289,-0.01657600399
4.2,-0.006110568363,-0.01626077301
4.21,-0.006700589667,-0.01592486652
4.22,-0.007272703374,-0.01556921271
4.23,-0.007826362693,-0.01519474897
4.24,-0.008361069307,-0.01480241927
4.25,-0.008876372688,-0.01439317178
4.26,-0.009371869283,-0.01396795637
4.27,-0.009847201581,-0.01352772237
4.28,-0.01030205707,-0.01307341638
4.29,-0.01073616709,-0.01260598009
4.3,-0.0111493056,-0.0121263484
4.31,-0.01154128782,-0.01163544744
4.32,-0.01191196887,-0.01113419288
4.33,-0.01226124224,-0.01062348825
4.34,-0.01258903828,-0.01010422347
4.35,-0.01289532263,-0.009577273369
4.36,-0.01318009451,-0.00904349651
4.37,-0.01344338513,-0.008503733984
4.38,-0.01368525592,-0.007958808416
4.39,-0.01390579686,-0.007409523068
4.4,-0.01410512472,-0.006856661073
4.41,-0.01428338133,-0.006300984791
4.42,-0.0144407319,-0.005743235287
4.43,-0.01457736321,-0.005184131924
4.44,-0.01469348202,-0.004624372083
4.45,-0.01478931334,-0.004064630983
4.46,-0.01486509884,-0.003505561615
4.47,-0.01492109522,-0.002947794785
4.48,-0.01495757272,-0.002391939252
4.49,-0.01497481361,-0.001838581961
4.5,-0.01497311077,-0.001288288368
4.51,-0.01495276632,-0.0007416028503
4.52,-0.01491409034,-0.0001990491901
4.53,-0.01485739967,0.0003388688627
4.54,-0.01478301673,0.0008716669671
4.55,-0.0146912685,0.001398879506
4.56,-0.0145824855,0.001920058849
4.57,-0.01445700097,0.002434774569
4.58,-0.01431515001,0.002942612619
4.59,-0.01415726886,0.00344317448
4.6,-0.01398369435,0.003936076278
4.61,-0.01379476329,0.004420947889
4.62,-0.01359081208,0.004897432028
4.63,-0.01337217633,0.005365183337
4.64,-0.01313919061,0.005823867473
4.65,-0.01289218829,0.006273160205
4.66,-0.01263150141,0.00671274653
4.67,-0.01235746074,0.007142319805
4.68,-0.01207039577,0.007561580909
4.69,-0.01177063497,0.007970237443
4.7,-0.0114585059,0.008368002963
4.71,-0.01113433561,0.00875459626
4.72,-0.01079845095,0.00912974069
4.73,-0.01045117899,0.009493163556
4.74,-0.01009284754,0.00984459555
4.75,-0.009723785646,0.01018377026
4.76,-0.009344324198,0.01051042373
4.77,-0.008954796534,0.01082429412
4.78,-0.008555539102,0.01112512138
4.79,-0.008146892146,0.01141264709
4.8,-0.007729200416,0.01168661425
4.81,-0.00730281389,0.01194676728
4.82,-0.006868088515,0.012192852
4.83,-0.006425386947,0.01242461575
4.84,-0.005975079294,0.01264180753
4.85,-0.005517543844,0.01284417832
4.86,-0.005053167789,0.01303148131
4.87,-0.004582347925,0.01320347242
4.88,-0.004105491319,0.0133599107
4.89,-0.003623015958,0.01350055895
4.9,-0.003135351348,0.01362518431
4.91,-0.002642939078,0.01373355897
4.92,-0.002146233331,0.01382546094
4.93,-0.001645701344,0.01390067488
4.94,-0.001141823809,0.01395899299
4.95,-0.0006350952095,0.01400021592
4.96,-0.000126024094,0.01402415378
4.97,0.0003848667279,0.01403062718
4.98,0.0008970400592,0.01401946829
4.99,0.00140994427,0.01399052197
5,0.00192301333,0.01394364685
5.01,0.002435666933,0.01387871657
5.02,0.002947310693,0.01379562088
5.03,0.003457336443,0.0136942669
5.04,0.003965122614,0.01357458026
5.05,0.004470034706,0.01343650631
5.06,0.004971425849,0.01328001131
5.07,0.005468637456,0.0131050836
5.08,0.005960999967,0.01291173477
5.09,0.00644783368,0.01270000074
5.1,0.006928449671,0.0124699429
5.11,0.007402150805,0.01222164912
5.12,0.007868232827,0.01195523483
5.13,0.008325985534,0.01167084388
5.14,0.008774694036,0.01136864954
5.15,0.009213640084,0.01104885525
5.16,0.009642103477,0.01071169546
5.17,0.01005936353,0.01035743629
5.18,0.01046470063,0.009986376177
5.19,0.01085739779,0.009598846363
5.2,0.01123674239,0.009195211395
5.21,0.01160202777,0.00877586945
5.22,0.01195255508,0.008341252612
5.23,0.012287635,0.007891827021
5.24,0.01260658959,0.007428092942
5.25,0.01290875415,0.006950584716
5.26,0.01319347905,0.006459870606
5.27,0.01346013166,0.005956552537
5.28,0.0137080982,0.00544126572
5.29,0.01393678564,0.00491467817
5.3,0.01414562361,0.004377490105
5.31,0.01433406624,0.003830433235
5.32,0.01450159402,0.003274269939
5.33,0.01464771562,0.002709792325
5.34,0.01477196969,0.002137821183
5.35,0.01487392661,0.001559204828
5.36,0.01495319017,0.0009748178292
5.37,0.01500939922,0.0003855596378
5.38,0.01504222927,-0.0002076468885
5.39,0.015051394,-0.0008038570637
5.4,0.01503664671,-0.001402106047
5.41,0.01499778164,-0.002001410611
5.42,0.01493463531,-0.002600770996
5.43,0.01484708767,-0.003199172851
5.44,0.01473506318,-0.003795589252
5.45,0.01459853181,-0.004388982796
5.46,0.01443750995,-0.004978307765
5.47,0.0142520611,-0.005562512344
5.48,0.01404229662,-0.006140540909
5.49,0.01380837617,-0.006711336353
5.5,0.0135505082,-0.00727384246
5.51,0.0132689502,-0.00782700632
5.52,0.01296400887,-0.008369780763
5.53,0.01263604013,-0.008901126825
5.54,0.01228544904,-0.009420016228
5.55,0.01191268957,-0.009925433858
5.56,0.01151826422,-0.01041638026
5.57,0.0111027235,-0.0108918741
5.58,0.01066666534,-0.01135095465
5.59,0.01021073426,-0.01179268422
5.6,0.009735620523,-0.01221615055
5.61,0.009242059069,-0.01262046921
5.62,0.008730828358,-0.01300478591
5.63,0.008202749076,-0.01336827878
5.64,0.007658682724,-0.01371016059
5.65,0.007099530076,-0.01402968089
5.66,0.006526229526,-0.01432612808
5.67,0.005939755313,-0.01459883144
5.68,0.005341115643,-0.01484716297
5.69,0.004731350703,-0.01507053929
5.7,0.004111530574,-0.01526842328
5.71,0.003482753047,-0.01544032574
5.72,0.002846141352,-0.01558580684
5.73,0.002202841806,-0.01570447758
5.74,0.001554021376,-0.01579600099
5.75,0.0009008651777,-0.0158600933
5.76,0.0002445739091,-0.01589652493
5.77,-0.0004136387771,-0.01590512141
5.78,-0.001072548946,-0.01588576411
5.79,-0.001730925099,-0.01583839081
5.8,-0.002387530924,-0.01576299624
5.81,-0.003041128081,-0.01565963234
5.82,-0.003690478994,-0.01552840848
5.83,-0.004334349668,-0.01536949149
5.84,-0.004971512504,-0.01518310554
5.85,-0.00560074911,-0.0149695319
5.86,-0.006220853102,-0.01472910855
5.87,-0.006830632885,-0.0144622296
5.88,-0.007428914406,-0.01416934465
5.89,-0.008014543873,-0.01385095792
5.9,-0.00858639043,-0.01350762731
5.91,-0.009143348784,-0.01313996328
5.92,-0.00968434177,-0.01274862761
5.93,-0.01020832286,-0.01233433204
5.94,-0.01071427859,-0.01189783675
5.95,-0.01120123091,-0.01143994874
5.96,-0.01166823945,-0.01096152011
5.97,-0.01211440373,-0.01046344616
5.98,-0.01253886518,-0.009946663478
5.99,-0.01294080916,-0.009412147808
6,-0.01331946682,-0.00886091192
