"Freq [GHz]","re(S(Tx_p1,Tx_p1)) []","im(S(Tx_p1,Tx_p1)) []"
1,-0.0002602437017,0.0001678358837
1.01,-0.0002474915646,0.0001823380969
1.02,-0.0002339072086,0.000195923498
1.03,-0.0002195556797,0.0002085417723
1.04,-0.0002045052235,0.0002201472966
1.05,-0.0001888269382,0.0002306993469
1.06,-0.0001725944142,0.0002401622791
1.07,-0.0001558833626,0.0002485056838
1.08,-0.0001387712349,0.0002557045126
1.09,-0.0001213368346,0.0002617391777
1.1,-0.0001036599244,0.0002665956222
1.11,-8.58208304E-05,0.0002702653622
1.12,-6.790004444E-05,0.0002727455006
1.13,-4.997782839E-05,0.0002740387115
1.14,-3.2133821E-05,0.0002741531975
1.15,-1.444664988E-05,0.0002731026178
1.16,3.006449313E-06,0.00027090599
1.17,2.015000487E-05,0.0002675875643
1.18,3.691067006E-05,0.0002631766719
1.19,5.321757149E-05,0.0002577075488
1.2,6.900264314E-05,0.0002512191348
1.21,8.420094424E-05,0.0002437548499
1.22,9.875095959E-05,0.0002353623495
1.23,0.0001125948808,0.0002260932588
1.24,0.0001256788669,0.0002160028883
1.25,0.0001379532837,0.0002051499332
1.26,0.0001493729199,0.0001935961555
1.27,0.0001598971795,0.0001814060538
1.28,0.0001694902497,0.0001686465204
1.29,0.0001781212431,0.0001553864878
1.3,0.0001857643142,0.0001416965676
1.31,0.0001923987489,0.0001276486827
1.32,0.0001980090277,0.0001133156945
1.33,0.0002025848616,9.877102831E-05
1.34,0.0002061212006,8.408829754E-05
1.35,0.0002086182163,6.934092983E-05
1.36,0.0002100812562,5.4601796E-05
1.37,0.000210520773,3.99428444E-05
1.38,0.0002099522271,2.543474231E-05
1.39,0.0002083959647,1.11465263E-05
1.4,0.0002058770706,-2.854736864E-06
1.41,0.0002024251979,-1.650427683E-05
1.42,0.0001980743752,-2.973993228E-05
1.43,0.0001928627918,-4.250244799E-05
1.44,0.0001868325637,-5.473575485E-05
1.45,0.0001800294797,-6.638723145E-05
1.46,0.0001725027302,-7.740794602E-05
1.47,0.0001643046211,-8.775287748E-05
1.48,0.0001554902718,-9.738111469E-05
1.49,0.0001461173012,-0.0001062560327
1.5,0.0001362455033,-0.0001143454457
1.51,0.0001259365121,-0.0001216217352
1.52,0.0001152534606,-0.0001280619539
1.53,0.000104260633,-0.0001336479039
1.54,9.302311348E-05,-0.0001383661892
1.55,8.160643364E-05,-0.0001422082434
1.56,7.007621899E-05,-0.0001451703307
1.57,5.849783788E-05,-0.0001472535215
1.58,4.693605383E-05,-0.0001484636434
1.59,3.545468347E-05,-0.0001488112063
1.6,2.411626161E-05,-0.0001483113035
1.61,1.298171536E-05,-0.0001469834896
1.62,2.110048919E-06,-0.000144851634
1.63,-8.441959359E-06,-0.0001419437535
1.64,-1.862004612E-05,-0.0001382918235
1.65,-2.83727368E-05,-0.0001339315688
1.66,-3.765160283E-05,-0.0001289022355
1.67,-4.641150081E-05,-0.0001232463463
1.68,-5.461079257E-05,-0.0001170094385
1.69,-6.221154501E-05,-0.0001102397879
1.7,-6.917970874E-05,-0.0001029881195
1.71,-7.548527466E-05,-9.530730685E-05
1.72,-8.110240775E-05,-8.725206097E-05
1.73,-8.600955749E-05,-7.887861154E-05
1.74,-9.01895443E-05,-7.02443815E-05
1.75,-9.362962186E-05,-6.140765694E-05
1.76,-9.632151484E-05,-5.242725417E-05
1.77,-9.826143208E-05,-4.336218554E-05
1.78,-9.945005526E-05,-3.427132616E-05
1.79,-9.989250309E-05,-2.521308284E-05
1.8,-9.95982715E-05,-1.624506753E-05
1.81,-9.858115004E-05,-7.423776502E-06
1.82,-9.68591152E-05,1.195722634E-06
1.83,-9.445420117E-05,9.560094667E-06
1.84,-9.139234899E-05,1.761802957E-05
1.85,-8.770323475E-05,2.532052281E-05
1.86,-8.3420078E-05,3.262114178E-05
1.87,-7.857943153E-05,3.947627684E-05
1.88,-7.322095344E-05,4.584537582E-05
1.89,-6.738716308E-05,5.169116062E-05
1.9,-6.112318208E-05,5.69798249E-05
1.91,-5.447646195E-05,6.168121185E-05
1.92,-4.749649969E-05,6.576897107E-05
1.93,-4.023454313E-05,6.922069378E-05
1.94,-3.274328748E-05,7.201802583E-05
1.95,-2.507656481E-05,7.41467577E-05
1.96,-1.728902816E-05,7.559689134E-05
1.97,-9.435831998E-06,7.636268338E-05
1.98,-1.572310778E-06,7.644266449E-05
1.99,6.246342723E-06,7.583963506E-05
2,1.396539745E-05,7.456063704E-05
2.01,2.153090082E-05,7.261690225E-05
2.02,2.888999051E-05,7.002377753E-05
2.03,3.599119951E-05,6.680062706E-05
2.04,4.278475285E-05,6.297071255E-05
2.05,4.922285446E-05,5.856105184E-05
2.06,5.525996251E-05,5.360225691E-05
2.07,6.085305185E-05,4.812835199E-05
2.08,6.596186213E-05,4.217657297E-05
2.09,7.054913022E-05,3.578714903E-05
2.1,7.458080577E-05,2.900306796E-05
2.11,7.802624873E-05,2.186982615E-05
2.12,8.08584077E-05,1.443516486E-05
2.13,8.305397834E-05,6.7487941E-06
2.14,8.459354082E-05,-1.137894369E-06
2.15,8.54616757E-05,-9.172123314E-06
2.16,8.564705753E-05,-1.730003402E-05
2.17,8.51425258E-05,-2.546699631E-05
2.18,8.394513276E-05,-3.361792299E-05
2.19,8.205616788E-05,-4.169758685E-05
2.2,7.948115887E-05,-4.965093877E-05
2.21,7.622984922E-05,-5.742342491E-05
2.22,7.23161524E-05,-6.496130158E-05
2.23,6.775808292E-05,-7.221194583E-05
2.24,6.257766473E-05,-7.912416022E-05
2.25,5.680081731E-05,-8.564847015E-05
2.26,5.045722013E-05,-9.173741208E-05
2.27,4.358015627E-05,-9.734581105E-05
2.28,3.620633583E-05,-0.0001024310462
2.29,2.83757003E-05,-0.0001069533024
2.3,2.013120879E-05,-0.0001108758077
2.31,1.151860724E-05,-0.0001141650533
2.32,2.58618197E-06,-0.0001167909975
2.33,-6.615501326E-06,-0.0001187272502
2.34,-1.603387154E-05,-0.0001199512384
2.35,-2.561463779E-05,-0.0001204443506
2.36,-3.530208514E-05,-0.000120192061
2.37,-4.503937883E-05,-0.0001191840309
2.38,-5.476887547E-05,-0.0001174141882
2.39,-6.443243946E-05,-0.0001148807836
2.4,-7.3971763E-05,-0.0001115864236
2.41,-8.332868809E-05,-0.0001075380804
2.42,-9.244552857E-05,-0.0001027470781
2.43,-0.0001012653908,-9.722905476E-05
2.44,-0.0001097324909,-9.100390219E-05
2.45,-0.0001177924676,-8.409568188E-05
2.46,-0.0001253926876,-7.653251855E-05
2.47,-0.0001324825438,-6.834647156E-05
2.48,-0.0001390137431,-5.95733848E-05
2.49,-0.000144940583,-5.025271579E-05
2.5,-0.0001502202153,-4.042734496E-05
2.51,-0.0001548128961,-3.014336596E-05
2.52,-0.0001586822198,-1.944985809E-05
2.53,-0.0001617953362,-8.398642119E-06
2.54,-0.0001641231501,2.955979473E-06
2.55,-0.0001656405016,1.455749632E-05
2.56,-0.0001663263262,2.634747673E-05
2.57,-0.0001661637941,3.826586556E-05
2.58,-0.0001651404281,5.025129176E-05
2.59,-0.000163248199,6.224138414E-05
2.6,-0.0001604835974,7.417309363E-05
2.61,-0.0001568476835,8.598302046E-05
2.62,-0.0001523461123,9.760774449E-05
2.63,-0.0001469891351,0.0001089841571
2.64,-0.0001407915774,0.0001200497927
2.65,-0.000133772793,0.0001307431587
2.66,-0.0001259565941,0.0001410040613
2.67,-0.0001173711584,0.0001507739262
2.68,-0.0001080489128,0.0001599961126
2.69,-9.802639572E-05,0.0001686162182
2.7,-8.734409647E-05,0.0001765823742
2.71,-7.604627451E-05,0.0001838455283
2.72,-6.418075831E-05,0.000190359715
2.73,-5.179872512E-05,0.0001960823106
2.74,-3.895446281E-05,0.0002009742731
2.75,-2.570511476E-05,0.000205000364
2.76,-1.211040918E-05,0.0002081293521
2.77,1.767625822E-06,0.0002103341981
2.78,1.586496005E-05,0.0002115922182
2.79,3.011587039E-05,0.0002118852268
2.8,4.445325984E-05,0.000211199657
2.81,5.880898478E-05,0.0002095266581
2.82,7.311418882E-05,0.00020686217
2.83,8.729964175E-05,0.000203206974
2.84,0.0001012960816,0.0001985667189
2.85,0.0001150345582,0.000192951924
2.86,0.0001284467769,0.0001863779566
2.87,0.0001414654402,0.0001788649857
2.88,0.0001540245853,0.0001704379122
2.89,0.0001660599174,0.0001611262741
2.9,0.0001775091352,0.0001509641295
2.91,0.0001883122481,0.000139989916
2.92,0.0001984118828,0.0001282462884
2.93,0.0002077535791,0.0001157799345
2.94,0.0002162860712,0.0001026413708
2.95,0.0002239615555,8.88847181E-05
2.96,0.0002307359415,7.456745934E-05
2.97,0.0002365690857,5.975017913E-05
2.98,0.0002414250077,4.449628786E-05
2.99,0.000245272085,2.887173075E-05
3,0.0002480832294,1.294468356E-05
3.01,0.0002498360399,-3.214763594E-06
3.02,0.000250512935,-1.953493288E-05
3.03,0.0002501012605,-3.594289408E-05
3.04,0.0002485933749,-5.236480721E-05
3.05,0.0002459867106,-6.872627055E-05
3.06,0.0002422838098,-8.495267259E-05
3.07,0.0002374923373,-0.000100969546
3.08,0.0002316250677,-0.000116702922
3.09,0.000224699848,-0.0001320796835
3.1,0.000216739536,-0.000147027915
3.11,0.0002077719142,-0.000161477248
3.12,0.0001978295801,-0.0001753591996
3.13,0.0001869498131,-0.0001886075031
3.14,0.0001751744182,-0.0002011584296
3.15,0.0001625495483,-0.0002129510969
3.16,0.0001491255051,-0.000223927767
3.17,0.0001349565192,-0.0002340341288
3.18,0.0001201005121,-0.0002432195649
3.19,0.0001046188387,-0.000251437402
3.2,8.857601436E-05,-0.000258645143
3.21,7.203942503E-05,-0.0002648046795
3.22,5.507902412E-05,-0.0002698824848
3.23,3.776701608E-05,-0.0002738497847
3.24,2.017752892E-05,-0.0002766827065
3.25,2.386276882E-06,-0.000278362406
3.26,-1.552978492E-05,-0.0002788751697
3.27,-3.349281243E-05,-0.0002782124939
3.28,-5.142442929E-05,-0.0002763711395
3.29,-6.924608666E-05,-0.0002733531618
3.3,-8.687942445E-05,-0.0002691659153
3.31,-0.0001042466322,-0.0002638220346
3.32,-0.0001212708078,-0.0002573393899
3.33,-0.0001378763131,-0.0002497410176
3.34,-0.0001539891229,-0.0002410550277
3.35,-0.0001695371682,-0.0002313144865
3.36,-0.00018445067,-0.0002205572765
3.37,-0.0001986624628,-0.0002088259338
3.38,-0.0002121083067,-0.000196167463
3.39,-0.0002247271859,-0.0001826331322
3.4,-0.0002364615926,-0.000168278247
3.41,-0.0002472577948,-0.0001531619065
3.42,-0.0002570660872,-0.0001373467405
3.43,-0.000265841023,-0.0001208986312
3.44,-0.0002735416267,-0.0001038864188
3.45,-0.0002801315861,-8.638159386E-05
3.46,-0.0002855794229,-6.845797713E-05
3.47,-0.0002898586411,-5.019138816E-05
3.48,-0.0002929478524,-3.165930501E-05
3.49,-0.0002948308785,-1.294051595E-05
3.5,-0.0002954968285,5.885234811E-06
3.51,-0.0002949401535,2.473760591E-05
3.52,-0.0002931606747,4.353602036E-05
3.53,-0.0002901635889,6.220002815E-05
3.54,-0.0002859594479,8.064966829E-05
3.55,-0.0002805641136,9.880582843E-05
3.56,-0.0002739986894,0.0001165906007
3.57,-0.0002662894269,0.0001339276316
3.58,-0.0002574676096,0.0001507424652
3.59,-0.0002475694131,0.0001669628769
3.6,-0.0002366357437,0.000182519197
3.61,-0.000224712055,0.000197344623
3.62,-0.0002118481437,0.0002113755173
3.63,-0.0001980979266,0.0002245516919
3.64,-0.000183519198,0.0002368166755
3.65,-0.0001681733705,0.0002481179648
3.66,-0.0001521251986,0.0002584072565
3.67,-0.0001354424888,0.0002676406603
3.68,-0.0001181957944,0.0002757788921
3.69,-0.0001004580998,0.000282787445
3.7,-8.230449334E-05,0.0002886367392
3.71,-6.381183082E-05,0.0002933022488
3.72,-4.505839212E-05,0.0002967646061
3.73,-2.612353152E-05,0.0002990096817
3.74,-7.087323677E-06,0.000300028641
3.75,1.196979292E-05,0.0002998179766
3.76,3.096737363E-05,0.0002983795165
3.77,4.982532469E-05,0.0002957204083
3.78,6.846425796E-05,0.0002918530787
3.79,8.680584179E-05,0.0002867951703
3.8,0.0001047731464,0.0002805694536
3.81,0.0001222909822,0.0002732037173
3.82,0.0001392862295,0.0002647306351
3.83,0.000155688158,0.0002551876115
3.84,0.0001714287349,0.000244616606
3.85,0.00018644292,0.0002330639378
3.86,0.0002006689466,0.0002205800704
3.87,0.0002140485868,0.0002072193791
3.88,0.0002265274002,0.0001930399008
3.89,0.0002380549648,0.0001781030679
3.9,0.0002485850893,0.0001624734282
3.91,0.0002580760054,0.0001462183509
3.92,0.0002664905396,0.0001294077216
3.93,0.0002737962645,0.0001121136258
3.94,0.0002799656269,9.441002424E-05
3.95,0.0002849760549,7.637242098E-05
3.96,0.0002888100413,5.807752485E-05
3.97,0.0002914552043,3.960290727E-05
3.98,0.0002929043248,2.10266571E-05
3.99,0.0002931553604,2.42703444E-06
4,0.000292211436,-1.611787514E-05
4.01,0.0002900808111,-3.453050428E-05
4.02,0.0002867768243,-5.273414386E-05
4.03,0.0002823178149,-7.065327794E-05
4.04,0.0002767270226,-8.821391195E-05
4.05,0.0002700324651,-0.0001053438928
4.06,0.0002622667957,-0.0001219732191
4.07,0.0002534671388,-0.0001380343412
4.08,0.0002436749084,-0.0001534624477
4.09,0.0002329356056,-0.0001681957396
4.1,0.0002212986008,-0.000182175689
4.11,0.0002088168976,-0.0001953472821
4.12,0.000195546883,-0.0002076592452
4.13,0.0001815480623,-0.0002190642532
4.14,0.000166882782,-0.0002295191186
4.15,0.0001516159409,-0.000238984962
4.16,0.0001358146912,-0.0002474273612
4.17,0.0001195481311,-0.0002548164806
4.18,0.0001028869898,-0.0002611271786
4.19,8.590330694E-05,-0.0002663390933
4.2,6.867010829E-05,-0.000270436707
4.21,5.126107788E-05,-0.0002734093876
4.22,3.375022955E-05,-0.0002752514081
4.23,1.621157852E-05,-0.0002759619445
4.24,-1.281185124E-06,-0.0002755450504
4.25,-1.86550197E-05,-0.000274009611
4.26,-3.583785037E-05,-0.0002713692748
4.27,-5.275888145E-05,-0.0002676423646
4.28,-6.934890111E-05,-0.0002628517676
4.29,-8.554057703E-05,-0.0002570248062
4.3,-0.0001012687419,-0.0002501930885
4.31,-0.0001164706675,-0.0002423923417
4.32,-0.0001310863256,-0.000233662227
4.33,-0.0001450586358,-0.0002240461379
4.34,-0.0001583336976,-0.0002135909838
4.35,-0.0001708610076,-0.0002023469579
4.36,-0.0001825936587,-0.0001903672928
4.37,-0.0001934885231,-0.0001777080036
4.38,-0.0002035064159,-0.0001644276197
4.39,-0.0002126122401,-0.0001505869079
4.4,-0.0002207751124,-0.0001362485867
4.41,-0.0002279684687,-0.0001214770339
4.42,-0.0002341701493,-0.0001063379885
4.43,-0.0002393624639,-9.089824938E-05
4.44,-0.0002435322351,-7.522537021E-05
4.45,-0.0002466708223,-5.938735405E-05
4.46,-0.0002487741236,-4.345234775E-05
4.47,-0.000249842558,-2.74883381E-05
4.48,-0.0002498810269,-1.156285102E-05
4.49,-0.0002488988551,4.257344896E-06
4.5,-0.000246909713,1.990652908E-05
4.51,-0.0002439315192,3.532031264E-05
4.52,-0.0002399863241,5.043591375E-05
4.53,-0.0002351001766,6.519242344E-05
4.54,-0.000229302973,7.95310608E-05
4.55,-0.0002226282895,9.339541634E-05
4.56,-0.0002151131999,0.0001067316825
4.57,-0.0002067980785,0.0001194888705
4.58,-0.0001977263893,0.0001316190124
4.59,-0.0001879444638,0.0001430773474
4.6,-0.0001775012663,0.0001538224925
4.61,-0.0001664481508,0.0001638165955
4.62,-0.0001548386074,0.0001730254712
4.63,-0.0001427280026,0.0001814187189
4.64,-0.0001301733126,0.000188969822
4.65,-0.0001172328516,0.0001956562288
4.66,-0.0001039659971,0.0002014594142
4.67,-9.043291164E-05,0.0002063649226
4.68,-7.669426516E-05,0.0002103623915
4.69,-6.281095618E-05,0.0002134455559
4.7,-4.884383537E-05,0.0002156122345
4.71,-3.485343181E-05,0.0002168642962
4.72,-2.089968333E-05,0.0002172076093
4.73,-7.041672272E-06,0.0002166519719
4.74,6.662632204E-06,0.0002152110256
4.75,2.01566241E-05,0.0002129021514
4.76,3.338530178E-05,0.0002097463505
4.77,4.629549924E-05,0.0002057681085
4.78,5.883610656E-05,0.0002009952452
4.79,7.095827855E-05,0.0001954587512
4.8,8.261563071E-05,0.0001891926103
4.81,9.376442165E-05,0.0001822336107
4.82,0.0001043637214,0.0001746211448
4.83,0.0001143755649,0.0001663969993
4.84,0.0001237650895,0.0001576051361
4.85,0.0001325006576,0.0001482914657
4.86,0.0001405539617,0.0001385036139
4.87,0.0001479001134,0.0001282906828
4.88,0.0001545177155,0.0001177030082
4.89,0.0001603889165,0.0001067919133
4.9,0.0001654994483,9.56094607E-05
4.91,0.0001698386465,8.420820422E-05
4.92,0.0001733994534,7.264094062E-05
4.93,0.0001761784042,6.096046348E-05
4.94,0.0001781755969,4.921931973E-05
4.95,0.0001793946443,3.746957039E-05
4.96,0.0001798426121,2.576255625E-05
4.97,0.0001795299396,1.41486699E-05
4.98,0.0001784703464,2.677134819E-06
4.99,0.0001766807242,-8.604207163E-06
5,0.0001741810157,-1.964909941E-05
5.01,0.0001709940793,-3.041306395E-05
5.02,0.0001671455426,-4.08535841E-05
5.03,0.0001626636442,-5.093027551E-05
5.04,0.000157579065,-6.060504493E-05
5.05,0.00015192475,-6.984223602E-05
5.06,0.0001457357217,-7.860876172E-05
5.07,0.0001390488858,-8.687422257E-05
5.08,0.0001319028303,-9.461101075E-05
5.09,0.0001243376195,-0.0001017943993
5.1,0.0001163945831,-0.0001084026164
5.11,0.0001081161024,-0.0001144169045
5.12,9.954539405E-05,-0.0001198215639
5.13,9.072629238E-05,-0.0001246039817
5.14,8.170303235E-05,-0.0001287546443
5.15,7.252003276E-05,-0.0001322671363
5.16,6.322168188E-05,-0.0001351381225
5.17,5.3852126E-05,-0.0001373673172
5.18,4.445506206E-05,-0.0001389574375
5.19,3.507353534E-05,-0.0001399141437
5.2,2.574974304E-05,-0.0001402459653
5.21,1.65248448E-05,-0.0001399642149
5.22,7.438780888E-06,-0.0001390828888
5.23,-1.469901121E-06,-0.0001376185568
5.24,-1.016421034E-05,-0.00013559024
5.25,-1.860886662E-05,-0.0001330192788
5.26,-2.677044405E-05,-0.0001299291913
5.27,-3.461750316E-05,-0.0001263455228
5.28,-4.212071149E-05,-0.0001222956878
5.29,-4.925295199E-05,-0.0001178088044
5.3,-5.598941886E-05,-0.0001129155233
5.31,-6.230770047E-05,-0.0001076478511
5.32,-6.818784928E-05,-0.0001020389701
5.33,-7.361243828E-05,-9.612305383E-05
5.34,-7.856660417E-05,-8.993508168E-05
5.35,-8.303807695E-05,-8.351065091E-05
5.36,-8.701719613E-05,-7.68857892E-05
5.37,-9.049691356E-05,-7.009676747E-05
5.38,-9.347278306E-05,-6.317991431E-05
5.39,-9.594293708E-05,-5.617143285E-05
5.4,-9.790805065E-05,-4.910722111E-05
5.41,-9.9371293E-05,-4.202269643E-05
5.42,-0.0001003382673,-3.495262511E-05
5.43,-0.0001008169386,-2.793095785E-05
5.44,-0.0001008175516,-2.099067185E-05
5.45,-0.0001003525369,-1.416362028E-05
5.46,-9.943640817E-05,-7.480389791E-06
5.47,-9.808565051E-05,-9.701666462E-07
5.48,-9.631859937E-05,5.339387854E-06
5.49,-9.415531257E-05,1.142225223E-05
5.5,-9.161743511E-05,1.725414944E-05
5.51,-8.872805775E-05,2.281264087E-05
5.52,-8.551157035E-05,2.807720937E-05
5.53,-8.199351067E-05,3.302933098E-05
5.54,-7.820040939E-05,3.765253523E-05
5.55,-7.415963247E-05,4.193245369E-05
5.56,-6.989922137E-05,4.585685687E-05
5.57,-6.544773229E-05,4.941567929E-05
5.58,-6.083407506E-05,5.260103271E-05
5.59,-5.608735265E-05,5.540720775E-05
5.6,-5.123670213E-05,5.783066393E-05
5.61,-4.63111378E-05,5.987000836E-05
5.62,-4.13393974E-05,6.152596333E-05
5.63,-3.63497921E-05,6.280132314E-05
5.64,-3.137006103E-05,6.370090049E-05
5.65,-2.642723108E-05,6.42314629E-05
5.66,-2.154748263E-05,6.440165954E-05
5.67,-1.675602182E-05,6.422193913E-05
5.68,-1.207696E-05,6.370445926E-05
5.69,-7.533200866E-06,6.286298783E-05
5.7,-3.146335886E-06,6.171279732E-05
5.71,1.063451701E-06,6.027055231E-05
5.72,5.07747374E-06,5.855419119E-05
5.73,8.878614612E-06,5.658280255E-05
5.74,1.245139894E-05,5.43764971E-05
5.75,1.578204935E-05,5.195627589E-05
5.76,1.885853399E-05,4.934389545E-05
5.77,2.167060388E-05,4.656173072E-05
5.78,2.420981975E-05,4.36326365E-05
5.79,2.646956854E-05,4.057980821E-05
5.8,2.844506955E-05,3.742664269E-05
5.81,3.013337028E-05,3.419659976E-05
5.82,3.153333212E-05,3.091306543E-05
5.83,3.264560616E-05,2.75992173E-05
5.84,3.347259922E-05,2.427789295E-05
5.85,3.401843054E-05,2.097146202E-05
5.86,3.428887937E-05,1.770170261E-05
5.87,3.429132391E-05,1.44896826E-05
5.88,3.403467199E-05,1.135564653E-05
5.89,3.352928396E-05,8.318908604E-06
5.9,3.278688836E-05,5.397752261E-06
5.91,3.182049082E-05,2.609336913E-06
5.92,3.064427678E-05,-3.038780771E-08
5.93,2.927350872E-05,-2.506759859E-06
5.94,2.772441841E-05,-4.806474307E-06
5.95,2.601409485E-05,-6.917644266E-06
5.96,2.416036867E-05,-8.829852999E-06
5.97,2.218169346E-05,-1.053419699E-05
5.98,2.009702495E-05,-1.20233198E-05
5.99,1.79256985E-05,-1.329143668E-05
6,1.568730584E-05,-1.433434984E-05
