"Freq [GHz]","re(S(Tx_p1,Tx_p1)) []","im(S(Tx_p1,Tx_p1)) []"
1,-7.157653912E-05,0.0001062674153
1.01,-6.421398928E-05,0.000105487719
1.02,-5.7304401E-05,0.0001042180044
1.03,-5.0880096E-05,0.0001025187944
1.04,-4.496690293E-05,0.0001004527688
1.05,-3.95840142E-05,9.808411866E-05
1.06,-3.474390476E-05,9.54778921E-05
1.07,-3.045231336E-05,9.269933729E-05
1.08,-2.670828598E-05,8.981324832E-05
1.09,-2.350428088E-05,8.688331979E-05
1.1,-2.082633397E-05,8.397151566E-05
1.11,-1.865428288E-05,8.113745813E-05
1.12,-1.69620474E-05,7.84378416E-05
1.13,-1.571796367E-05,7.5925877E-05
1.14,-1.488516904E-05,7.365077125E-05
1.15,-1.442203385E-05,7.165724628E-05
1.16,-1.428263648E-05,6.998510185E-05
1.17,-1.441727699E-05,6.866882591E-05
1.18,-1.47730251E-05,6.773725577E-05
1.19,-1.529429731E-05,6.72132931E-05
1.2,-1.592345819E-05,6.711367507E-05
1.21,-1.660144042E-05,6.744880368E-05
1.22,-1.726837817E-05,6.822263469E-05
1.23,-1.786424808E-05,6.943262711E-05
1.24,-1.832951243E-05,7.106975361E-05
1.25,-1.860575857E-05,7.31185719E-05
1.26,-1.863632924E-05,7.555735635E-05
1.27,-1.836693804E-05,7.835828877E-05
1.28,-1.774626482E-05,8.148770675E-05
1.29,-1.672652556E-05,8.490640748E-05
1.3,-1.526401196E-05,8.857000441E-05
1.31,-1.331959575E-05,9.242933386E-05
1.32,-1.085919337E-05,9.643090799E-05
1.33,-7.854186929E-06,0.0001005174105
1.34,-4.281797545E-06,0.0001046282306
1.35,-1.254078004E-07,0.0001087000315
1.36,4.625169691E-06,0.0001126673468
1.37,9.973480085E-06,0.0001164632027
1.38,1.591627253E-05,0.000120019758
1.39,2.244340638E-05,0.0001232689573
1.4,2.953781838E-05,0.0001261431934
1.41,3.717555156E-05,0.000128575971
1.42,4.532584567E-05,0.0001305025677
1.43,5.395128885E-05,0.0001318606855
1.44,6.300802955E-05,0.0001325910888
1.45,7.244604724E-05,0.0001326382218
1.46,8.220947987E-05,0.0001319508012
1.47,9.223700595E-05,0.0001304823782
1.48,0.000102462278,0.0001281918658
1.49,0.0001128144046,0.0001250440263
1.5,0.0001232184767,0.0001210099145
1.51,0.0001335961348,0.0001160672737
1.52,0.0001438661721,0.0001102008794
1.53,0.0001539451696,0.0001034028284
1.54,0.0001637481569,9.567277172E-05
1.55,0.0001731892954,8.701808584E-05
1.56,0.0001821825765,7.745398419E-05
1.57,0.0001906425308,6.700356496E-05
1.58,0.0001984849422,5.569779535E-05
1.59,0.0002056275607,4.3575432E-05
1.6,0.0002119908091,3.068287737E-05
1.61,0.0002174984771,1.707397309E-05
1.62,0.0002220783982,2.809731206E-06
1.63,0.0002256631025,-1.204199483E-05
1.64,0.0002281904419,-2.740689752E-05
1.65,0.0002296041804,-4.320465816E-05
1.66,0.0002298545475,-5.934944242E-05
1.67,0.0002288987467,-7.575044492E-05
1.68,0.000226701418,-9.231247923E-05
1.69,0.0002232350482,-0.0001089366088
1.7,0.000218480327,-0.0001255208146
1.71,0.0002124264447,-0.0001419606941
1.72,0.0002050713292,-0.0001581501876
1.73,0.0001964218202,-0.0001739823247
1.74,0.0001864937788,-0.0001893499875
1.75,0.0001753121308,-0.0002041466836
1.76,0.0001629108435,-0.0002182673231
1.77,0.000149332835,-0.0002316089946
1.78,0.0001346298167,-0.000244071734
1.79,0.0001188620699,-0.0002555592799
1.8,0.0001020981571,-0.0002659798104
1.81,8.441456992E-05,-0.0002752466555
1.82,6.589531601E-05,-0.0002832789804
1.83,4.663144761E-05,-0.0002900024325
1.84,2.672053438E-05,-0.00029534975
1.85,6.266084512E-06,-0.0002992613244
1.86,-1.462308223E-05,-0.0003016857153
1.87,-3.583350523E-05,-0.0003025801109
1.88,-5.724779293E-05,-0.0003019107324
1.89,-7.874536689E-05,-0.0002996531785
1.9,-0.0001002032351,-0.0002957927067
1.91,-0.0001214967887,-0.0002903244491
1.92,-0.0001425006172,-0.0002832535622
1.93,-0.0001630893357,-0.0002745953064
1.94,-0.0001831384186,-0.0002643750579
1.95,-0.0002025250346,-0.0002526282489
1.96,-0.000221128875,-0.0002394002391
1.97,-0.0002388329724,-0.0002247461173
1.98,-0.0002555245012,-0.0002087304353
1.99,-0.0002710955557,-0.0001914268744
2,-0.0002854438997,-0.0001729178479
2.01,-0.0002984736827,-0.0001532940413
2.02,-0.0003100961165,-0.0001326538936
2.03,-0.0003202301085,-0.0001111030224
2.04,-0.0003288028465,-8.875359754E-05
2.05,-0.0003357503307,-6.572366705E-05
2.06,-0.0003410178495,-4.21364395E-05
2.07,-0.0003445603945,-1.811952843E-05
2.08,-0.0003463430131,6.195836673E-06
2.09,-0.0003463410954,3.067562717E-05
2.1,-0.0003445405927,5.518385433E-05
2.11,-0.0003409381663,7.958342498E-05
2.12,-0.0003355412669,0.0001037370078
2.13,-0.0003283681402,0.0001275079043
2.14,-0.0003194477632,0.0001507609189
2.15,-0.0003088197076,0.0001733632209
2.16,-0.0002965339329,0.0001951851948
2.17,-0.0002826505111,0.0002161012699
2.18,-0.0002672392826,0.0002359907266
2.19,-0.0002503794482,0.0002547384719
2.2,-0.0002321590978,0.0002722357792
2.21,-0.00021267468,0.0002883809877
2.22,-0.0001920304163,0.0003030801566
2.23,-0.0001703376635,0.0003162476688
2.24,-0.0001477142279,0.0003278067813
2.25,-0.0001242836377,0.0003376901174
2.26,-0.0001001743775,0.0003458400979
2.27,-7.55190893E-05,0.0003522093082
2.28,-5.045374734E-05,0.0003567607996
2.29,-2.51168108E-05,0.0003594683209
2.3,3.516390687E-07,0.0003603164817
2.31,2.581077192E-05,0.000359300843
2.32,5.111988516E-05,0.0003564279377
2.33,7.613927901E-05,0.0003517152189
2.34,0.0001007311237,0.000345190937
2.35,0.0001247603128,0.0003368939473
2.36,0.0001480952977,0.0003268734483
2.37,0.0001706088964,0.0003151886538
2.38,0.0001921790722,0.0003019084002
2.39,0.000212689677,0.0002871106929
2.4,0.0002320311536,0.0002708821935
2.41,0.0002501011938,0.0002533176532
2.42,0.0002668053455,0.000234519295
2.43,0.0002820575683,0.0002145961504
2.44,0.0002957807307,0.000193663353
2.45,0.0003079070485,0.0001718413972
2.46,0.0003183784588,0.0001492553637
2.47,0.000327146931,0.0001260341202
2.48,0.0003341747093,0.0001023095003
2.49,0.0003394344879,7.821546828E-05
2.5,0.0003429095168,5.388727402E-05
2.51,0.0003445936385,2.946060464E-05
2.52,0.0003444912553,5.070738396E-06
2.53,0.000342617228,-1.914829349E-05
2.54,0.0003389967065,-4.306453143E-05
2.55,0.0003336648957,-6.654889289E-05
2.56,0.0003266667556,-8.947595335E-05
2.57,0.0003180566414,-0.0001117246977
2.58,0.0003078978838,-0.0001331792369
2.59,0.000296262314,-0.000153729486
2.6,0.0002832297375,-0.0001732717976
2.61,0.000268887359,-0.0001917095491
2.62,0.0002533291646,-0.0002089536776
2.63,0.0002366552638,-0.000224923161
2.64,0.0002189711987,-0.0002395454419
2.65,0.0002003872223,-0.0002527567907
2.66,0.0001810175541,-0.0002645026085
2.67,0.0001609796161,-0.0002747376655
2.68,0.0001403932556,-0.0002834262753
2.69,0.00011937996,-0.0002905424043
2.7,9.806207003E-05,-0.000296069716
2.71,7.656199432E-05,-0.0003000015502
2.72,5.500143408E-05,-0.0003023408375
2.73,3.350062051E-05,-0.0003030999525
2.74,1.217757134E-05,-0.0003023005038
2.75,-8.852628733E-06,-0.0002999730659
2.76,-2.94785192E-05,-0.0002961568542
2.77,-4.959292164E-05,-0.0002908993462
2.78,-6.90935604E-05,-0.0002842558514
2.79,-8.788364193E-05,-0.0002762890349
2.8,-0.0001058723893,-0.0002670683975
2.81,-0.0001229755287,-0.0002566697165
2.82,-0.0001391157248,-0.0002451744519
2.83,-0.0001542229627,-0.0002326691228
2.84,-0.0001682348746,-0.0002192446578
2.85,-0.0001810970091,-0.0002049957256
2.86,-0.0001927630424,-0.0001900200498
2.87,-0.00020319493,-0.0001744177133
2.88,-0.0002123629992,-0.0001582904577
2.89,-0.0002202459829,-0.0001417409819
2.9,-0.0002268309933,-0.0001248722464
2.91,-0.0002321134387,-0.0001077867865
2.92,-0.000236096884,-9.058604037E-05
2.93,-0.0002387928559,-7.336969646E-05
2.94,-0.0002402205961,-5.623506439E-05
2.95,-0.0002404067644,-3.927647376E-05
2.96,-0.0002393850946,-2.258470488E-05
2.97,-0.0002371960069,-6.24645502E-06
2.98,-0.0002338861794,9.656156362E-06
2.99,-0.0002295080835,2.504604038E-05
3,-0.0002241194858,3.985154678E-05
3.01,-0.0002177829227,5.400682488E-05
3.02,-0.0002105651493,6.745213557E-05
3.03,-0.0002025365701,8.013411267E-05
3.04,-0.0001937706535,9.200597255E-05
3.05,-0.0001843433362,0.0001030276712
3.06,-0.0001743324216,0.0001131660087
3.07,-0.000163816977,0.0001223946802
3.08,-0.0001528767343,0.0001306942757
3.09,-0.0001415914983,0.000138052227
3.1,-0.000130040567,0.0001444627057
3.11,-0.0001183021689,0.0001499264716
3.12,-0.0001064529209,0.0001544506748
3.13,-9.456730925E-05,0.0001580486137
3.14,-8.271720051E-05,0.0001607394507
3.15,-7.097138204E-05,0.0001625478897
3.16,-5.939513776E-05,0.000163503817
3.17,-4.804986085E-05,0.0001636419115
3.18,-3.699270586E-05,0.0001630012244
3.19,-2.627628254E-05,0.0001616247358
3.2,-1.594839297E-05,0.0001595588891
3.21,-6.0518134E-06,0.0001568531094
3.22,3.375878283E-06,0.0001535593093
3.23,1.230242874E-05,0.0001497313854
3.24,2.070098888E-05,0.0001454247114
3.25,2.855014718E-05,0.0001406956309
3.26,3.583391712E-05,0.0001356009542
3.27,4.254167967E-05,0.0001301974628
3.28,4.866808197E-05,0.0001245414271
3.29,5.421289387E-05,0.0001186881385
3.3,5.918082411E-05,0.0001126914624
3.31,6.358129848E-05,0.0001066034124
3.32,6.742820226E-05,0.0001004737526
3.33,7.073958985E-05,9.434962671E-05
3.34,7.353736444E-05,8.827522067E-05
3.35,7.584693099E-05,8.229145791E-05
3.36,7.769682589E-05,7.64357314E-05
3.37,7.911832672E-05,7.074167325E-05
3.38,8.014504592E-05,6.523896354E-05
3.39,8.081251197E-05,5.995317937E-05
3.4,8.115774199E-05,5.490568495E-05
3.41,8.121880953E-05,5.011356291E-05
3.42,8.103441135E-05,4.558958708E-05
3.43,8.064343717E-05,4.134223623E-05
3.44,8.008454587E-05,3.737574814E-05
3.45,7.939575196E-05,3.369021304E-05
3.46,7.861402585E-05,3.02817051E-05
3.47,7.777491117E-05,2.714245025E-05
3.48,7.691216241E-05,2.426102845E-05
3.49,7.605740594E-05,2.162260836E-05
3.5,7.523982703E-05,1.920921161E-05
3.51,7.448588551E-05,1.70000044E-05
3.52,7.381906231E-05,1.49716132E-05
3.53,7.325963882E-05,1.309846171E-05
3.54,7.282451079E-05,1.135312565E-05
3.55,7.252703816E-05,9.706702261E-06
3.56,7.23769318E-05,8.129190807E-06
3.57,7.238017806E-05,6.589880742E-06
3.58,7.253900133E-05,5.05774388E-06
3.59,7.285186487E-05,3.501827015E-06
3.6,7.331350961E-05,1.891641434E-06
3.61,7.391503029E-05,1.975457951E-07
3.62,7.464398819E-05,-1.608881048E-06
3.63,7.548455914E-05,-3.554480624E-06
3.64,7.641771537E-05,-5.664172012E-06
3.65,7.74214395E-05,-7.960628651E-06
3.66,7.847096849E-05,-1.046397766E-05
3.67,7.953906545E-05,-1.319152433E-05
3.68,8.059631667E-05,-1.615750416E-05
3.69,8.16114512E-05,-1.937286481E-05
3.7,8.255168009E-05,-2.284507962E-05
3.71,8.338305229E-05,-2.657799464E-05
3.72,8.40708239E-05,-3.057171037E-05
3.73,8.457983761E-05,-3.482249928E-05
3.74,8.487490884E-05,-3.932276001E-05
3.75,8.492121534E-05,-4.406100855E-05
3.76,8.468468652E-05,-4.902190662E-05
3.77,8.413238942E-05,-5.418632714E-05
3.78,8.323290762E-05,-5.953145617E-05
3.79,8.195670994E-05,-6.503093066E-05
3.8,8.027650555E-05,-7.065501087E-05
3.81,7.816758246E-05,-7.63707861E-05
3.82,7.560812631E-05,-8.214241213E-05
3.83,7.257951664E-05,-8.793137829E-05
3.84,6.9066598E-05,-9.369680232E-05
3.85,6.505792348E-05,-9.939575024E-05
3.86,6.054596837E-05,-0.000104983579
3.87,5.552731202E-05,-0.0001104142989
3.88,5.000278625E-05,-0.0001156409528
3.89,4.397758865E-05,-0.0001206160095
3.9,3.746135987E-05,-0.0001252917672
3.91,3.046822388E-05,-0.0001296207645
3.92,2.301679059E-05,-0.0001335561956
3.93,1.513012065E-05,-0.0001370523257
3.94,6.835652498E-06,-0.0001400649035
3.95,-1.834908205E-06,-0.0001425515678
3.96,-1.084573589E-05,-0.0001444722442
3.97,-2.015706838E-05,-0.000145789529
3.98,-2.972542484E-05,-0.0001464690571
3.99,-3.950385697E-05,-0.0001464798507
4,-4.944223168E-05,-0.0001457946459
4.01,-5.948754311E-05,-0.0001443901946
4.02,-6.958425192E-05,-0.0001422475391
4.03,-7.967464932E-05,-0.0001393522564
4.04,-8.969924303E-05,-0.0001356946717
4.05,-9.959716262E-05,-0.0001312700371
4.06,-0.000109306581,-0.0001260786752
4.07,-0.0001187651488,-0.0001201260864
4.08,-0.0001279104392,-0.0001134230175
4.09,-0.0001366803983,-0.0001059854924
4.1,-0.0001450137995,-9.783480312E-05
4.11,-0.0001528506973,-8.89974616E-05
4.12,-0.000160132877,-7.950511222E-05
4.13,-0.0001668042981,-6.939440528E-05
4.14,-0.0001728115262,-5.870683228E-05
4.15,-0.0001781041519,-4.74885239E-05
4.16,-0.0001826351926,-3.579001191E-05
4.17,-0.0001863614736,-2.366595656E-05
4.18,-0.0001892439872,-1.117484127E-05
4.19,-0.0001912482251,1.621363534E-06
4.2,-0.0001923444831,1.465756489E-05
4.21,-0.0001925081344,2.786593787E-05
4.22,-0.0001917198706,4.11763394E-05
4.23,-0.0001899659074,5.45167426E-05
4.24,-0.0001872381537,6.781368852E-05
4.25,-0.0001835343433,8.099275222E-05
4.26,-0.0001788581266,9.397901994E-05
4.27,-0.0001732191228,0.0001066975739
4.28,-0.0001666329319,0.0001190739817
4.29,-0.0001591211047,0.0001310347861
4.3,-0.0001507110733,0.0001425079926
4.31,-0.0001414360401,0.0001534235512
4.32,-0.0001313348271,0.0001637138283
4.33,-0.0001204516859,0.0001733140659
4.34,-0.0001088360706,0.0001821628252
4.35,-9.654237286E-05,0.0001902024105
4.36,-8.362962323E-05,0.0001973792715
4.37,-7.016115905E-05,0.0002036443801
4.38,-5.620426181E-05,0.0002089535794
4.39,-4.182976606E-05,0.0002132679034
4.4,-2.711164268E-05,0.0002165538629
4.41,-1.212655912E-05,0.0002187836976
4.42,3.046580391E-06,0.0002199355919
4.43,1.832711162E-05,0.0002199938524
4.44,3.36331008E-05,0.0002189490461
4.45,4.88818457E-05,0.0002167980989
4.46,6.399038366E-05,0.0002135443521
4.47,7.887600345E-05,0.0002091975785
4.48,9.34567573E-05,0.0002037739557
4.49,0.0001076519698,0.0001972959989
4.5,0.00012138274,0.0001897924516
4.51,0.000134572434,0.0001812981365
4.52,0.0001471471636,0.0001718537661
4.53,0.000159036249,0.0001615057159
4.54,0.0001701726616,0.0001503057598
4.55,0.0001804934445,0.0001383107714
4.56,0.0001899401071,0.0001255823909
4.57,0.0001984589929,0.0001121866625
4.58,0.0002060016151,9.819364224E-05
4.59,0.0002125249616,8.367698028E-05
4.6,0.0002179917636,6.871348007E-05
4.61,0.0002223707291,5.338263722E-05
4.62,0.0002256367378,3.776616123E-05
4.63,0.0002277709969,2.19474832E-05
4.64,0.0002287611574,6.011252767E-06
4.65,0.0002286013889,-9.957172361E-06
4.66,0.000227292413,-2.587224093E-05
4.67,0.0002248414963,-4.164872339E-05
4.68,0.0002212624014,-5.720222443E-05
4.69,0.0002165752965,-7.244968947E-05
4.7,0.0002108066261,-8.730990185E-05
4.71,0.0002039889418,-0.0001017039674
4.72,0.0001961606944,-0.0001155557833
4.73,0.0001873659909,-0.0001287924884
4.74,0.0001776543154,-0.0001413448917
4.75,0.0001670802175,-0.0001531478764
4.76,0.0001557029701,-0.0001641407779
4.77,0.0001435861983,-0.0001742677311
4.78,0.0001307974829,-0.000183477988
4.79,0.0001174079405,-0.0001917262003
4.8,0.0001034917826,-0.0001989726687
4.81,8.912585824E-05,-0.0002051835539
4.82,7.438918171E-05,-0.0002103310512
4.83,5.936244889E-05,-0.0002143935262
4.84,4.412754596E-05,-0.0002173556107
4.85,2.876705297E-05,-0.0002192082587
4.86,1.336374611E-05,-0.0002199487639
4.87,-1.999898498E-06,-0.0002195807352
4.88,-1.724219594E-05,-0.0002181140347
4.89,-3.228273566E-05,-0.0002155646756
4.9,-4.704285332E-05,-0.0002119546832
4.91,-6.144608854E-05,-0.0002073119183
4.92,-7.54186255E-05,-0.0002016698659
4.93,-8.888971374E-05,-0.0001950673899
4.94,-0.0001017920665,-0.0001875484555
4.95,-0.0001140622339,-0.0001791618231
4.96,-0.0001256409498,-0.0001699607124
4.97,-0.0001364734482,-0.0001600024438
4.98,-0.0001465097497,-0.0001493480548
4.99,-0.0001557049148,-0.0001380618978
5,-0.000164019263,-0.0001262112204
5.01,-0.0001714185571,-0.0001138657313
5.02,-0.000177874151,-0.0001010971545
5.03,-0.0001833631009,-8.797877595E-05
5.04,-0.0001878682393,-7.45849845E-05
5.05,-0.0001913782117,-6.099081045E-05
5.06,-0.0001938874761,-4.727146539E-05
5.07,-0.0001953962654,-3.350188577E-05
5.08,-0.000195910514,-1.975628326E-05
5.09,-0.0001954417487,-6.107704974E-06
5.1,-0.0001940069455,7.372393764E-06
5.11,-0.0001916283529,2.061456137E-05
5.12,-0.0001883332844,3.355174413E-05
5.13,-0.0001841538812,4.611965999E-05
5.14,-0.0001791268461,5.825714992E-05
5.15,-0.0001732931528,6.990650458E-05
5.16,-0.0001666977312,8.101376447E-05
5.17,-0.0001593891316,9.152899194E-05
5.18,-0.0001514191699,0.0001014065134
5.19,-0.0001428425575,0.0001106051308
5.2,-0.0001337165173,0.0001190883006
5.21,-0.0001241003892,0.0001268242808
5.22,-0.0001140552276,0.0001337862435
5.23,-0.0001036433949,0.000139952355
5.24,-9.292815143E-05,0.0001453058208
5.25,-8.197324684E-05,0.0001498348981
5.26,-7.084251504E-05,0.0001535328746
5.27,-5.959947481E-05,0.0001563980142
5.28,-4.830693946E-05,0.0001584334714
5.29,-3.702663776E-05,0.0001596471751
5.3,-2.581884861E-05,0.000160051682
5.31,-1.474205184E-05,0.0001596640031
5.32,-3.852597171E-06,0.0001585054023
5.33,6.795606472E-06,0.0001566011718
5.34,1.715137962E-05,0.0001539803834
5.35,2.716653715E-05,0.0001506756202
5.36,3.679612786E-05,0.0001467226894
5.37,4.599864769E-05,0.0001421603186
5.38,5.473622522E-05,0.0001370298389
5.39,6.297477882E-05,0.0001313748566
5.4,7.068414476E-05,0.0001252409157
5.41,7.783817579E-05,0.0001186751546
5.42,8.441481011E-05,0.000111725959
5.43,9.03961106E-05,0.0001044426129
5.44,9.576827476E-05,9.687495256E-05
5.45,0.0001005216156,8.907302226E-05
5.46,0.0001046505141,8.108673786E-05
5.47,0.0001081533447,7.296555809E-05
5.48,0.0001110323736,6.475816679E-05
5.49,0.0001132936328,5.65121681E-05
5.5,0.0001149467692,4.827379638E-05
5.51,0.000116004873,4.008764295E-05
5.52,0.0001164842837,3.199640119E-05
5.53,0.0001164043793,2.404063157E-05
5.54,0.000115787347,1.625854805E-05
5.55,0.0001146579403,8.68582689E-06
5.56,0.000113043223,1.355438973E-06
5.57,0.0001109723028,-5.702493608E-06
5.58,0.0001084760564,-1.246081609E-05
5.59,0.0001055868493,-1.889543433E-05
5.6,0.0001023382512,-2.498538255E-05
5.61,9.876475015E-05,-3.07128657E-05
5.62,9.49014674E-05,-3.60632765E-05
5.63,9.078387546E-05,-4.102518751E-05
5.64,8.644752096E-05,-4.559031907E-05
5.65,8.192775472E-05,-4.975348344E-05
5.66,7.725947103E-05,-5.351250652E-05
5.67,7.247685782E-05,-5.686812787E-05
5.68,6.761315961E-05,-5.982388051E-05
5.69,6.270045481E-05,-6.238595182E-05
5.7,5.77694489E-05,-6.456302695E-05
5.71,5.284928476E-05,-6.636611653E-05
5.72,4.796737135E-05,-6.780837033E-05
5.73,4.314923182E-05,-6.890487867E-05
5.74,3.841837174E-05,-6.967246345E-05
5.75,3.37961683E-05,-7.012946084E-05
5.76,2.930178078E-05,-7.029549748E-05
5.77,2.495208273E-05,-7.019126227E-05
5.78,2.07616159E-05,-6.983827572E-05
5.79,1.674256592E-05,-6.925865883E-05
5.8,1.290475937E-05,-6.847490353E-05
5.81,9.255682042E-06,-6.750964656E-05
5.82,5.800517607E-06,-6.638544868E-05
5.83,2.54220603E-06,-6.512458088E-05
5.84,-5.184791283E-07,-6.374881958E-05
5.85,-3.382835622E-06,-6.227925209E-05
5.86,-6.054120779E-06,-6.073609407E-05
5.87,-8.537424422E-06,-5.913852031E-05
5.88,-1.083952785E-05,-5.750450999E-05
5.89,-1.29687504E-05,-5.585070763E-05
5.9,-1.493478514E-05,-5.419230066E-05
5.91,-1.674852543E-05,-5.254291438E-05
5.92,-1.842188395E-05,-5.091452494E-05
5.93,-1.996760612E-05,-4.931739097E-05
5.94,-2.139907951E-05,-4.776000396E-05
5.95,-2.27301412E-05,-4.624905771E-05
5.96,-2.397488476E-05,-4.478943672E-05
5.97,-2.514746868E-05,-4.338422347E-05
5.98,-2.626192805E-05,-4.203472412E-05
5.99,-2.733199104E-05,-4.074051224E-05
6,-2.837090192E-05,-3.949948985E-05
