"Freq [GHz]","re(S(Tx_p1,Tx_p1)) []","im(S(Tx_p1,Tx_p1)) []"
1,-0.03266254419,-0.01066764968
1.01,-0.03314036814,-0.00905559739
1.02,-0.03354069207,-0.007419185793
1.03,-0.03386212209,-0.005762100626
1.04,-0.03410343677,-0.004088105953
1.05,-0.03426359078,-0.00240103701
1.06,-0.03434171844,-0.0007047929508
1.07,-0.03433713706,0.0009966705471
1.08,-0.03424935021,0.00269934883
1.09,-0.03407805079,0.004399195986
1.1,-0.03382312394,0.00609213276
1.11,-0.03348464977,0.007774054665
1.12,-0.03306290596,0.009440840332
1.13,-0.03255836998,0.01108836008
1.14,-0.03197172125,0.01271248476
1.15,-0.03130384293,0.01430909479
1.16,-0.03055582339,0.01587408957
1.17,-0.02972895741,0.01740339702
1.18,-0.02882474699,0.01889298349
1.19,-0.02784490173,0.02033886385
1.2,-0.02679133885,0.0217371119
1.21,-0.02566618267,0.02308387097
1.22,-0.02447176357,0.02437536472
1.23,-0.02321061653,0.02560790817
1.24,-0.02188547892,0.02677791893
1.25,-0.02049928781,0.02788192849
1.26,-0.0190551766,0.02891659369
1.27,-0.01755647095,0.02987870821
1.28,-0.01600668403,0.03076521414
1.29,-0.01440951103,0.03157321347
1.3,-0.01276882299,0.03229997955
1.31,-0.01108865974,0.03294296846
1.32,-0.009373222167,0.0334998301
1.33,-0.007626863651,0.03396841918
1.34,-0.005854080722,0.03434680583
1.35,-0.004059502906,0.03463328586
1.36,-0.0022478818,0.03482639067
1.37,-0.0004240793673,0.03492489656
1.38,0.001406944532,0.03492783361
1.39,0.003240145344,0.03483449391
1.4,0.005070407733,0.03464443904
1.41,0.006892560178,0.03435750694
1.42,0.008701390196,0.03397381789
1.43,0.01049166017,0.03349377967
1.44,0.0122581237,0.03291809175
1.45,0.01399554249,0.03224774861
1.46,0.01569870358,0.03148404195
1.47,0.01736243703,0.03062856187
1.48,0.01898163381,0.02968319693
1.49,0.02055126398,0.02865013313
1.5,0.02206639499,0.0275318516
1.51,0.02352220999,0.02633112521
1.52,0.02491402615,0.02505101387
1.53,0.02623731291,0.02369485867
1.54,0.02748770995,0.02226627475
1.55,0.0286610449,0.02076914293
1.56,0.0297533507,0.0192076001
1.57,0.0307608824,0.01758602848
1.58,0.03168013354,0.01590904356
1.59,0.03250785169,0.01418148098
1.6,0.03324105341,0.01240838227
1.61,0.03387703831,0.01059497945
1.62,0.03441340215,0.008746678668
1.63,0.03484804907,0.006869042816
1.64,0.03517920266,0.004967773285
1.65,0.03540541588,0.003048690833
1.66,0.03552557984,0.001117715718
1.67,0.03553893126,-0.0008191528638
1.68,0.03544505865,-0.002755857927
1.69,0.03524390704,-0.004686306354
1.7,0.03493578138,-0.006604390965
1.71,0.03452134845,-0.008504012887
1.72,0.03400163727,-0.01037910414
1.73,0.03337803805,-0.01222365033
1.74,0.03265229962,-0.01403171333
1.75,0.03182652534,-0.01579745383
1.76,0.03090316744,-0.01751515375
1.77,0.02988502001,-0.01917923821
1.78,0.02877521033,-0.02078429715
1.79,0.02757718886,-0.02232510639
1.8,0.02629471782,-0.02379664805
1.81,0.02493185831,-0.02519413019
1.82,0.02349295621,-0.02651300565
1.83,0.02198262677,-0.02774898995
1.84,0.02040573799,-0.02889807813
1.85,0.01876739293,-0.02995656053
1.86,0.01707291095,-0.03092103732
1.87,0.01532780797,-0.03178843182
1.88,0.01353777593,-0.03255600246
1.89,0.01170866141,-0.03322135338
1.9,0.009846443625,-0.03378244355
1.91,0.007957211831,-0.03423759445
1.92,0.006047142285,-0.03458549617
1.93,0.004122474845,-0.03482521203
1.94,0.002189489327,-0.03495618157
1.95,0.000254481745,-0.03497822202
1.96,-0.001676259482,-0.03489152808
1.97,-0.003596477213,-0.03469667025
1.98,-0.005499969069,-0.03439459148
1.99,-0.007380610596,-0.03398660233
2,-0.009232378008,-0.03347437463
2.01,-0.0110493704,-0.03285993359
2.02,-0.01282583131,-0.03214564856
2.03,-0.0145561696,-0.03133422234
2.04,-0.01623497947,-0.03042867919
2.05,-0.01785705957,-0.02943235164
2.06,-0.01941743116,-0.02834886598
2.07,-0.02091135511,-0.02718212684
2.08,-0.02233434791,-0.02593630053
2.09,-0.02368219629,-0.02461579763
2.1,-0.02495097077,-0.02322525462
2.11,-0.02613703776,-0.02176951482
2.12,-0.02723707038,-0.02025360866
2.13,-0.02824805789,-0.0186827334
2.14,-0.02916731369,-0.0170622324
2.15,-0.02999248193,-0.01539757405
2.16,-0.03072154264,-0.01369433048
2.17,-0.03135281547,-0.01195815607
2.18,-0.03188496193,-0.01019476599
2.19,-0.03231698627,-0.008409914801
2.2,-0.03264823495,-0.006609375126
2.21,-0.0328783947,-0.004798916712
2.22,-0.03300748928,-0.002984285747
2.23,-0.03303587492,-0.001171184656
2.24,-0.03296423452,0.0006347475841
2.25,-0.03279357065,0.002427954531
2.26,-0.03252519739,0.004202980673
2.27,-0.03216073116,0.005954489088
2.28,-0.03170208041,0.007677278276
2.29,-0.03115143453,0.009366298128
2.3,-0.03051125177,0.01101666497
2.31,-0.02978424643,0.01262367563
2.32,-0.02897337533,0.01418282052
2.33,-0.02808182368,0.01568979564
2.34,-0.02711299034,0.01714051353
2.35,-0.02607047265,0.01853111319
2.36,-0.02495805097,0.01985796879
2.37,-0.02377967272,0.02111769739
2.38,-0.02253943644,0.02230716549
2.39,-0.02124157553,0.02342349449
2.4,-0.019890442,0.0244640651
2.41,-0.01849049027,0.02542652064
2.42,-0.01704626103,0.02630876932
2.43,-0.0155623652,0.02710898551
2.44,-0.01404346822,0.02782561002
2.45,-0.01249427452,0.02845734943
2.46,-0.01091951244,0.02900317452
2.47,-0.009323919416,0.02946231787
2.48,-0.007712227729,0.02983427061
2.49,-0.006089150646,0.03011877843
2.5,-0.004459369132,0.03031583686
2.51,-0.002827519104,0.03042568595
2.52,-0.001198179261,0.03044880431
2.53,0.0004241404739,0.03038590259
2.54,0.002035009896,0.03023791651
2.55,0.003630088819,0.03000599948
2.56,0.005205136742,0.02969151472
2.57,0.006756021863,0.02929602727
2.58,0.008278729452,0.02882129548
2.59,0.009769369588,0.02826926252
2.6,0.01122418426,0.02764204752
2.61,0.01263955388,0.02694193672
2.62,0.01401200311,0.02617137448
2.63,0.01533820628,0.02533295423
2.64,0.01661499202,0.0244294095
2.65,0.0178393476,0.02346360486
2.66,0.01900842256,0.02243852702
2.67,0.02011953199,0.02135727597
2.68,0.0211701593,0.02022305623
2.69,0.02215795861,0.01903916822
2.7,0.02308075674,0.01780899981
2.71,0.02393655481,0.01653601797
2.72,0.02472352954,0.01522376065
2.73,0.02544003428,0.01387582872
2.74,0.0260845997,0.01249587824
2.75,0.0266559343,0.01108761272
2.76,0.02715292468,0.009654775658
2.77,0.0275746356,0.008201143224
2.78,0.02792030987,0.006730517024
2.79,0.02818936813,0.005246717068
2.8,0.0283814084,0.00375357482
2.81,0.02849620562,0.002254926369
2.82,0.02853371094,0.0007546056848
2.83,0.02849405107,-0.0007435620557
2.84,0.02837752732,-0.002235767081
2.85,0.02818461476,-0.003718221602
2.86,0.02791596109,-0.005187166372
2.87,0.0275723855,-0.006638877235
2.88,0.02715487742,-0.008069671686
2.89,0.02666459511,-0.009475915469
2.9,0.02610286411,-0.01085402919
2.91,0.02547117555,-0.01220049502
2.92,0.02477118435,-0.01351186339
2.93,0.02400470712,-0.01478475983
2.94,0.02317371992,-0.0160158918
2.95,0.02228035583,-0.0172020557
2.96,0.02132690217,-0.01834014379
2.97,0.02031579753,-0.01942715132
2.98,0.01924962843,-0.02046018367
2.99,0.01813112574,-0.02143646348
3,0.01696316067,-0.02235333791
3.01,0.01574874047,-0.02320828582
3.02,0.01449100364,-0.02399892501
3.03,0.01319321482,-0.02472301943
3.04,0.0118587592,-0.02537848625
3.05,0.0104911365,-0.02596340297
3.06,0.009093954461,-0.0264760143
3.07,0.0076709219,-0.02691473893
3.08,0.006225841245,-0.02727817617
3.09,0.004762600595,-0.02756511223
3.1,0.003285165289,-0.02777452634
3.11,0.001797568977,-0.02790559651
3.12,0.0003039042074,-0.02795770496
3.13,-0.001191687466,-0.02793044311
3.14,-0.002685025839,-0.02782361615
3.15,-0.004171902862,-0.02763724715
3.16,-0.005648093872,-0.02737158058
3.17,-0.007109369223,-0.02702708531
3.18,-0.008551506295,-0.02660445692
3.19,-0.009970301829,-0.02610461948
3.2,-0.01136158457,-0.02552872648
3.21,-0.01272122818,-0.02487816116
3.22,-0.01404516433,-0.02415453597
3.23,-0.01532939599,-0.02335969135
3.24,-0.01657001079,-0.02249569357
3.25,-0.01776319452,-0.02156483181
3.26,-0.01890524452,-0.02056961436
3.27,-0.01999258307,-0.01951276393
3.28,-0.02102177068,-0.01839721207
3.29,-0.02198951909,-0.01722609274
3.3,-0.02289270417,-0.01600273494
3.31,-0.02372837835,-0.01473065449
3.32,-0.02449378275,-0.01341354493
3.33,-0.02518635885,-0.01205526755
3.34,-0.02580375962,-0.01065984058
3.35,-0.02634386007,-0.009231427612
3.36,-0.02680476717,-0.007774325205
3.37,-0.02718482907,-0.006292949746
3.38,-0.02748264351,-0.004791823641
3.39,-0.02769706545,-0.003275560839
3.4,-0.0278272138,-0.001748851759
3.41,-0.02787247726,-0.0002164476824
3.42,-0.02783251911,0.001316855345
3.43,-0.02770728109,0.002846233018
3.44,-0.02749698613,0.004366849635
3.45,-0.0272021401,0.005873875223
3.46,-0.02682353234,0.007362502874
3.47,-0.02636223514,0.008827966205
3.48,-0.02581960208,0.01026555686
3.49,-0.02519726515,0.01167064198
3.5,-0.02449713078,0.01303868154
3.51,-0.0237213747,0.01436524552
3.52,-0.0228724356,0.01564603079
3.53,-0.02195300775,0.01687687758
3.54,-0.02096603247,0.01805378555
3.55,-0.0199146885,0.01917292938
3.56,-0.01880238134,0.02023067367
3.57,-0.01763273164,0.02122358719
3.58,-0.01640956251,0.02214845645
3.59,-0.01513688606,0.02300229836
3.6,-0.01381888896,0.02378237207
3.61,-0.01245991731,0.02448618982
3.62,-0.01106446073,0.02511152684
3.63,-0.009637135807,0.02565643018
3.64,-0.008182668946,0.02611922639
3.65,-0.006705878759,0.02649852816
3.66,-0.005211657986,0.02679323971
3.67,-0.003704955099,0.02700256099
3.68,-0.002190755642,0.02712599069
3.69,-0.0006740634085,0.02716332797
3.7,0.0008401184708,0.02711467297
3.71,0.002346806426,0.02698042602
3.72,0.003841055253,0.02676128565
3.73,0.005317976741,0.02645824535
3.74,0.006772758022,0.02607258904
3.75,0.008200679572,0.02560588546
3.76,0.00959713277,0.02505998124
3.77,0.01095763695,0.02443699299
3.78,0.01227785582,0.02373929812
3.79,0.01355361328,0.02296952479
3.8,0.01478090841,0.0221305407
3.81,0.01595592973,0.02122544104
3.82,0.01707506854,0.02025753554
3.83,0.01813493135,0.01923033466
3.84,0.01913235132,0.01814753511
3.85,0.0200643987,0.01701300459
3.86,0.02092839019,0.0158307661
3.87,0.02172189718,0.01460498153
3.88,0.02244275289,0.01333993498
3.89,0.02308905835,0.01204001563
3.9,0.02365918722,0.01070970038
3.91,0.02415178939,0.009353536291
3.92,0.02456579344,0.007976122894
3.93,0.02490040795,0.006582094538
3.94,0.02515512154,0.005176102738
3.95,0.02532970187,0.003762798703
3.96,0.0254241934,0.002346816064
3.97,0.02543891414,0.0009327539178
3.98,0.02537445122,-0.0004748397737
3.99,0.02523165552,-0.001871484329
4,0.02501163525,-0.003252781985
4.01,0.02471574852,-0.004614432962
4.02,0.02434559517,-0.005952249892
4.03,0.02390300756,-0.007262171555
4.04,0.02339004072,-0.008540275881
4.05,0.02280896169,-0.009782792154
4.06,0.02216223821,-0.01098611241
4.07,0.02145252686,-0.01214680193
4.08,0.02068266054,-0.01326160891
4.09,0.01985563569,-0.01432747315
4.1,0.01897459889,-0.0153415338
4.11,0.0180428333,-0.01630113625
4.12,0.01706374478,-0.01720383795
4.13,0.01604084784,-0.0180474133
4.14,0.01497775147,-0.01882985765
4.15,0.01387814492,-0.01954939023
4.16,0.0127457835,-0.02020445624
4.17,0.0115844745,-0.02079372796
4.18,0.01039806319,-0.02131610498
4.19,0.009190419045,-0.02177071356
4.2,0.007965422288,-0.0221569051
4.21,0.006726950662,-0.02247425386
4.22,0.005478866616,-0.02272255384
4.23,0.004225004881,-0.022901815
4.24,0.002969160507,-0.02301225868
4.25,0.001715077375,-0.02305431248
4.26,0.0004664372444,-0.02302860445
4.27,-0.0007731506589,-0.02293595676
4.28,-0.00200015947,-0.0227773789
4.29,-0.003211153919,-0.02255406033
4.3,-0.004402798946,-0.0222673628
4.31,-0.005571867695,-0.02191881234
4.32,-0.006715248864,-0.02151009081
4.33,-0.007829953424,-0.02104302738
4.34,-0.00891312069,-0.02051958964
4.35,-0.009962023758,-0.01994187466
4.36,-0.01097407431,-0.01931209989
4.37,-0.01194682682,-0.01863259401
4.38,-0.01287798209,-0.01790578773
4.39,-0.01376539028,-0.01713420465
4.4,-0.01460705334,-0.01632045216
4.41,-0.01540112682,-0.01546721235
4.42,-0.01614592128,-0.01457723322
4.43,-0.01683990309,-0.01365331981
4.44,-0.01748169483,-0.01269832572
4.45,-0.01807007518,-0.0117151447
4.46,-0.01860397848,-0.01070670247
4.47,-0.01908249381,-0.009675948872
4.48,-0.01950486375,-0.008625850161
4.49,-0.01987048288,-0.00755938162
4.5,-0.02017889584,-0.006479520439
4.51,-0.02042979527,-0.005389238861
4.52,-0.02062301942,-0.00429149762
4.53,-0.02075854956,-0.003189239649
4.54,-0.02083650726,-0.002085384072
4.55,-0.02085715143,-0.0009828204648
4.56,-0.02082087527,0.0001155966157
4.57,-0.02072820314,0.001207052843
4.58,-0.02057978723,0.002288779088
4.59,-0.02037640424,0.003358056149
4.6,-0.020118952,0.004412219255
4.61,-0.01980844598,0.005448662366
4.62,-0.01944601579,0.006464842269
4.63,-0.01903290169,0.007458282503
4.64,-0.018570451,0.00842657711
4.65,-0.01806011459,0.009367394236
4.66,-0.01750344325,0.0102784796
4.67,-0.01690208413,0.01115765984
4.68,-0.0162577771,0.01200284573
4.69,-0.01557235114,0.01281203534
4.7,-0.01484772068,0.01358331707
4.71,-0.01408588191,0.01431487262
4.72,-0.01328890903,0.0150049799
4.73,-0.0124589505,0.01565201587
4.74,-0.01159822518,0.01625445933
4.75,-0.01070901842,0.01681089363
4.76,-0.009793678079,0.01732000936
4.77,-0.008854610406,0.01778060699
4.78,-0.007894275875,0.0181915994
4.79,-0.006915184851,0.01855201441
4.8,-0.005919893147,0.01886099718
4.81,-0.004910997437,0.01911781261
4.82,-0.003891130514,0.01932184758
4.83,-0.002862956388,0.01947261313
4.84,-0.001829165218,0.01956974648
4.85,-0.0007924680638,0.01961301299
4.86,0.0002444085423,0.01960230789
4.87,0.001278728204,0.01953765792
4.88,0.002307750459,0.0194192227
4.89,0.003328736758,0.01924729599
4.9,0.004338956627,0.01902230662
4.91,0.005335694007,0.01874481923
4.92,0.006316253759,0.01841553474
4.93,0.00727796833,0.0180352905
4.94,0.008218204563,0.01760506011
4.95,0.009134370646,0.01712595296
4.96,0.01002392316,0.01659921334
4.97,0.01088437425,0.01602621924
4.98,0.01171329882,0.01540848067
4.99,0.01250834184,0.01474763768
5,0.01326722562,0.01404545781
5.01,0.01398775712,0.01330383325
5.02,0.01466783518,0.01252477741
5.03,0.01530545775,0.01171042109
5.04,0.01589872893,0.01086300822
5.05,0.01644586597,0.009984891009
5.06,0.01694520602,0.009078524752
5.07,0.01739521274,0.008146462065
5.08,0.01779448262,0.007191346691
5.09,0.01814175101,0.006215906842
5.1,0.01843589793,0.005222948085
5.11,0.0186759534,0.004215345785
5.12,0.01886110244,0.00319603714
5.13,0.01899068969,0.002168012806
5.14,0.01906422347,0.001134308144
5.15,0.01908137943,9.799412675E-05
5.16,0.01904200365,-0.0009378320897
5.17,0.01894611518,-0.001970056876
5.18,0.018793908,-0.002995560096
5.19,0.01858575239,-0.004011225295
5.2,0.01832219566,-0.005013950059
5.21,0.01800396224,-0.006000656521
5.22,0.01763195309,-0.006968301948
5.23,0.01720724449,-0.007913889387
5.24,0.01673108602,-0.008834478304
5.25,0.01620489802,-0.009727195182
5.26,0.01563026821,-0.01058924402
5.27,0.01500894765,-0.01141791668
5.28,0.0143428461,-0.01221060306
5.29,0.01363402655,-0.012964801
5.3,0.01288469922,-0.01367812591
5.31,0.01209721478,-0.01434832005
5.32,0.01127405708,-0.01497326138
5.33,0.01041783514,-0.0155509721
5.34,0.009531274615,-0.01607962653
5.35,0.008617208725,-0.0165575586
5.36,0.007678568643,-0.01698326872
5.37,0.006718373404,-0.01735543008
5.38,0.005739719386,-0.01767289423
5.39,0.004745769388,-0.0179346961
5.4,0.00373974136,-0.01814005823
5.41,0.002724896834,-0.01828839429
5.42,0.0017045291,-0.0183793119
5.43,0.0006819511833,-0.01841261457
5.44,-0.0003395163182,-0.01838830299
5.45,-0.001356557495,-0.01830657538
5.46,-0.002365873414,-0.01816782717
5.47,-0.003364194395,-0.01797264975
5.48,-0.004348292195,-0.0177218285
5.49,-0.005314992069,-0.01741633996
5.5,-0.006261184636,-0.01705734827
5.51,-0.007183837496,-0.01664620075
5.52,-0.008080006552,-0.01618442276
5.53,-0.008946846966,-0.01567371186
5.54,-0.009781623727,-0.01511593118
5.55,-0.01058172175,-0.01451310214
5.56,-0.01134465547,-0.01386739655
5.57,-0.01206807791,-0.013181128
5.58,-0.01274978914,-0.01245674281
5.59,-0.01338774412,-0.01169681032
5.6,-0.01398005988,-0.01090401277
5.61,-0.01452502197,-0.01008113469
5.62,-0.01502109027,-0.009231051945
5.63,-0.01546690397,-0.008356720431
5.64,-0.01586128581,-0.007461164448
5.65,-0.01620324554,-0.006547464892
5.66,-0.01649198259,-0.00561874725
5.67,-0.01672688792,-0.004678169477
5.68,-0.01690754505,-0.003728909825
5.69,-0.01703373032,-0.002774154655
5.7,-0.01710541229,-0.001817086311
5.71,-0.01712275038,-0.0008608711017
5.72,-0.01708609273,9.135255948E-05
5.73,-0.01699597325,0.001036485787
5.74,-0.01685310799,0.001971480595
5.75,-0.01665839068,0.002893350941
5.76,-0.01641288773,0.003799183407
5.77,-0.01611783239,0.004686147466
5.78,-0.01577461839,0.005551505285
5.79,-0.01538479299,0.006392621038
5.8,-0.01495004939,0.007206969682
5.81,-0.0144722187,0.007992145156
5.82,-0.01395326145,0.008745867993
5.83,-0.01339525858,0.009465992298
5.84,-0.01280040219,0.01015051207
5.85,-0.01217098586,0.01079756687
5.86,-0.01150939473,0.01140544678
5.87,-0.01081809534,0.0119725967
5.88,-0.01009962536,0.01249761987
5.89,-0.00935658309,0.01297928077
5.9,-0.008591616949,0.01341650725
5.91,-0.007807414954,0.01380839195
5.92,-0.007006694188,0.01415419305
5.93,-0.006192190359,0.01445333427
5.94,-0.005366647486,0.01470540431
5.95,-0.004532807739,0.01491015548
5.96,-0.003693401504,0.01506750178
5.97,-0.002851137691,0.01517751636
5.98,-0.002008694339,0.01524042833
5.99,-0.001168709542,0.01525661912
6,-0.0003337727526,0.01522661815
