"Freq [GHz]","re(S(Tx_p1,Tx_p1)) []","im(S(Tx_p1,Tx_p1)) []"
1,-0.002480521387,-0.001436056308
1.01,-0.002521436895,-0.001309657074
1.02,-0.002555858805,-0.00118242571
1.03,-0.002583791633,-0.001054720996
1.04,-0.002605261975,-0.000926898843
1.05,-0.002620318118,-0.0007993108475
1.06,-0.002629029554,-0.00067230289
1.07,-0.002631486413,-0.0005462137774
1.08,-0.002627798806,-0.0004213739388
1.09,-0.002618096085,-0.0002981041785
1.1,-0.002602526034,-0.0001767144908
1.11,-0.00258125398,-5.750294216E-05
1.12,-0.002554461842,5.924537728E-05
1.13,-0.002522347118,0.0001732593264
1.14,-0.002485121816,0.0002842826087
1.15,-0.002443011331,0.0003920745866
1.16,-0.002396253285,0.0004964110127
1.17,-0.002345096322,0.0005970846741
1.18,-0.002289798874,0.0006939059508
1.19,-0.002230627899,0.0007867032833
1.2,-0.002167857602,0.0008753235514
1.21,-0.002101768138,0.0009596323616
1.22,-0.002032644311,0.001039514244
1.23,-0.001960774269,0.00111487276
1.24,-0.001886448208,0.001185630516
1.25,-0.001809957084,0.001251729093
1.26,-0.001731591338,0.001313128887
1.27,-0.001651639654,0.001369808864
1.28,-0.001570387736,0.00142176623
1.29,-0.001488117122,0.001469016025
1.3,-0.001405104039,0.001511590634
1.31,-0.0013216183,0.001549539227
1.32,-0.001237922248,0.001582927127
1.33,-0.001154269759,0.001611835111
1.34,-0.001070905294,0.001636358651
1.35,-0.0009880630239,0.001656607093
1.36,-0.0009059660078,0.001672702783
1.37,-0.0008248254459,0.001684780149
1.38,-0.0007448400022,0.001692984732
1.39,-0.0006661951998,0.001697472185
1.4,-0.0005890628927,0.001698407234
1.41,-0.000513600814,0.001695962619
1.42,-0.0004399522036,0.001690318002
1.43,-0.000368245515,0.001681658872
1.44,-0.0002985942024,0.001670175424
1.45,-0.0002310965878,0.001656061447
1.46,-0.000165835809,0.001639513209
1.47,-0.0001028798461,0.001620728337
1.48,-4.228162743E-05,0.001599904729
1.49,1.59207878E-05,0.001577239464
1.5,7.170395155E-05,0.001552927746
1.51,0.0001250586953,0.001527161875
1.52,0.0001759897275,0.001500130241
1.53,0.000224515163,0.001472016367
1.54,0.0002706659875,0.001442997991
1.55,0.0003144854594,0.001413246187
1.56,0.0003560284547,0.001382924544
1.57,0.0003953607568,0.001352188398
1.58,0.0004325582965,0.001321184121
1.59,0.0004677063468,0.001290048466
1.6,0.0005008986752,0.001258907984
1.61,0.0005322366613,0.001227878501
1.62,0.0005618283817,0.001197064665
1.63,0.0005897876691,0.001166559567
1.64,0.0006162331493,0.001136444426
1.65,0.0006412872632,0.001106788354
1.66,0.0006650752767,0.001077648192
1.67,0.0006877242861,0.00104906842
1.68,0.0007093622224,0.00102108114
1.69,0.0007301168611,0.0009937061346
1.7,0.000750114842,0.0009669509998
1.71,0.0007694807047,0.0009408113454
1.72,0.000788335944,0.0009152710699
1.73,0.0008067980914,0.0008903027025
1.74,0.000824979826,0.0008658678121
1.75,0.0008429881211,0.000841917481
1.76,0.0008609234293,0.0008183928392
1.77,0.0008788789118,0.0007952256579
1.78,0.0008969397147,0.000772338998
1.79,0.0009151822969,0.0007496479098
1.8,0.0009336738129,0.0007270601811
1.81,0.0009524715533,0.0007044771283
1.82,0.0009716224469,0.0006817944272
1.83,0.0009911626255,0.0006589029783
1.84,0.001011117056,0.0006356898029
1.85,0.001031499237,0.0006120389643
1.86,0.001052310973,0.0005878325093
1.87,0.001073542207,0.0005629514259
1.88,0.001095170936,0.0005372766107
1.89,0.001117163196,0.0005106898418
1.9,0.001139473112,0.0004830747523
1.91,0.001162043034,0.0004543177982
1.92,0.001184803733,0.0004243092159
1.93,0.001207674674,0.0003929439653
1.94,0.001230564359,0.0003601226514
1.95,0.001253370732,0.0003257524219
1.96,0.001275981664,0.0002897478334
1.97,0.001298275486,0.0002520316837
1.98,0.001320121596,0.0002125358047
1.99,0.001341381119,0.0001712018109
2,0.001361907622,0.0001279818017
2.01,0.00138154789,8.283900985E-05
2.02,0.001400142738,3.57483968E-05
2.03,0.001417527875,-1.330281241E-05
2.04,0.00143353481,-6.431465525E-05
2.05,0.001447991792,-0.0001172740228
2.06,0.00146072478,-0.0001721543183
2.07,0.001471558439,-0.0002289151844
2.08,0.001480317167,-0.0002875023031
2.09,0.001486826128,-0.0003478472676
2.1,0.001490912302,-0.0004098675282
2.11,0.001492405545,-0.0004734664145
2.12,0.001491139644,-0.0005385332313
2.13,0.001486953371,-0.0006049434319
2.14,0.001479691532,-0.0006725588655
2.15,0.001469205996,-0.0007412281007
2.16,0.001455356709,-0.000810786822
2.17,0.00143801268,-0.0008810582993
2.18,0.00141705294,-0.0009518539289
2.19,0.001392367466,-0.001022973843
2.2,0.001363858066,-0.001094207587
2.21,0.001331439218,-0.001165334858
2.22,0.001295038865,-0.001236126311
2.23,0.001254599153,-0.001306344414
2.24,0.001210077112,-0.001375744366
2.25,0.001161445285,-0.001444075061
2.26,0.001108692279,-0.0015110801
2.27,0.001051823266,-0.001576498843
2.28,0.0009908603935,-0.001640067504
2.29,0.0009258431427,-0.001701520276
2.3,0.0008568285965,-0.001760590482
2.31,0.0007838916379,-0.001817011751
2.32,0.0007071250667,-0.001870519215
2.33,0.0006266396367,-0.001920850716
2.34,0.0005425640122,-0.001967748019
2.35,0.0004550446415,-0.002010958027
2.36,0.0003642455493,-0.002050233999
2.37,0.0002703480471,-0.002085336747
2.38,0.0001735503614,-0.002116035831
2.39,7.406718228E-05,-0.002142110723
2.4,-2.787086857E-05,-0.002163351955
2.41,-0.0001320178465,-0.002179562229
2.42,-0.0002381131695,-0.002190557493
2.43,-0.0003458823767,-0.002196167981
2.44,-0.0004550379584,-0.002196239197
2.45,-0.0005652802539,-0.002190632857
2.46,-0.0006762984147,-0.002179227771
2.47,-0.0007877714284,-0.002161920668
2.48,-0.0008993692004,-0.002138626954
2.49,-0.001010753689,-0.002109281405
2.5,-0.001121580089,-0.002073838787
2.51,-0.001231498061,-0.002032274399
2.52,-0.001340152999,-0.001984584548
2.53,-0.001447187331,-0.001930786927
2.54,-0.001552241855,-0.001870920928
2.55,-0.00165495709,-0.001805047857
2.56,-0.001754974654,-0.001733251069
2.57,-0.00185193865,-0.001655636013
2.58,-0.001945497058,-0.001572330189
2.59,-0.002035303134,-0.001483483016
2.6,-0.002121016801,-0.001389265606
2.61,-0.002202306029,-0.001289870458
2.62,-0.0022788482,-0.001185511054
2.63,-0.002350331454,-0.001076421368
2.64,-0.002416456002,-0.0009628552973
2.65,-0.002476935412,-0.0008450859959
2.66,-0.002531497854,-0.0007234051347
2.67,-0.002579887297,-0.0005981220768
2.68,-0.002621864667,-0.0004695629758
2.69,-0.002657208938,-0.0003380697995
2.7,-0.002685718176,-0.0002039992816
2.71,-0.002707210513,-6.772180689E-05
2.72,-0.00272152505,7.03797685E-05
2.73,-0.002728522701,0.0002099113555
2.74,-0.002728086941,0.0003504689258
2.75,-0.002720124498,0.0004916398551
2.76,-0.00270456594,0.000633004312
2.77,-0.002681366191,0.000774136686
2.78,-0.002650504957,0.0009146070511
2.79,-0.002611987053,0.001053982657
2.8,-0.002565842648,0.001191829443
2.81,-0.002512127411,0.001327713572
2.82,-0.002450922564,0.001461202974
2.83,-0.002382334835,0.001591868892
2.84,-0.002306496322,0.001719287435
2.85,-0.002223564257,0.001843041115
2.86,-0.002133720673,0.001962720379
2.87,-0.00203717198,0.002077925119
2.88,-0.001934148441,0.002188266156
2.89,-0.001824903568,0.002293366695
2.9,-0.001709713413,0.002392863744
2.91,-0.001588875781,0.002486409492
2.92,-0.001462709354,0.002573672636
2.93,-0.001331552736,0.002654339656
2.94,-0.001195763414,0.002728116037
2.95,-0.001055716647,0.002794727421
2.96,-0.0009118042846,0.002853920695
2.97,-0.0007644335154,0.002905465009
2.98,-0.0006140255555,0.002949152713
2.99,-0.0004610142775,0.002984800217
3,-0.0003058447881,0.003012248768
3.01,-0.0001489719568,0.003031365138
3.02,9.141096147E-06,0.003042042226
3.03,0.0001680245496,0.003044199559
3.04,0.0003272034611,0.003037783713
3.05,0.0004861993717,0.003022768623
3.06,0.00064453193,0.002999155806
3.07,0.0008017205283,0.002966974478
3.08,0.0009572859457,0.002926281577
3.09,0.001110751992,0.00287716168
3.1,0.001261647146,0.002819726831
3.11,0.001409506181,0.002754116253
3.12,0.001553871773,0.002680495981
3.13,0.001694296084,0.002599058382
3.14,0.001830342319,0.002510021588
3.15,0.001961586242,0.002413628832
3.16,0.002087617652,0.002310147697
3.17,0.002208041818,0.002199869269
3.18,0.002322480847,0.002083107212
3.19,0.002430575013,0.001960196757
3.2,0.002531984008,0.001831493616
3.21,0.002626388136,0.001697372813
3.22,0.002713489426,0.001558227459
3.23,0.002793012679,0.001414467445
3.24,0.002864706425,0.00126651809
3.25,0.002928343809,0.001114818721
3.26,0.002983723375,0.0009598212104
3.27,0.003030669776,0.0008019884626
3.28,0.003069034378,0.0006417928648
3.29,0.003098695783,0.0004797147026
3.3,0.003119560242,0.0003162405481
3.31,0.003131561982,0.0001518616254
3.32,0.003134663431,-1.292783966E-05
3.33,0.003128855335,-0.000177632279
3.34,0.003114156791,-0.0003417564466
3.35,0.003090615162,-0.0005048070796
3.36,0.003058305912,-0.0006662945515
3.37,0.003017332325,-0.0008257345106
3.38,0.002967825134,-0.0009826494981
3.39,0.002909942061,-0.00113657054
3.4,0.002843867245,-0.001287038705
3.41,0.002769810598,-0.00143360663
3.42,0.002688007059,-0.001575839994
3.43,0.002598715765,-0.001713318953
3.44,0.00250221914,-0.001845639509
3.45,0.002398821905,-0.001972414836
3.46,0.002288850007,-0.002093276529
3.47,0.002172649487,-0.002207875792
3.48,0.002050585265,-0.002315884553
3.49,0.001923039881,-0.002416996504
3.5,0.00179041216,-0.00251092806
3.51,0.00165311584,-0.002597419237
3.52,0.00151157814,-0.002676234446
3.53,0.001366238291,-0.002747163196
3.54,0.001217546034,-0.002810020706
3.55,0.001065960079,-0.002864648432
3.56,0.0009119465428,-0.002910914494
3.57,0.000755977369,-0.002948714009
3.58,0.0005985287298,-0.002977969327
3.59,0.0004400794228,-0.002998630179
3.6,0.0002811092651,-0.00301067372
3.61,0.0001220974904,-0.003014104478
3.62,-3.647884334E-05,-0.00300895421
3.63,-0.0001941464314,-0.002995281666
3.64,-0.0003504372793,-0.00297317225
3.65,-0.000504890232,-0.002942737604
3.66,-0.000657052473,-0.002904115091
3.67,-0.0008064809846,-0.002857467196
3.68,-0.0009527439666,-0.002802980843
3.69,-0.001095422208,-0.00274086663
3.7,-0.001234110407,-0.002671357987
3.71,-0.001368418432,-0.002594710255
3.72,-0.001497972528,-0.002511199702
3.73,-0.00162241645,-0.002421122463
3.74,-0.001741412536,-0.002324793427
3.75,-0.001854642703,-0.00222254506
3.76,-0.001961809369,-0.002114726174
3.77,-0.002062636301,-0.002001700652
3.78,-0.002156869375,-0.001883846125
3.79,-0.002244277262,-0.001761552613
3.8,-0.002324652023,-0.001635221134
3.81,-0.002397809622,-0.001505262277
3.82,-0.002463590346,-0.001372094766
3.83,-0.002521859146,-0.001236143993
3.84,-0.002572505883,-0.00109784055
3.85,-0.002615445482,-0.0009576187447
3.86,-0.002650618005,-0.0008159151267
3.87,-0.00267798863,-0.0006731670069
3.88,-0.002697547547,-0.0005298109948
3.89,-0.00270930976,-0.0003862815467
3.9,-0.002713314811,-0.0002430095359
3.91,-0.002709626419,-0.0001004208475
3.92,-0.002698332032,4.106499647E-05
3.93,-0.002679542312,0.0001810361769
3.94,-0.002653390528,0.0003190898781
3.95,-0.002620031889,0.0004548335442
3.96,-0.0025796428,0.0005878860877
3.97,-0.002532420051,0.0007178790454
3.98,-0.002478579942,0.0008444576793
3.99,-0.002418357352,0.0009672820174
4,-0.00235200475,0.001086027832
4.01,-0.002279791153,0.001200387555
4.02,-0.002202001037,0.001310071118
4.03,-0.00211893321,0.001414806731
4.04,-0.002030899638,0.00151434158
4.05,-0.001938224245,0.001608442458
4.06,-0.001841241684,0.00169689631
4.07,-0.001740296076,0.00177951071
4.08,-0.001635739739,0.001856114254
4.09,-0.0015279319,0.001926556877
4.1,-0.001417237395,0.001990710086
4.11,-0.001304025367,0.002048467122
4.12,-0.001188667964,0.002099743035
4.13,-0.001071539045,0.002144474683
4.14,-0.000953012887,0.002182620657
4.15,-0.000833462921,0.002214161126
4.16,-0.0007132604726,0.002239097604
4.17,-0.0005927735362,0.002257452656
4.18,-0.0004723655721,0.002269269518
4.19,-0.0003523943385,0.002274611655
4.2,-0.0002332107569,0.002273562258
4.21,-0.0001151578195,0.002266223663
4.22,1.430460918E-06,0.002252716727
4.23,0.000116230055,0.002233180128
4.24,0.0002289278697,0.002207769629
4.25,0.0003392226488,0.002176657271
4.26,0.0004468258182,0.002140030541
4.27,0.0005514622727,0.002098091474
4.28,0.0006528711029,0.002051055735
4.29,0.0007508062594,0.001999151652
4.3,0.000845037154,0.001942619224
4.31,0.0009353491951,0.001881709099
4.32,0.001021544257,0.001816681532
4.33,0.00110344108,0.001747805321
4.34,0.001180875609,0.001675356727
4.35,0.001253701254,0.001599618394
4.36,0.00132178909,0.001520878245
4.37,0.001385027989,0.001439428398
4.38,0.001443324677,0.001355564065
4.39,0.001496603736,0.00126958247
4.4,0.001544807526,0.001181781775
4.41,0.001587896059,0.001092460017
4.42,0.001625846791,0.001001914068
4.43,0.001658654371,0.0009104386135
4.44,0.00168633032,0.0008183251624
4.45,0.001708902652,0.0007258610806
4.46,0.001726415446,0.0006333286602
4.47,0.001738928363,0.000541004224
4.48,0.001746516111,0.0004491572683
4.49,0.001749267868,0.0003580496478
4.5,0.001747286654,0.0002679348042
4.51,0.001740688672,0.0001790570406
4.52,0.001729602602,9.165084523E-05
4.53,0.001714168867,5.940264743E-06
4.54,0.001694538868,-7.786167018E-05
4.55,0.00167087419,-0.000159553466
4.56,0.001643345781,-0.0002389456331
4.57,0.001612133124,-0.0003158610965
4.58,0.001577423376,-0.0003901355514
4.59,0.001539410511,-0.0004616177609
4.6,0.001498294437,-0.0005301697978
4.61,0.001454280127,-0.000595667229
4.62,0.001407576732,-0.0006579992434
4.63,0.001358396706,-0.0007170687236
4.64,0.001306954933,-0.0007727922626
4.65,0.001253467864,-0.000825100125
4.66,0.001198152668,-0.0008739361556
4.67,0.001141226393,-0.0009192576359
4.68,0.001082905155,-0.0009610350894
4.69,0.001023403341,-0.0009992520387
4.7,0.0009629328417,-0.001033904716
4.71,0.0009017023077,-0.001065001726
4.72,0.0008399164412,-0.001092563672
4.73,0.0007777753153,-0.001116622735
4.74,0.0007154737307,-0.001137222219
4.75,0.0006532006087,-0.001154416061
4.76,0.0005911384228,-0.001168268307
4.77,0.0005294626709,-0.00117885256
4.78,0.0004683413895,-0.001186251399
4.79,0.0004079347111,-0.00119055578
4.8,0.0003483944654,-0.001191864407
4.81,0.0002898638263,-0.001190283095
4.82,0.0002324770046,-0.001185924112
4.83,0.000176358986,-0.001178905513
4.84,0.0001216253171,-0.001169350468
4.85,6.838193678E-05,-0.001157386576
4.86,1.672505417E-05,-0.001143145186
4.87,-3.325892699E-05,-0.001126760719
4.88,-8.14934391E-05,-0.001108369985
4.89,-0.0001279117365,-0.00108811152
4.9,-0.0001724568375,-0.001066124921
4.91,-0.0002150814244,-0.001042550201
4.92,-0.0002557477012,-0.001017527158
4.93,-0.0002944272125,-0.0009911947586
4.94,-0.0003311006236,-0.0009636905473
4.95,-0.0003657574643,-0.0009351500741
4.96,-0.0003983958383,-0.0009057063491
4.97,-0.0004290220997,-0.0008754893232
4.98,-0.0004576505,-0.0008446253981
4.99,-0.0004843028054,-0.0008132369662
5,-0.0005090078903,-0.0007814419834
5.01,-0.0005318013059,-0.0007493535746
5.02,-0.0005527248287,-0.0007170796739
5.03,-0.0005718259908,-0.0006847227012
5.04,-0.0005891575937,-0.0006523792745
5.05,-0.0006047772104,-0.00062013996
5.06,-0.000618746676,-0.0005880890595
5.07,-0.0006311315709,-0.0005563044362
5.08,-0.0006420006995,-0.0005248573787
5.09,-0.0006514255657,-0.0004938125024
5.1,-0.0006594798494,-0.0004632276895
5.11,-0.0006662388854,-0.0004331540661
5.12,-0.000671779148,-0.0004036360166
5.13,-0.000676177743,-0.0003747112332
5.14,-0.0006795119106,-0.0003464108021
5.15,-0.0006818585407,-0.0003187593222
5.16,-0.0006832937024,-0.0002917750584
5.17,-0.0006838921918,-0.0002654701251
5.18,-0.0006837270977,-0.0002398507003
5.19,-0.0006828693885,-0.0002149172688
5.2,-0.0006813875222,-0.0001906648908
5.21,-0.0006793470801,-0.0001670834967
5.22,-0.0006768104272,-0.0001441582041
5.23,-0.0006738363986,-0.000121869656
5.24,-0.0006704800161,-0.0001001943777
5.25,-0.0006667922323,-7.910515049E-05
5.26,-0.0006628197069,-5.857139972E-05
5.27,-0.000658604613,-3.855959503E-05
5.28,-0.0006541844756,-1.90336604E-05
5.29,-0.0006495920423,4.460823847E-08
5.3,-0.0006448551865,1.871512023E-05
5.31,-0.0006399968426,3.701906457E-05
5.32,-0.0006350349744,5.499848384E-05
5.33,-0.0006299825752,7.269584981E-05
5.34,-0.0006248477002,9.015364333E-05
5.35,-0.0006196335296,0.0001074139403
5.36,-0.0006143384629,0.0001245180066
5.37,-0.0006089562428,0.0001415059026
5.38,-0.0006034761077,0.0001584161022
5.39,-0.0005978829723,0.0001752851243
5.4,-0.0005921576342,0.0001921471826
5.41,-0.0005862770059,0.0002090338528
5.42,-0.0005802143705,0.0002259737598
5.43,-0.0005739396589,0.0002429922869
5.44,-0.0005674197481,0.0002601113077
5.45,-0.0005606187773,0.0002773489421
5.46,-0.0005534984813,0.0002947193382
5.47,-0.0005460185383,0.0003122324803
5.48,-0.0005381369308,0.0003298940249
5.49,-0.0005298103172,0.0003477051644
5.5,-0.0005209944117,0.0003656625197
5.51,-0.0005116443711,0.0003837580626
5.52,-0.0005017151865,0.0004019790669
5.53,-0.000491162076,0.0004203080906
5.54,-0.0004799408788,0.0004387229862
5.55,-0.0004680084469,0.0004571969428
5.56,-0.0004553230323,0.0004756985555
5.57,-0.0004418446683,0.0004941919254
5.58,-0.0004275355429,0.0005126367872
5.59,-0.0004123603613,0.0005309886652
5.6,-0.0003962866966,0.000549199055
5.61,-0.0003792853263,0.0005672156329
5.62,-0.0003613305532,0.0005849824884
5.63,-0.000342400508,0.0006024403819
5.64,-0.0003224774338,0.0006195270231
5.65,-0.000301547949,0.0006361773719
5.66,-0.0002796032882,0.0006523239574
5.67,-0.0002566395198,0.0006678972152
5.68,-0.0002326577392,0.0006828258408
5.69,-0.0002076642355,0.0006970371569
5.7,-0.0001816706327,0.0007104574934
5.71,-0.000154694002,0.0007230125772
5.72,-0.0001267569472,0.000734627932
5.73,-9.788766087E-05,0.0007452292827
5.74,-6.811995156E-05,0.0007547429658
5.75,-3.749324139E-05,0.000763096342
5.76,-6.052534569E-06,0.000770218208
5.77,2.61516437E-05,0.0007760392087
5.78,5.90633376E-05,0.0007804922439
5.79,9.262128003E-05,0.0007835128702
5.8,0.0001267590404,0.0007850396948
5.81,0.0001614052006,0.0007850147598
5.82,0.0001964835577,0.0007833839151
5.83,0.0002319133538,0.000780097177
5.84,0.0002676095306,0.0007751090726
5.85,0.0003034830088,0.000768378966
5.86,0.0003394409904,0.0007598713672
5.87,0.000375387283,0.0007495562194
5.88,0.0004112226446,0.0007374091656
5.89,0.0004468451469,0.0007234117915
5.9,0.0004821505568,0.0007075518443
5.91,0.0005170327325,0.0006898234262
5.92,0.0005513840346,0.0006702271606
5.93,0.0005850957483,0.000648770332
5.94,0.000618058517,0.0006254669962
5.95,0.0006501627828,0.0006003380632
5.96,0.0006812992349,0.0005734113488
5.97,0.0007113592609,0.000544721598
5.98,0.000740235402,0.0005143104773
5.99,0.0007678218069,0.0004822265367
6,0.0007940146856,0.0004485251422
