"Freq [GHz]","re(S(Antenna1_1_p1,Antenna1_1_p1)) []","im(S(Antenna1_1_p1,Antenna1_1_p1)) []"
3,0.100458396392387,-0.085178774148587
3.002,0.100227608583,-0.0873048061621278
3.004,0.0998993710419265,-0.089467577487213
3.006,0.0994655155455175,-0.0916683484168325
3.008,0.0989128242400517,-0.0938881295930777
3.01,0.0982587522532745,-0.0961293830108913
3.012,0.0974843773659965,-0.0983721721452454
3.014,0.0965985401537069,-0.10061914793968
3.016,0.0955826533881895,-0.102861677883087
3.018,0.0944649644392424,-0.105083673444679
3.02,0.0932348129663935,-0.107278135645505
3.022,0.0918825080706598,-0.109434757767112
3.024,0.0904229413863809,-0.111557909070568
3.026,0.0888466730331175,-0.113622559920792
3.028,0.0871768577775956,-0.115630162930353
3.03,0.0854201737557071,-0.117568475712811
3.032,0.0835565691846373,-0.119436325401385
3.034,0.0815940269250112,-0.12122570894926
3.036,0.0795669951741525,-0.122924200254279
3.038,0.0774485397544368,-0.124529809565175
3.04,0.0752655866567017,-0.126036650957268
3.042,0.073026412818807,-0.127449292851676
3.044,0.07073181324024,-0.128746475554039
3.046,0.0683859004018701,-0.129933506322736
3.048,0.065997469352786,-0.131004127416616
3.05,0.0635826275412692,-0.131964222962254
3.052,0.061146567627258,-0.132809697730705
3.054,0.05870132622355,-0.133532503793839
3.056,0.0562604351511328,-0.134154990950182
3.058,0.0538082166086504,-0.134632569570212
3.06,0.0513819557589762,-0.13501288935134
3.062,0.0489679002465629,-0.135289458842313
3.064,0.0465869891672852,-0.135442554677263
3.066,0.0442531181124716,-0.135488651319194
3.068,0.0419472919760752,-0.135424179253156
3.07,0.0397098185239626,-0.1352647043689
3.072,0.0375298259894154,-0.135013827943082
3.074,0.0354231216797382,-0.134674855214131
3.076,0.0333740350550651,-0.134255798502602
3.078,0.0314151849353133,-0.133757030273142
3.08,0.0295278756852896,-0.133202424919073
3.082,0.0277388772900308,-0.13257503327949
3.084,0.026037831070247,-0.131903878109999
3.086,0.0244242834879667,-0.131184239095127
3.088,0.0229096597424046,-0.130424226102151
3.09,0.0215076754259499,-0.129646865955469
3.092,0.020190143960368,-0.128841913270025
3.094,0.0189671476132107,-0.128022783985958
3.096,0.0178477231544003,-0.127203968724094
3.098,0.0168406026829856,-0.126385554291897
3.1,0.0159025049441464,-0.125597038980316
3.102,0.0150834705163232,-0.12482737775408
3.104,0.0143372556788112,-0.124082651555592
3.106,0.013682913088891,-0.123376077395469
3.108,0.0131088831000803,-0.122706801297813
3.11,0.0126137574899295,-0.122105106301959
3.112,0.0121873808882531,-0.121536556716783
3.114,0.0118304983645584,-0.121052562811964
3.116,0.0115352531987158,-0.120627189042707
3.118,0.0112938235508076,-0.12029910835327
3.12,0.0110810384351886,-0.120017194750144
3.122,0.0109240735788488,-0.119836549224856
3.124,0.0107785867468793,-0.119731925736503
3.126,0.0106642700562858,-0.119716309223957
3.128,0.0105614039479227,-0.119794561557773
3.13,0.0104654862442671,-0.119957385851722
3.132,0.0103609442813201,-0.120223244464102
3.134,0.010252435079284,-0.120560194898731
3.136,0.010118299003521,-0.120988655915617
3.138,0.00995870157617483,-0.121505855411332
3.14,0.0097636242580765,-0.122111112129134
3.142,0.00952319774134423,-0.12279634543881
3.144,0.00921740120330222,-0.123561143406205
3.146,0.00887154977254882,-0.124388646172471
3.148,0.00844885628036578,-0.125298304673098
3.15,0.00796556685028789,-0.126260389996622
3.152,0.00740264806693698,-0.127283029285115
3.154,0.00674405626217696,-0.12835060143437
3.156,0.0059963179884208,-0.129469255846885
3.158,0.00517216266223433,-0.130615076611539
3.16,0.0042467474281932,-0.131793508563072
3.162,0.003207883362996,-0.132990053464263
3.164,0.0020793971997852,-0.13420232651996
3.166,0.0008422464228009,-0.13542664022677
3.168,-0.0004852089877878,-0.136630084777614
3.17,-0.0019449451107379,-0.137829034141821
3.172,-0.003477648368365,-0.138997982663584
3.174,-0.005130618280902,-0.140141245990355
3.176,-0.0068933656205904,-0.141237233725713
3.178,-0.0087490471055646,-0.142309954192705
3.18,-0.0106869300233719,-0.143308380259031
3.182,-0.0127341333743407,-0.144237215751046
3.184,-0.0148669051346394,-0.145108849422555
3.186,-0.0170759336590488,-0.145910862524373
3.188,-0.0193687856335233,-0.14661739518075
3.19,-0.0217370581374359,-0.147231861292557
3.192,-0.0241734339556117,-0.147744110888312
3.194,-0.0266590733300576,-0.148173384551998
3.196,-0.0292055638454375,-0.148481146336725
3.198,-0.0317909501682961,-0.148687150258217
3.2,-0.0344217009839762,-0.148780009318068
3.202,-0.0370622548403491,-0.148739471166932
3.204,-0.039736030880184,-0.148596835117445
3.206,-0.0424196966018099,-0.148326249567038
3.208,-0.0451023670176999,-0.147936838940586
3.21,-0.0477809083290784,-0.14740537748289
3.212,-0.0504336125182741,-0.146782647771009
3.214,-0.0530766368292763,-0.146017040956442
3.216,-0.0556775366530783,-0.145158447047167
3.218,-0.0582353210679802,-0.144168201149524
3.22,-0.0607454874078896,-0.143066344950005
3.222,-0.0632047762913105,-0.141847311576815
3.224,-0.0655992599461017,-0.140529610971418
3.226,-0.0679192503269182,-0.13913289488985
3.228,-0.0701544369664161,-0.137629472003954
3.23,-0.0723115418302065,-0.136035354912507
3.232,-0.0743665044534913,-0.134362397161175
3.234,-0.0763342352174804,-0.132614927325403
3.236,-0.078194761465483,-0.130800879273159
3.238,-0.0799506496188185,-0.128920176736569
3.24,-0.0816124178323694,-0.127007200372458
3.242,-0.0831433388899061,-0.125046000709793
3.244,-0.0845648788791684,-0.123052644417981
3.246,-0.085878505546613,-0.121027705518198
3.248,-0.0870730092019803,-0.118991743685137
3.25,-0.0881375885124992,-0.116950461114781
3.252,-0.0890968515569234,-0.114903924757633
3.254,-0.0899453798492231,-0.112876733459938
3.256,-0.0906838636020309,-0.110858078398383
3.258,-0.0912984940998637,-0.108875100127805
3.26,-0.091814218822013,-0.106928033684794
3.262,-0.0922257474652309,-0.105022076482253
3.264,-0.0925445473561025,-0.103166619542867
3.266,-0.0927683878931733,-0.101370416540483
3.268,-0.0928984778488425,-0.099639307833469
3.27,-0.0929486050859247,-0.097984432397985
3.272,-0.09292820711203,-0.096397908707156
3.274,-0.0928425363695963,-0.094904471160265
3.276,-0.0926962227237412,-0.093486549401829
3.278,-0.0924955532467944,-0.092169217090619
3.28,-0.0922495922275796,-0.090938027078684
3.282,-0.0919723537104739,-0.089804095330279
3.284,-0.0916640960129423,-0.088770623150745
3.286,-0.0913451537035687,-0.087846744955387
3.288,-0.0910144699518109,-0.087010163278274
3.29,-0.0906798724249762,-0.086273605711023
3.292,-0.0903532993069712,-0.085639855991529
3.294,-0.0900520216884589,-0.085105082912683
3.296,-0.089772014210602,-0.084665567761055
3.298,-0.0895153574120166,-0.084315667175541
3.3,-0.0893175638964852,-0.084058557815977
3.302,-0.089163461527401,-0.0838837867217829
3.304,-0.089064071503971,-0.0837880829804987
3.306,-0.089033344058186,-0.0837653497863946
3.308,-0.089070605388481,-0.0838150655990116
3.31,-0.089183027386183,-0.083922150924678
3.312,-0.089384597561738,-0.0840864350291005
3.314,-0.089676654480602,-0.0843044500648205
3.316,-0.090035349318956,-0.0845419343777823
3.318,-0.090505675209156,-0.0848185150218324
3.32,-0.091068936424918,-0.0851199341642342
3.322,-0.091743551676244,-0.0854277763851902
3.324,-0.092505951884161,-0.0857502578465509
3.326,-0.093372537005144,-0.0860632652404426
3.328,-0.094346524265334,-0.0863633742515907
3.33,-0.095416749964514,-0.0866424029091052
3.332,-0.096594785099803,-0.0868822210298989
3.334,-0.097862426049151,-0.0870901883421291
3.336,-0.099227815714604,-0.0872461591057856
3.338,-0.100680595805247,-0.0873438008582834
3.34,-0.102226081050002,-0.0873752080831442
3.342,-0.103845731770126,-0.0873344064496365
3.344,-0.105547184881499,-0.0872163776624825
3.346,-0.107318676076659,-0.0870051147945703
3.348,-0.109152354846631,-0.0867079400857129
3.35,-0.111042774471474,-0.086302446451455
3.352,-0.112980519016631,-0.0857899193318617
3.354,-0.114961881699032,-0.0851826154204176
3.356,-0.116966255395974,-0.0844492740428962
3.358,-0.119001641943741,-0.0836077759963293
3.36,-0.121049429945048,-0.0826375814779887
3.362,-0.123099552285194,-0.0815490966344171
3.364,-0.125147183790234,-0.0803446743805198
3.366,-0.127177795135697,-0.0790051283286916
3.368,-0.129184444824099,-0.0775529093280128
3.37,-0.131163956247204,-0.0759796670234807
3.372,-0.133093695548098,-0.0742821663953162
3.374,-0.134976560154788,-0.0724732967183304
3.376,-0.136795949174842,-0.0705510882213154
3.378,-0.138548406759772,-0.0685215184265588
3.38,-0.14022943013718,-0.0663891152893595
3.382,-0.141812033280734,-0.0641527271176676
3.384,-0.143303991549887,-0.0618289145517444
3.386,-0.144695105003414,-0.059418832473935
3.388,-0.145987657616689,-0.0569314676904745
3.39,-0.147154581028798,-0.0543732978513831
3.392,-0.148219400869399,-0.0517550939154763
3.394,-0.149148697555402,-0.0490820223573839
3.396,-0.149954263647427,-0.0463669104657036
3.398,-0.150638223366031,-0.0436179708301993
3.4,-0.151183410177788,-0.0408409748741265
3.402,-0.151602890471073,-0.0380462797146512
3.404,-0.151879104061757,-0.0352535728230835
3.406,-0.152031355628559,-0.0324562615549242
3.408,-0.152039241148336,-0.02968434650305
3.41,-0.151922521191074,-0.0269254812046889
3.412,-0.151671708914713,-0.0242144783022155
3.414,-0.151301970779788,-0.0215316876440991
3.416,-0.15080771043385,-0.0189074569439436
3.418,-0.150194453995692,-0.0163462563746081
3.42,-0.149465427829408,-0.0138471940314765
3.422,-0.148635308758225,-0.0114333335137805
3.424,-0.147701929938167,-0.009102485874063
3.426,-0.146676499851508,-0.0068654332297225
3.428,-0.145568730187079,-0.0047243915846846
3.43,-0.144378168760331,-0.0026858041711962
3.432,-0.143121352150248,-0.000764774541692402
3.434,-0.141811293035069,0.0010607094491964
3.436,-0.140446154926843,0.0027507114325132
3.438,-0.139042488047747,0.0043241106327546
3.44,-0.137603336727315,0.0057830992454898
3.442,-0.136148853219795,0.0071106381149245
3.444,-0.134677934611002,0.0083234142412631
3.446,-0.133211536327934,0.00940552819801339
3.448,-0.131758761982294,0.0103656690891348
3.45,-0.130321889699751,0.0112084480060523
3.452,-0.128913550388694,0.0119309471545778
3.454,-0.127536751605179,0.0125446582816536
3.456,-0.126214686337762,0.0130430725420192
3.458,-0.124942130406086,0.0134398757446751
3.46,-0.123741037043375,0.0137392272693084
3.462,-0.12260172297974,0.0139444409024702
3.464,-0.121551554563315,0.0140583523537169
3.466,-0.12058746375024,0.01410402267254
3.468,-0.119713232184509,0.0140744984522047
3.47,-0.11893399949762,0.0139829158344226
3.472,-0.118250482088117,0.0138451186218729
3.474,-0.11767642254093,0.0136580915276166
3.476,-0.117214216396626,0.0134381145763116
3.478,-0.116855160390446,0.0131962301043468
3.48,-0.116610629731248,0.0129373039752556
3.482,-0.116484483330277,0.0126808057810513
3.484,-0.116463062489791,0.0124212252058373
3.486,-0.116559907941562,0.0121890444813406
3.488,-0.116763305435227,0.0119726778817411
3.49,-0.117069357666493,0.0117970498103574
3.492,-0.117477917895232,0.0116630937076897
3.494,-0.117992360133395,0.0115912179222793
3.496,-0.118600753772865,0.011573842161463
3.498,-0.119291960953101,0.0116304330138831
3.5,-0.120070991068696,0.0117658709009316
3.502,-0.120918827186824,0.0119852924949651
3.504,-0.121837834534503,0.0123012752823738
3.506,-0.122820290310821,0.0127146679565141
3.508,-0.123845430394933,0.0132387015204342
3.51,-0.124918414265048,0.0138656587494722
3.512,-0.126023214140218,0.0146017662436368
3.514,-0.127150862262046,0.0154619831499
3.516,-0.128286869526291,0.0164430089442318
3.518,-0.129434488483824,0.0175445095935331
3.52,-0.130573737009516,0.0187623875173474
3.522,-0.131684555008488,0.0201002396994514
3.524,-0.13277792878827,0.0215554941792149
3.526,-0.133829851107351,0.0231359490328455
3.528,-0.134843797947635,0.0248318017744167
3.53,-0.135796694732279,0.0266295154067345
3.532,-0.136677847781472,0.0285512688020362
3.534,-0.137483093832063,0.0305645886524984
3.536,-0.138199731508135,0.0326786944505535
3.538,-0.138832582799494,0.034891791489104
3.54,-0.13936708750802,0.0371741872314222
3.542,-0.139793076223001,0.0395379869910213
3.544,-0.14010019214631,0.0419786152412127
3.546,-0.14029664104755,0.0444712776465896
3.548,-0.140366780929099,0.0470241576592344
3.55,-0.140304531501067,0.0496104834978438
3.552,-0.140114350296199,0.0522231485215516
3.554,-0.139791339094678,0.0548652131916826
3.556,-0.139332246708874,0.0575201681452487
3.558,-0.138735775108016,0.0601757179104887
3.56,-0.137994244672794,0.0628183633570024
3.562,-0.137128293869887,0.0654422141037256
3.564,-0.136111957766437,0.0680335923187101
3.566,-0.134975233084482,0.0705834780796854
3.568,-0.13370747691527,0.0730899644042709
3.57,-0.132309610103569,0.0755353163792099
3.572,-0.130793131381901,0.0779118605193531
3.574,-0.129152169264728,0.0802066645375179
3.576,-0.127412233892573,0.0824178298221303
3.578,-0.125564827886098,0.084532908866669
3.58,-0.123619751880155,0.0865433842459463
3.582,-0.121587583017755,0.0884491999521691
3.584,-0.119468182032027,0.090236460790838
3.586,-0.117293254678117,0.0919139330464247
3.588,-0.115041822983043,0.0934552589678896
3.59,-0.112747411418549,0.0948713544239944
3.592,-0.110414680890871,0.0961582335584159
3.594,-0.108044895350522,0.0973079066446786
3.596,-0.105653561557121,0.0983210694308876
3.598,-0.103254420839576,0.0991897555343024
3.6,-0.100852601568798,0.0999255067456428
3.602,-0.098454160697316,0.100530410963311
3.604,-0.096084072249454,0.100995313367309
3.606,-0.093745986180802,0.101331405733068
3.608,-0.091441263699851,0.101538514315005
3.61,-0.0891856321445481,0.101613705779927
3.612,-0.0869860577228813,0.101584399420241
3.614,-0.08485978182643,0.101435862876968
3.616,-0.0828112573939138,0.101177770852559
3.618,-0.0808430237487556,0.100813722993539
3.62,-0.0789578644225832,0.100361961552946
3.622,-0.0771808494888115,0.0998246518525597
3.624,-0.0754947009461408,0.0992165499069854
3.626,-0.0739223351421196,0.0985332663755147
3.628,-0.0724703929766849,0.0977930306918085
3.63,-0.0711217980057032,0.0970053805503693
3.632,-0.0699046536345401,0.0961726804038583
3.634,-0.0687863139616142,0.0953125215992071
3.636,-0.0678014782720088,0.0944380670991139
3.638,-0.066945457631026,0.0935537563948041
3.64,-0.0662107795578427,0.0926734207415675
3.642,-0.0655836493091157,0.0917940629731043
3.644,-0.0650850384626463,0.0909480082906958
3.646,-0.0647013041110528,0.0901281401596065
3.648,-0.0644299943954769,0.0893459784728645
3.65,-0.0642626766593152,0.0886172193218599
3.652,-0.0642008874719752,0.087954533609808
3.654,-0.0642330984026551,0.087348614867948
3.656,-0.0643585762441943,0.086818230127621
3.658,-0.0645646638069053,0.086370426297148
3.66,-0.0648468441324804,0.086021738670507
3.662,-0.0651983113739445,0.085758838475842
3.664,-0.0656086936256043,0.085592046823797
3.666,-0.0660691660880947,0.085533867275651
3.668,-0.0665666625604271,0.085583414441292
3.67,-0.0670972545641147,0.085750222607007
3.672,-0.0676502144923519,0.086025754283068
3.674,-0.0682129495032932,0.086421161651169
3.676,-0.0687785020874499,0.086930168961703
3.678,-0.0693316385450144,0.087557794520789
3.68,-0.0698738816802285,0.088297150257218
3.682,-0.0703786551893316,0.089151515729147
3.684,-0.0708513312219687,0.090116938210662
3.686,-0.0712678019561483,0.091195595628165
3.688,-0.071635581734882,0.092375976326555
3.69,-0.0719344102658625,0.093653335055286
3.692,-0.0721603210912549,0.095024639694221
3.694,-0.072300025358515,0.096486521989341
3.696,-0.0723484274553013,0.098029029848246
3.698,-0.0722957103344635,0.099645703725544
3.7,-0.072159067889104,0.10132309920803
3.702,-0.0718922170677052,0.103061223086723
3.704,-0.0715241599093483,0.104849154576724
3.706,-0.0710296404890189,0.106674797273918
3.708,-0.0704201783329834,0.108534087175536
3.71,-0.0696777572142514,0.1104099945995
3.712,-0.0688194850081272,0.112298711418676
3.714,-0.067827109987879,0.114187474145238
3.716,-0.0666990196904147,0.116064789172981
3.718,-0.0654539441021621,0.117922923382269
3.72,-0.0640762256949527,0.119749017064434
3.722,-0.0625810290620388,0.121539728813807
3.724,-0.060962527944209,0.123280153035697
3.726,-0.0592228292359882,0.124962037835529
3.728,-0.0573668453619552,0.126570395272823
3.73,-0.0554061405631279,0.128103270255062
3.732,-0.0533400268635063,0.129553938501342
3.734,-0.0511797225366625,0.130909606644959
3.736,-0.0489334608924823,0.132163029437801
3.738,-0.0465964719939859,0.133305380652592
3.74,-0.0441921522642767,0.134335628345037
3.742,-0.0417196930635766,0.13525142530579
3.744,-0.039189941993405,0.1360462997123
3.746,-0.0366163608808577,0.136691420100493
3.748,-0.0340039930039832,0.13723034793637
3.75,-0.031362570126317,0.137623360857433
3.752,-0.0287020146284924,0.137875450413967
3.754,-0.0260405461049863,0.137994028370228
3.756,-0.0233809034460003,0.137973889535486
3.758,-0.0207326470144503,0.137814554914918
3.76,-0.0181079866800652,0.137518593560421
3.762,-0.0155169959526571,0.137090435611226
3.764,-0.0129665509364565,0.136530951354489
3.766,-0.0104715715586317,0.135844165495677
3.768,-0.0080434515408991,0.135037118838851
3.77,-0.0056791179752739,0.134105107226864
3.772,-0.0033949701689708,0.133069647181422
3.774,-0.0012008054914069,0.131929566092995
3.776,0.000895606702636201,0.130685593890683
3.778,0.0028961822437303,0.129351406451911
3.78,0.0047853084683746,0.127940041552047
3.782,0.0065635462394344,0.126451790564885
3.784,0.0082218431364397,0.124895779969062
3.786,0.00975177198575378,0.12329034962431
3.788,0.0111643275905819,0.121634169680673
3.79,0.0124435122708545,0.119946299152565
3.792,0.0135994992329593,0.118229728168454
3.794,0.0146171225193377,0.116499529139747
3.796,0.0155006962679187,0.114764016507083
3.798,0.0162617326114331,0.113026481684006
3.8,0.0168915167865532,0.111309369273077
3.802,0.0173923512729092,0.109619165363191
3.804,0.017768716061936,0.107966461922454
3.806,0.0180245468855755,0.106352434956585
3.808,0.0181621820248525,0.104793568245074
3.81,0.0181920849582498,0.103298932440413
3.812,0.0181156511799829,0.101873570678143
3.814,0.0179416501180902,0.100529977519862
3.816,0.0176754792923718,0.099265295311147
3.818,0.0173265715921842,0.098100416109396
3.82,0.0169025666670711,0.097033033081597
3.822,0.0164158695962572,0.096068254372044
3.824,0.0158602734989409,0.095207323739941
3.826,0.0152646091484711,0.094466339276983
3.828,0.0146305052513591,0.093836575974835
3.83,0.0139627567901134,0.093328038962572
3.832,0.0132865469478344,0.09293868875403
3.834,0.012591362202221,0.092671138845142
3.836,0.0119038880709614,0.092526287021143
3.838,0.0112216068429229,0.092494791793797
3.84,0.0105637088216799,0.092586627568522
3.842,0.0099383824445272,0.092794253361449
3.844,0.0093563242061687,0.093113567956506
3.846,0.008823201757273,0.093543117762342
3.848,0.008352332198873,0.094074031779313
3.85,0.0079521951605855,0.094702991906336
3.852,0.007620769792659,0.09543103578777
3.854,0.0073837844278963,0.096239760150213
3.856,0.0072296578563614,0.097130727779251
3.858,0.0071777109499444,0.098087388606237
3.86,0.007228535036777,0.099108552560943
3.862,0.0073884031154504,0.10018215258926
3.864,0.0076628933990784,0.101300592737821
3.866,0.0080513227592071,0.102456255590613
3.868,0.0085634022195446,0.103634880736543
3.87,0.0091985205595121,0.104827153367022
3.872,0.0099541045076653,0.106021031172202
3.874,0.0108314026649071,0.107214189953894
3.876,0.0118386123275539,0.108393173408267
3.878,0.0129617989602417,0.10953631036113
3.88,0.0142157851686352,0.110649374911995
3.882,0.0155815056120098,0.111720108532816
3.884,0.0170598588656259,0.112732635145439
3.886,0.0186508507229743,0.113676845064021
3.888,0.0203438073378174,0.114551042354479
3.89,0.0221369445760879,0.115337604699916
3.892,0.0240285930976088,0.116035722694054
3.894,0.0259997824976607,0.116635683643631
3.896,0.0280477954883541,0.11712746753488
3.898,0.0301699992398694,0.117506167119923
3.9,0.0323526341605106,0.117766629623221
3.902,0.0345840277405812,0.117908125348045
3.904,0.0368600245971329,0.117920436012914
3.906,0.0391680549865004,0.117802571998086
