"Freq [GHz]","re(S(Antenna1_1_p1,Antenna1_1_p1)) []","im(S(Antenna1_1_p1,Antenna1_1_p1)) []"
3,0.0955109750823872,-0.067307702376587
3.002,0.0967412154229999,-0.0690883837991278
3.004,0.0978952693219265,-0.071032486368213
3.006,0.0989492123755175,-0.0731287404218325
3.008,0.0998916978900517,-0.0753644898060777
3.01,0.100545295573275,-0.0777884342228913
3.012,0.101423908685997,-0.0802485088172454
3.014,0.101846848253707,-0.08288028932384
3.016,0.102249609108189,-0.085596373193087
3.018,0.102640944489242,-0.088414098176679
3.02,0.102717789666393,-0.091323122622505
3.022,0.10261924588066,-0.094293692029112
3.024,0.102346194346381,-0.097328083360568
3.026,0.101890057733118,-0.100391926754792
3.028,0.101239158147596,-0.103484478211353
3.03,0.100416298955707,-0.106606600750811
3.032,0.0993769442946373,-0.109711277385385
3.034,0.0980520537050112,-0.11269646412626
3.036,0.0967591133931525,-0.115861288408279
3.038,0.0951522754734368,-0.118875062848175
3.04,0.0933755624507017,-0.121816963385268
3.042,0.091415438752807,-0.124697465441676
3.044,0.08927757881324,-0.127473657034039
3.046,0.0869793658438701,-0.130170389692736
3.048,0.084519606237786,-0.132735318346616
3.05,0.0819119541622692,-0.135171458392254
3.052,0.079167189321858,-0.137489912600705
3.054,0.07628795991155,-0.139645313263839
3.056,0.0732976531801328,-0.141663396130182
3.058,0.0702032813136504,-0.143487006070212
3.06,0.0670505751889762,-0.14498227635134
3.062,0.0637266297575629,-0.146647312182313
3.064,0.0603963037352852,-0.147948675617263
3.066,0.0570088345214716,-0.149065015039194
3.068,0.0535850390710752,-0.149989816293156
3.07,0.0501357741405906,-0.1507201825289
3.072,0.0466890303654154,-0.151260914183082
3.074,0.0432470523837382,-0.151606479041131
3.076,0.0398191696400651,-0.151765391408602
3.078,0.0365560539503133,-0.151644266642142
3.08,0.0332414365052896,-0.151434229140073
3.082,0.0298222859800308,-0.15112771784249
3.084,0.026627992770247,-0.150568044840999
3.086,0.0236867519579667,-0.149782800548127
3.088,0.0205039967724046,-0.148946019586151
3.09,0.0176176606759499,-0.147920904785669
3.092,0.014859148490368,-0.146752061533825
3.094,0.0123700640832107,-0.145459554401958
3.096,0.0097286696244003,-0.144042077553094
3.098,0.0073795580629856,-0.142527415678897
3.1,0.0051740384441464,-0.140919801586316
3.102,0.0031727793263232,-0.13924588511308
3.104,0.0013116792788112,-0.137509385908592
3.106,-0.000377442841109001,-0.135719508882469
3.108,-0.0019145399299197,-0.133885264766013
3.11,-0.0032453875600705,-0.132051910526959
3.112,-0.0044200897817469,-0.130186852852783
3.114,-0.0054226788444416,-0.128345610232964
3.116,-0.0062458407682842,-0.126528169731707
3.118,-0.0069149685851924,-0.12474191660827
3.12,-0.0074175625098114,-0.122992253500144
3.122,-0.0077706917501512,-0.121326246354856
3.124,-0.0079687233381207,-0.119724057436503
3.126,-0.0080207086197142,-0.118216268983957
3.128,-0.0079509115450773,-0.116798564707773
3.13,-0.0077536423482329,-0.115500098511722
3.132,-0.00744544330667992,-0.114320671794102
3.134,-0.007033291090716,-0.113258606878731
3.136,-0.00654782973247901,-0.112473510365617
3.138,-0.00594396872482517,-0.111533986671332
3.14,-0.0052998061489235,-0.110898805609134
3.142,-0.00459837038865577,-0.11042042839881
3.144,-0.00387389751569778,-0.110093352826205
3.146,-0.00310582263345118,-0.109913304792471
3.148,-0.00234267091313422,-0.109914595773098
3.15,-0.00156186173371211,-0.110054343756622
3.152,-0.00080320663206302,-0.110376597613115
3.154,-7.08367058230401E-05,-0.11083232472237
3.156,0.000580722286420799,-0.111464668201885
3.158,0.00121070275223433,-0.112230968224539
3.16,0.0017797498581932,-0.113151969176072
3.162,0.002214491362996,-0.114208284892263
3.164,0.0025846687297852,-0.11538953859596
3.166,0.0028572532228009,-0.11671140919377
3.168,0.0029955650622122,-0.118133750962574
3.17,0.0030092399192621,-0.119650460365821
3.172,0.002739554831635,-0.121279121139584
3.174,0.002446740609098,-0.122967883528355
3.176,0.0022228625394096,-0.124750977350713
3.178,0.0016553468644354,-0.126589629116705
3.18,0.000928677536628102,-0.128472982219031
3.182,2.59054256592992E-05,-0.130372066819046
3.184,-0.0010456111146394,-0.132299518795555
3.186,-0.0022789394490488,-0.134231282082173
3.188,-0.0036904592835233,-0.13616004284675
3.19,-0.0053876211074359,-0.137931927392557
3.192,-0.0070211335956117,-0.139882827619312
3.194,-0.0089385077600576,-0.141708201203998
3.196,-0.0111096248714375,-0.143301884199725
3.198,-0.0132620686302961,-0.145108627948217
3.2,-0.0157323595779762,-0.146515616738068
3.202,-0.0181926262673491,-0.148129312136932
3.204,-0.020920957043184,-0.149297288007445
3.206,-0.0236779316123099,-0.150714788367038
3.208,-0.0266108792534999,-0.151800268070586
3.21,-0.0296457665070784,-0.15273220420289
3.212,-0.0327738198342741,-0.153518610371009
3.214,-0.0359709275462763,-0.153980315236442
3.216,-0.0392932547930783,-0.154594967717167
3.218,-0.0426477408189802,-0.154882013829524
3.22,-0.0460555235628896,-0.154982856190005
3.222,-0.0494939083243105,-0.154906647556815
3.224,-0.0529546478431017,-0.154630519391418
3.226,-0.0564333570409382,-0.15418778493985
3.228,-0.0598891435934161,-0.153540589823954
3.23,-0.0633407108772065,-0.152720001382507
3.232,-0.0666021843354913,-0.151591178502175
3.234,-0.0700897298864804,-0.150496348798403
3.236,-0.073384842035483,-0.149140852666159
3.238,-0.0766098429888185,-0.147590242270569
3.24,-0.0797418432323694,-0.145881574817458
3.242,-0.0827735830899061,-0.144013468903793
3.244,-0.0856927748591684,-0.141997874897981
3.246,-0.088502108646613,-0.139831691270128
3.248,-0.0910015966919803,-0.137529267082137
3.25,-0.0935207108024992,-0.135131727057781
3.252,-0.0960659725269234,-0.132587860632633
3.254,-0.0982888998092231,-0.129962034693938
3.256,-0.100351498472031,-0.127238715656383
3.258,-0.102226383239864,-0.124452075626805
3.26,-0.103784412292013,-0.121673472514794
3.262,-0.105482420975231,-0.118689247149253
3.264,-0.106839941646102,-0.115761530286867
3.266,-0.108014219003173,-0.112799190309983
3.268,-0.109003680578842,-0.109848524626469
3.27,-0.109821566360925,-0.106897350659985
3.272,-0.11044531741403,-0.103961317777156
3.274,-0.110919814320596,-0.101059021422265
3.276,-0.111207413311741,-0.098219172991829
3.278,-0.111328884447794,-0.095430184840619
3.28,-0.11130047893858,-0.092705629508684
3.282,-0.111102989353474,-0.090075308490279
3.284,-0.110777062481142,-0.087524911490745
3.286,-0.110311204619069,-0.085103215895387
3.288,-0.109709776512811,-0.083033818928274
3.29,-0.109003744444976,-0.080597717291023
3.292,-0.108188518763971,-0.078548214581529
3.294,-0.107282358982459,-0.076621385432683
3.296,-0.106297775393602,-0.074851219991055
3.298,-0.105227795693017,-0.073226895885541
3.3,-0.104124641016485,-0.071765690005977
3.302,-0.102974736884401,-0.0704565665217829
3.304,-0.101783683176571,-0.0692999964404987
3.306,-0.100587813154186,-0.0683241882463946
3.308,-0.099386236907481,-0.0675037021090116
3.31,-0.098195122288183,-0.066838753961678
3.312,-0.097021353124738,-0.0663247465101005
3.314,-0.095907269378602,-0.0659680746108205
3.316,-0.094994060018956,-0.0658598422497823
3.318,-0.093821767519156,-0.0657278637908324
3.32,-0.093076424444918,-0.0658667745542342
3.322,-0.092030844416244,-0.0660059587251902
3.324,-0.091278015494161,-0.0663545309723709
3.326,-0.090605156165144,-0.0668045473864426
3.328,-0.090089083595334,-0.0673587940085907
3.33,-0.089684595874514,-0.0680089411091052
3.332,-0.089413117069803,-0.0687394353358989
3.334,-0.089263828679151,-0.0695532649531291
3.336,-0.089294094954604,-0.0704150489047856
3.338,-0.089438717535247,-0.0713217387912834
3.34,-0.089733506250002,-0.0722705262171442
3.342,-0.090219598770126,-0.0732274869166365
3.344,-0.090839153821499,-0.0742090546548825
3.346,-0.091615263376659,-0.0751798860095703
3.348,-0.092558287576631,-0.0761230399597129
3.35,-0.093646398982474,-0.077042669501455
3.352,-0.094891112356631,-0.0779122677868617
3.354,-0.096384109494032,-0.0785646934804176
3.356,-0.097825655872974,-0.0794731116028962
3.358,-0.099502531345741,-0.0801365640763293
3.36,-0.101324590549048,-0.0806989912979887
3.362,-0.103249478464194,-0.0811542876544171
3.364,-0.105324568297034,-0.0813085393605198
3.366,-0.107463595697697,-0.0817352217886916
3.368,-0.109715628210099,-0.0818041481980128
3.37,-0.112028884821204,-0.0815594465234807
3.372,-0.114473519730098,-0.0815591320653162
3.374,-0.116890864246788,-0.0809847884383304
3.376,-0.119482520360842,-0.0806483912213154
3.378,-0.121959343284772,-0.0797541114065588
3.38,-0.12465583135218,-0.0790965549393595
3.382,-0.127138415892734,-0.0778977619076676
3.384,-0.129858957892087,-0.0768574891917444
3.386,-0.132448620325414,-0.075486505863935
3.388,-0.135016793614689,-0.0739271316684745
3.39,-0.137347326049798,-0.0720675180913831
3.392,-0.139840976697399,-0.0702053770504763
3.394,-0.142416027775402,-0.0682628178653839
3.396,-0.144711857137427,-0.0660368540577036
3.398,-0.146964951766031,-0.0636716722611993
3.4,-0.149075978607788,-0.0611647210021265
3.402,-0.150881129151073,-0.0584739152796012
3.404,-0.152964159611757,-0.0557254673660835
3.406,-0.154718041218559,-0.0528123220479242
3.408,-0.156315790598336,-0.04980509426605
3.41,-0.157766855411074,-0.0466801812266889
3.412,-0.159056273304713,-0.0434866885722155
3.414,-0.160187916749788,-0.0401998149110991
3.416,-0.16114263558385,-0.0368576639059436
3.418,-0.161743681555692,-0.0335488701556081
3.42,-0.162354614619408,-0.0301299247674765
3.422,-0.162946699128225,-0.0265635435207805
3.424,-0.163188396758167,-0.023087204558963
3.426,-0.163235746081508,-0.0196240533497225
3.428,-0.163114081620079,-0.0161632121756846
3.43,-0.162681020768331,-0.0129059547941962
3.432,-0.162311406806248,-0.0093615928956924
3.434,-0.161657039102069,-0.0060115313008036
3.436,-0.160825425854843,-0.0027588909374868
3.438,-0.159831632506747,0.0004278375227546
3.44,-0.158678396255315,0.0035272351254898
3.442,-0.157376784575395,0.0065005554549245
3.444,-0.155929378771002,0.0093901181312631
3.446,-0.154354530176934,0.0121272865780134
3.448,-0.152665215330294,0.0147480610491348
3.45,-0.150861419171751,0.0172200655760523
3.452,-0.149015197716694,0.0193570207145778
3.454,-0.147037321584179,0.0215408635816536
3.456,-0.144901766406762,0.0237525426820192
3.458,-0.142759207203086,0.0256215680846751
3.46,-0.140588480567375,0.0272913205693084
3.462,-0.13837283585374,0.0288085308024702
3.464,-0.136134091869415,0.0301507080937169
3.466,-0.13387718788524,0.03133779041154
3.468,-0.131646827719509,0.0323294016092047
3.47,-0.12941999056962,0.0331578915004226
3.472,-0.127218226234117,0.0338254765148729
3.474,-0.12506225857093,0.0343301265336166
3.476,-0.122960534146626,0.0346679317943116
3.478,-0.120932039290446,0.0348554081663468
3.48,-0.118970954761248,0.0348989831257556
3.482,-0.117115512480277,0.0348109131200513
3.484,-0.115335118909791,0.0345769672428373
3.486,-0.113705690311562,0.0342344851783406
3.488,-0.112167447485227,0.0337733999757411
3.49,-0.110760370716493,0.0332149995233574
3.492,-0.109488313415232,0.0325621478226897
3.494,-0.108359265453395,0.0318460791772793
3.496,-0.107384107022865,0.031051395330463
3.498,-0.106529674643101,0.0301962760928831
3.5,-0.106046174618696,0.0294386114919316
3.502,-0.105351952436824,0.0284013090789651
3.504,-0.104987135254503,0.0274740047801738
3.506,-0.104783396805821,0.0265481006765141
3.508,-0.104733257768933,0.0256264738484342
3.51,-0.104845739893048,0.0247376856454722
3.512,-0.105110249105218,0.0238810710786368
3.514,-0.105525916277046,0.0230892594499
3.516,-0.106082773781291,0.0223464290542318
3.518,-0.106773604468324,0.0216911944135331
3.52,-0.107609866992516,0.0211125153073474
3.522,-0.108551605918488,0.0206375581794514
3.524,-0.10962466335727,0.0202622346592149
3.526,-0.110786998582351,0.0202772536428455
3.528,-0.112088952395635,0.0198902109344167
3.53,-0.113387874013279,0.0201155344167345
3.532,-0.114879695641472,0.0200598250120362
3.534,-0.116382631396063,0.0203505730824984
3.536,-0.117923124376135,0.0208113296205535
3.538,-0.119511587866494,0.021429348109104
3.54,-0.12099489788902,0.0223784230614222
3.542,-0.122759627622001,0.0231372792810213
3.544,-0.12438003217331,0.0242413560512127
3.546,-0.12599096883055,0.0255065486645896
3.548,-0.127583481650099,0.0269409388122344
3.55,-0.129101506773067,0.0285408857228438
3.552,-0.130604745912199,0.0302764094815516
3.554,-0.132044121084678,0.0321845255686826
3.556,-0.133371814488874,0.0342513972082487
3.558,-0.134623107338016,0.0364580455662887
3.56,-0.135768245702794,0.0387959759990024
3.562,-0.136572262729887,0.0412735182707256
3.564,-0.137701225586437,0.0438577158617101
3.566,-0.138479112114482,0.0465555927656854
3.568,-0.13912668684527,0.0493633826172709
3.57,-0.139596111093569,0.0522603981392099
3.572,-0.139925962461901,0.0552423733393531
3.574,-0.140062278774728,0.0582790000295179
3.576,-0.140049384702573,0.0613714412981303
3.578,-0.139870085926098,0.064522491114669
3.58,-0.139480398360155,0.0676730469559463
3.582,-0.138759754707755,0.0707044605231691
3.584,-0.138188656254027,0.074036766237838
3.586,-0.137278705290117,0.0772160394684247
3.588,-0.136172699577043,0.0803559383618896
3.59,-0.134779066259549,0.0832550225039944
3.592,-0.133345190749871,0.0863010414454159
3.594,-0.131813282801522,0.0895009363546786
3.596,-0.130018900973021,0.0924075916708876
3.598,-0.128060212071576,0.0952200848343024
3.6,-0.125956456966798,0.0979227358456428
3.602,-0.123683513094316,0.100522129553311
3.604,-0.121293532139454,0.102754995117309
3.606,-0.118763329010802,0.105319747393068
3.608,-0.116115123853851,0.107512612115005
3.61,-0.113358405324548,0.109536021449927
3.612,-0.110501249372881,0.111416222390241
3.614,-0.10756766602543,0.113143460896968
3.616,-0.104569305426914,0.114659488762559
3.618,-0.101507267006756,0.116005419913539
3.62,-0.0983957220945832,0.117179157842946
3.622,-0.0952610871178115,0.11816553596256
3.624,-0.0920961644121408,0.118965621444985
3.626,-0.0891334039211196,0.119434861165515
3.628,-0.0858021692756849,0.120006808263809
3.63,-0.0826725953297032,0.120258883565369
3.632,-0.0795944536755401,0.120315967492858
3.634,-0.0765526829716142,0.120196706737207
3.636,-0.0735807417020088,0.119913055838514
3.638,-0.070697803961026,0.119459882686804
3.64,-0.0678999998378427,0.118843329312567
3.642,-0.0651978307291157,0.118066677977104
3.644,-0.0626073185626463,0.117152779872696
3.646,-0.0601282766110528,0.116108373922607
3.648,-0.0580549137654769,0.114989821270864
3.65,-0.0556271623493152,0.11365294960186
3.652,-0.0538159079819752,0.112361181589808
3.654,-0.0517076933026551,0.110789890477948
3.656,-0.0499806061441943,0.109231280914621
3.658,-0.0484216140469053,0.107618458359148
3.66,-0.0470393684824804,0.105963177588507
3.662,-0.0458272098679445,0.104251287472842
3.664,-0.0447947246196043,0.102532251161797
3.666,-0.0439356668270947,0.100800001368651
3.668,-0.0432451331174271,0.099064558018292
3.67,-0.0427387528891147,0.097375443235007
3.672,-0.0423976005563519,0.095702493643068
3.674,-0.0422255157831932,0.094077417811169
3.676,-0.0422163283978499,0.092513637941703
3.678,-0.0423614908170144,0.091037308340789
3.68,-0.0426596092902285,0.089618136957218
3.682,-0.0430962162043316,0.088310376579147
3.684,-0.0436714709579687,0.087110079510662
3.686,-0.0443637417461483,0.086033926708165
3.688,-0.045176952084882,0.085081590666555
3.69,-0.0460910089358625,0.084249253675286
3.692,-0.0469871901012549,0.083840745884221
3.694,-0.048170644248515,0.083083044979341
3.696,-0.0493252358043013,0.082722420838246
3.698,-0.0505135782974635,0.082534390215544
3.7,-0.051758061766104,0.08251026979803
3.702,-0.0530173599677052,0.082653394829723
3.704,-0.0542925377573483,0.082968812126724
3.706,-0.0555675647090189,0.083462039331918
3.708,-0.0568159986549834,0.084121053809536
3.71,-0.0580319425372514,0.0849475155695
3.712,-0.0592117507181272,0.085944817061676
3.714,-0.060324609457879,0.087107116879918
3.716,-0.0610984316804147,0.088485465115981
3.718,-0.0623139227321621,0.089902749303269
3.72,-0.0631586045449527,0.091511916430434
3.722,-0.0639126295220388,0.093272429504807
3.724,-0.064532185964209,0.095155587785697
3.726,-0.0650222479859882,0.097162656887529
3.728,-0.0653594945719552,0.099269622092823
3.73,-0.0652700275231279,0.101381253335062
3.732,-0.0655965356035063,0.103770371391342
3.734,-0.0654623482366625,0.106131980944959
3.736,-0.0651634113824823,0.108553579513801
3.738,-0.0646750129239859,0.111022003613592
3.74,-0.0640166154942767,0.113511795584037
3.742,-0.0631676919335766,0.11603856064979
3.744,-0.062134304026405,0.1185603093553
3.746,-0.0609165300588577,0.121059994009493
3.748,-0.0593785662159832,0.12330377019237
3.75,-0.057919789169317,0.125985547018433
3.752,-0.0561459925744924,0.128355825693967
3.754,-0.0541974772789863,0.130668002730228
3.756,-0.0520771413900003,0.132891609145486
3.758,-0.0497929821624503,0.135042492674918
3.76,-0.0473479455870652,0.137033139230421
3.762,-0.0447527283786571,0.138922813521226
3.764,-0.0420165358644565,0.140684883824489
3.766,-0.0391505673426317,0.142299784425677
3.768,-0.0361629858808991,0.143755135818851
3.77,-0.0330696704552739,0.145031308386864
3.772,-0.0298814019789708,0.146168442081422
3.774,-0.0266035817314069,0.147107211972995
3.776,-0.0232708145003638,0.147857204920683
3.778,-0.0198683335772697,0.148417463211911
3.78,-0.0166125097476254,0.148578954192047
3.782,-0.0129751875545656,0.148937660163885
3.784,-0.0095010924955603,0.148907134437062
3.786,-0.00603783787224622,0.14867256786731
3.788,-0.00257149753241815,0.148237323465673
3.79,0.000570454931854491,0.147477709817565
3.792,0.00387959097295933,0.146646885871754
3.794,0.00749508930933767,0.145734504839247
3.796,0.0107227028779187,0.144514791312083
3.798,0.0138289505114331,0.143119851882006
3.8,0.0165681383165532,0.141543171559077
3.802,0.0194568413929092,0.139831599020191
3.804,0.022534063641936,0.137927692587454
3.806,0.0251568251055755,0.135889805626585
3.808,0.0276340489048525,0.133722297995074
3.81,0.0299429874482498,0.131432012910413
3.812,0.0318090616499829,0.129163886958143
3.814,0.0340192725880902,0.126543924779862
3.816,0.0357954063723718,0.123973919340147
3.818,0.0373789967021842,0.121332015933396
3.82,0.0385230139140711,0.118863789150597
3.822,0.0399607361392572,0.115907569193044
3.824,0.0407684841409409,0.113380901461941
3.826,0.0417247572114711,0.110398646827983
3.828,0.0423226666093591,0.107640317863835
3.83,0.0427094962161134,0.104912581186572
3.832,0.0429040849629344,0.10223006283403
3.834,0.042906270227221,0.099589223955142
3.836,0.0427154293989614,0.097017906491143
3.838,0.0423504374069229,0.094544481583797
3.84,0.0418061294446799,0.092150572028522
3.842,0.0411010688565272,0.089899059771449
3.844,0.0402890753831687,0.088093733076506
3.846,0.039226968917273,0.085714347932342
3.848,0.038183114398873,0.084144356709313
3.85,0.0368445902105855,0.082157276546336
3.852,0.035475391502659,0.08061229856777
3.854,0.0340232678878963,0.079237761260213
3.856,0.0324815983783614,0.078038045729251
3.858,0.0308727026529444,0.077024550966237
3.86,0.029209642615777,0.076198150364943
3.862,0.0277487674464504,0.07575452260826
3.864,0.0258170874240784,0.075117493434821
3.866,0.0241033420072071,0.074867360615613
3.868,0.0224061903755446,0.074824808810543
3.87,0.0209944655695121,0.075078144795022
3.872,0.0190777420776653,0.075279056236482
3.874,0.0175305642849071,0.075802990850894
3.876,0.0160230166875539,0.076497367999267
3.878,0.0146239265602417,0.07736430746413
3.88,0.0133006224786352,0.078397942955995
3.882,0.0124284575520098,0.079570547559816
3.884,0.0110659210156259,0.080920794311439
3.886,0.0101187138029743,0.082395323744021
3.888,0.0093643017278174,0.083983173374479
3.89,0.0087501145260879,0.085683127009916
3.892,0.0083044197576088,0.087505395724054
3.894,0.0080459001476607,0.089383225073631
3.896,0.0082025783383541,0.09116249758288
3.898,0.0080724362298694,0.0933553033399227
3.9,0.0085801795415106,0.095196167836221
3.902,0.0088667906225812,0.0974875204590452
3.904,0.0095560542531329,0.0995926079769138
3.906,0.0106140596345004,0.101386855920086
