"Freq [GHz]","re(S(Antenna1_1_p1,Antenna1_1_p1)) []","im(S(Antenna1_1_p1,Antenna1_1_p1)) []"
3,0.0897100594223872,-0.070418977856587
3.002,0.0907039673169999,-0.0716917099691278
3.004,0.0916661623859265,-0.073104832008213
3.006,0.0925832107765175,-0.0746607245518325
3.008,0.0934294895470517,-0.0763476012660777
3.01,0.0940085072632745,-0.0782266487228913
3.012,0.0949120605059965,-0.0801220481472454
3.014,0.0953479383837069,-0.08220642117384
3.016,0.0958371713181895,-0.084375378503087
3.018,0.0964127225992424,-0.086663336626679
3.02,0.0966669571763935,-0.089047794502505
3.022,0.0967904289606598,-0.091517473919112
3.024,0.0967792956463809,-0.094069087609568
3.026,0.0966277288431175,-0.096689074137792
3.028,0.0963217281775956,-0.099359804414353
3.03,0.0958837348257071,-0.102080182730811
3.032,0.0952509093846373,-0.104817009053385
3.034,0.0943342730750112,-0.10746727351626
3.036,0.0935309433231525,-0.110367547705479
3.038,0.0924043231234368,-0.113119292206175
3.04,0.0911258151507017,-0.115870848590268
3.042,0.089686296662807,-0.118587957495676
3.044,0.08807193452324,-0.121248156366039
3.046,0.0863084093738701,-0.123870456940736
3.048,0.084385979567786,-0.126412199266616
3.05,0.0823104809722692,-0.128877458732254
3.052,0.080088071221858,-0.131259033700705
3.054,0.07773574081155,-0.133522516123839
3.056,0.0752584886701328,-0.135703456270182
3.058,0.0726474855036504,-0.137716234620212
3.06,0.0699863945189762,-0.13941729227134
3.062,0.0671183703375629,-0.141387646332313
3.064,0.0642100214692852,-0.143005546827263
3.066,0.0612255858074716,-0.144471362059194
3.068,0.0581619520500752,-0.145774476173156
3.07,0.0550497562399626,-0.1469143238689
3.072,0.0518977157494154,-0.147886232393082
3.074,0.0487160344107382,-0.148690410451131
3.076,0.0455040194195651,-0.149327064038602
3.078,0.0424465631273133,-0.149678717472142
3.08,0.0392658927192896,-0.149975386910073
3.082,0.0359164878550308,-0.15020032883249
3.084,0.032759840542247,-0.150163176260999
3.086,0.0298621290879667,-0.149885945908127
3.088,0.0266011433124046,-0.149584458996151
3.09,0.0236385088059499,-0.149069095025669
3.092,0.020757894150368,-0.148400512183825
3.094,0.0181327169132107,-0.147595175061958
3.096,0.0152465190344003,-0.146653415133094
3.098,0.0126571097829856,-0.145585598708897
3.1,0.0101624325141464,-0.144417290696316
3.102,0.0078438418863232,-0.14315459624408
3.104,0.0056254643488112,-0.141788316595592
3.106,0.003553897708891,-0.140342149063469
3.108,0.0016096850600803,-0.138811516917813
3.11,-0.0001536719200705,-0.137258277775959
3.112,-0.0017820740817469,-0.135630616865783
3.114,-0.0032563180744416,-0.133985578933244
3.116,-0.0045704603682842,-0.132317644782707
3.118,-0.0057286477251924,-0.13065485013327
3.12,-0.0067465633798114,-0.128984249418144
3.122,-0.0075953591301512,-0.127338732376856
3.124,-0.0083137711481207,-0.125728864883503
3.126,-0.0088759307497142,-0.124157275403957
3.128,-0.0093018314750773,-0.122643841517773
3.13,-0.0095910833582329,-0.121197476541722
3.132,-0.00975890439667992,-0.119840182884102
3.134,-0.009799544760716,-0.118553062918731
3.136,-0.00975654632247901,-0.117550365025617
3.138,-0.00955952984482517,-0.116280407941332
3.14,-0.0092983830599235,-0.115323166029134
3.142,-0.00895524402765577,-0.11448049244881
3.144,-0.00855150527869778,-0.113765900726205
3.146,-0.00807137021945118,-0.113176931932471
3.148,-0.00755958296463422,-0.112740360153098
3.15,-0.00699370719271211,-0.112429367816622
3.152,-0.00641884814556302,-0.112272772423115
3.154,-0.00582387814082304,-0.11224271369237
3.156,-0.0052627669145792,-0.112384362791885
3.158,-0.00468834334876567,-0.112654091504539
3.16,-0.0041306300618068,-0.113066540586072
3.162,-0.003663361373004,-0.113625284522263
3.164,-0.0032168367502148,-0.11431970643596
3.166,-0.0028298401871991,-0.11515488751377
3.168,-0.0025282880477878,-0.116096974382574
3.17,-0.0023198381607379,-0.117171124695821
3.172,-0.002392082578365,-0.118339764959584
3.174,-0.002406776230902,-0.119607230398355
3.176,-0.0022999140505904,-0.121000450210713
3.178,-0.0025289396655646,-0.122484451974705
3.18,-0.0028852936033719,-0.124016968713031
3.182,-0.0033915822743407,-0.125607260347046
3.184,-0.0040403949846394,-0.127266969823555
3.186,-0.0048346019490488,-0.128968602405373
3.188,-0.0057847846235233,-0.13069510559775
3.19,-0.0070419821374359,-0.132292330171557
3.192,-0.0081651911756117,-0.134159315929112
3.194,-0.0095874229900576,-0.135905221224998
3.196,-0.0112878440214375,-0.137438536785725
3.198,-0.0129220491902961,-0.139287400366217
3.2,-0.0149066537579762,-0.140723057832068
3.202,-0.0168713613973491,-0.142461954100932
3.204,-0.019131886383184,-0.143729602807445
3.206,-0.0214186115523099,-0.145354715977038
3.208,-0.0239000908834999,-0.146658696350586
3.21,-0.0265165437370784,-0.14784167369289
3.212,-0.0292379624642741,-0.148919655531009
3.214,-0.0320625337462763,-0.149659031366442
3.216,-0.0350308893330783,-0.150672041227167
3.218,-0.0380703432119802,-0.151335315569524
3.22,-0.0411896451758896,-0.151841122050005
3.222,-0.0443936573583105,-0.152188704056815
3.224,-0.0476461626171017,-0.152360893111418
3.226,-0.0509500919349182,-0.15239489741985
3.228,-0.0542647700534161,-0.152219817183954
3.23,-0.0576353775412065,-0.151887159762507
3.232,-0.0608142433303913,-0.151219884892175
3.234,-0.0643187533814804,-0.150650789198403
3.236,-0.067658938983483,-0.149777194416159
3.238,-0.0709632065238185,-0.148710785180569
3.24,-0.0742232261883694,-0.147489723047458
3.242,-0.0774076678099061,-0.146087280263793
3.244,-0.0805261837491684,-0.144519384057981
3.246,-0.083572427396613,-0.142786265210128
3.248,-0.0863053732919803,-0.140886419252137
3.25,-0.0891260245024992,-0.138871762627781
3.252,-0.0920541560769234,-0.136690589912633
3.254,-0.0946458351592231,-0.134392299133938
3.256,-0.0971052661020309,-0.131961387340383
3.258,-0.0994015663998637,-0.129431820701805
3.26,-0.101359687292013,-0.126888551898794
3.262,-0.103561061955231,-0.124073822882253
3.264,-0.105377036516103,-0.121291334450867
3.266,-0.107033852993173,-0.118435740490483
3.268,-0.108510056618842,-0.115536876172469
3.27,-0.109816841100925,-0.112604401404085
3.272,-0.11094236839403,-0.109644605612156
3.274,-0.111901393770596,-0.106668799791265
3.276,-0.112662667641741,-0.103724967811829
3.278,-0.113254722927794,-0.100790164287619
3.28,-0.11366878592858,-0.097881059320684
3.282,-0.113915876403474,-0.095018696530279
3.284,-0.113995954821142,-0.092213408400745
3.286,-0.113920310329069,-0.089493786515387
3.288,-0.113683533282811,-0.087125165498274
3.29,-0.113308348834976,-0.084295482151023
3.292,-0.112796449803971,-0.081860175611529
3.294,-0.112155953402459,-0.079519666302683
3.296,-0.111397841435602,-0.077310831541055
3.298,-0.110520226829017,-0.075239841885541
3.3,-0.109565826616485,-0.073311885925977
3.302,-0.108522765019401,-0.0715287530117829
3.304,-0.107403825796971,-0.0698935237804987
3.306,-0.106235074965186,-0.0684214341163946
3.308,-0.105019203572481,-0.0671110875090116
3.31,-0.103767840712883,-0.065962860611678
3.312,-0.102491781216738,-0.0649696627001005
3.314,-0.101240899242602,-0.0641716807508205
3.316,-0.100182247285956,-0.0636114839797823
3.318,-0.098751733142156,-0.0630167114408324
3.32,-0.097794469834918,-0.0627628480542342
3.322,-0.096421048156244,-0.0625033055451902
3.324,-0.095338095854161,-0.0624794573423709
3.326,-0.094314130325144,-0.0625971490864426
3.328,-0.093423394645334,-0.0628493478285907
3.33,-0.092607380654514,-0.0632329444591052
3.332,-0.091911574739803,-0.0637292757958989
3.334,-0.091309696399151,-0.0643510962031291
3.336,-0.090888136914604,-0.0650471323797856
3.338,-0.090557540105247,-0.0658483533582834
3.34,-0.090376675990002,-0.0667309475131442
3.342,-0.090368030690126,-0.0676555565076365
3.344,-0.090508676991499,-0.0686443597644825
3.346,-0.090797351826659,-0.0696775184265703
3.348,-0.091273101736631,-0.0707140226057129
3.35,-0.091899914772474,-0.071764075836555
3.352,-0.092692976726631,-0.0728092109728617
3.354,-0.093775148424032,-0.0736435448654176
3.356,-0.094781073522974,-0.0748357404378962
3.358,-0.096070913885741,-0.0757858699883293
3.36,-0.097519818319048,-0.0766705441379887
3.362,-0.099121261714194,-0.0774800182544171
3.364,-0.100900209137034,-0.0779699972605198
3.366,-0.102761420477697,-0.0788374852386916
3.368,-0.104781548450099,-0.0793261635280128
3.37,-0.106908329781204,-0.0794745896734807
3.372,-0.109200438180098,-0.0799745841253162
3.374,-0.111494636276788,-0.0798295964783304
3.376,-0.114019512820842,-0.0800080278213154
3.378,-0.116448088599772,-0.0795498875665588
3.38,-0.11917561307318,-0.0794154707093595
3.382,-0.121694542468734,-0.0786574671776676
3.384,-0.124528848787887,-0.0781195688017444
3.386,-0.127252943640414,-0.077196844683935
3.388,-0.129996762776489,-0.0760907343184745
3.39,-0.132507517999798,-0.0746271258513831
3.392,-0.135246461208399,-0.0731762482704763
3.394,-0.138144978034402,-0.0716463673153839
3.396,-0.140745354053427,-0.0697751789177036
3.398,-0.143353866616031,-0.0677493612911993
3.4,-0.145830085357788,-0.0655226444021265
3.402,-0.148001312741073,-0.0630848615096012
3.404,-0.150540327271757,-0.0605728254660835
3.406,-0.152730159248559,-0.0578521694479242
3.408,-0.154781737018336,-0.05498914773605
3.41,-0.156696516681074,-0.0519812411166889
3.412,-0.158456768244713,-0.0488510813922155
3.414,-0.160057651359788,-0.0455926108820991
3.416,-0.16148478027385,-0.0422336627839436
3.418,-0.162516617225692,-0.0388908470346081
3.42,-0.163587918739408,-0.0353742549244765
3.422,-0.164671976448225,-0.0316508537157805
3.424,-0.165343843978167,-0.028001252344063
3.426,-0.165818270501508,-0.0243201532507225
3.428,-0.166092378040079,-0.0206112832893846
3.43,-0.166004355748331,-0.0171050890521962
3.432,-0.166012382696248,-0.0132135927036924
3.434,-0.165685022772069,-0.0095057675528036
3.436,-0.165127521544843,-0.0059019751914868
3.438,-0.164395510126747,-0.0023078580772454
3.44,-0.163458420115315,0.0011997054854898
3.442,-0.162332397835395,0.0045970739349245
3.444,-0.161029711761002,0.0079419445812631
3.446,-0.159560714396934,0.0111278125980134
3.448,-0.157931064490294,0.0142067995591348
3.45,-0.156150174041751,0.0171513821560523
3.452,-0.154287760376694,0.0197011955045778
3.454,-0.152251906476179,0.0223493379516536
3.456,-0.150001704527762,0.0250654388120192
3.458,-0.147719524606086,0.0273736766446751
3.46,-0.145374073100375,0.0294695533893084
3.462,-0.14293776308674,0.0313982259724702
3.464,-0.140451425577315,0.0331274290937169
3.466,-0.13790670701824,0.03468317541154
3.468,-0.135365306061509,0.0360064196792047
3.47,-0.13279580942862,0.0371445860904226
3.472,-0.130224976006117,0.0380895711448729
3.474,-0.12768029806393,0.0388343256036166
3.476,-0.125175756266626,0.0393811105343116
3.478,-0.122711786690446,0.0397424211563468
3.48,-0.120318185311248,0.0399169491157556
3.482,-0.118009952730277,0.0399198249800513
3.484,-0.115770781219791,0.0397421437828373
3.486,-0.113689888341562,0.0394123670183406
3.488,-0.111699204905227,0.0389240793457411
3.49,-0.109842040296493,0.0382964557033574
3.492,-0.108121994645232,0.0375403284026897
3.494,-0.106568218403395,0.0366719574222793
3.496,-0.105171976832865,0.035695708841463
3.498,-0.103919209813101,0.0346149058738831
3.5,-0.103106414328696,0.0336377664579316
3.502,-0.102011582946824,0.0322885382569651
3.504,-0.101325949194503,0.0310459620203738
3.506,-0.100828318375821,0.0297738304073141
3.508,-0.100512457298933,0.0284961335154342
3.51,-0.100392873763048,0.0272189016684722
3.512,-0.100461905255218,0.0259547091176368
3.514,-0.100721006257046,0.0247492525129
3.516,-0.101152176151291,0.0235693452242318
3.518,-0.101770243388324,0.0224679250435331
3.52,-0.102559844472516,0.0214469344673474
3.522,-0.103500884768488,0.0205216025794514
3.524,-0.10461148103727,0.0197035601092149
3.526,-0.105842754972351,0.0193225935828455
3.528,-0.107257228605635,0.0184622437944167
3.53,-0.108712966093279,0.0183126445867345
3.532,-0.110390261111472,0.0178042937220362
3.534,-0.112111844672063,0.0177155843324984
3.536,-0.113909932028135,0.0178083652605535
3.538,-0.115783747774494,0.018089448519104
3.54,-0.11755730335802,0.0187677668914222
3.542,-0.119685848587001,0.0192002814210213
3.544,-0.12167189035531,0.0200551728312127
3.546,-0.12366525163175,0.0211013616745896
3.548,-0.125652839195099,0.0223567722622344
3.55,-0.127591959093067,0.0238090997428438
3.552,-0.129520089967199,0.0254377072815516
3.554,-0.131401121894678,0.0272720700086826
3.556,-0.133158205028874,0.0293083034982487
3.558,-0.134850266008016,0.0315224529362887
3.56,-0.136423753962794,0.0339050167290024
3.562,-0.137612008929887,0.0364824302507256
3.564,-0.139209428196437,0.0391704411517101
3.566,-0.140391898214482,0.0420264573856854
3.568,-0.14143684447527,0.0450337799472709
3.57,-0.142265700583569,0.0481509242092099
3.572,-0.142955534791901,0.0513904992593531
3.574,-0.143406785664728,0.0547093437575179
3.576,-0.143691855642573,0.0581201100521303
3.578,-0.143786166606098,0.061607691708669
3.58,-0.143631782020155,0.0651220508449463
3.582,-0.143069162867755,0.0684966979811691
3.584,-0.142712604314027,0.072260314923538
3.586,-0.141938671760117,0.0758463080434247
3.588,-0.140929314427043,0.0794060818098896
3.59,-0.139564100219549,0.0826873628739944
3.592,-0.138156931479871,0.0861589153624159
3.594,-0.136635638941522,0.0898320693546786
3.596,-0.134785488373021,0.0931628282608876
3.598,-0.132736697001576,0.0963909202443024
3.6,-0.130498942766798,0.0995047161656428
3.602,-0.128071850214316,0.102495877093311
3.604,-0.125480093619454,0.105048126177309
3.606,-0.122725497810802,0.108030576083068
3.608,-0.119815093903851,0.110555227555005
3.61,-0.116773026024548,0.112892859889927
3.612,-0.113605067632881,0.115055559350241
3.614,-0.11032608199643,0.117044276386968
3.616,-0.106974555143914,0.118775775112559
3.618,-0.103534636799756,0.120315566633539
3.62,-0.100033544105583,0.121645065752946
3.622,-0.0964955377768115,0.12275173780256
3.624,-0.0929209111074408,0.123643040434985
3.626,-0.0895756894151196,0.124121982185515
3.628,-0.0857871337716849,0.124745941093809
3.63,-0.0822407427207032,0.124966916995369
3.632,-0.0787528824845401,0.124965214862858
3.634,-0.0753017716816142,0.124752094907207
3.636,-0.0719363791820088,0.124329577408514
3.638,-0.068666524821026,0.123706438836804
3.64,-0.0655049056778427,0.122895940952567
3.642,-0.0624543939791157,0.121886660337104
3.644,-0.0595459914126463,0.120713572782696
3.646,-0.0567625376410528,0.119380435662607
3.648,-0.0544799029554769,0.117952713440864
3.65,-0.0517515177993152,0.11627631695186
3.652,-0.0497828166619752,0.114642863579808
3.654,-0.0474337421826551,0.112690169927948
3.656,-0.0455652143041943,0.110750801096621
3.658,-0.0438993120469053,0.108737052084148
3.66,-0.0424380151224804,0.106678346766507
3.662,-0.0411851494079445,0.104566019840842
3.664,-0.0401448071396043,0.102424429368797
3.666,-0.0393165611170947,0.100286962771651
3.668,-0.0386913045574271,0.098140135845292
3.67,-0.0382909428491147,0.096059422858007
3.672,-0.0380890216163519,0.093998068543068
3.674,-0.0380860912231932,0.092005923151169
3.676,-0.0382767167378499,0.090085832791703
3.678,-0.0386539669470144,0.088282755820789
3.68,-0.0392155655102285,0.086543383567218
3.682,-0.0399386530443316,0.084947033019147
3.684,-0.0408197706879687,0.083484644640662
3.686,-0.0418449396761483,0.082175579778165
3.688,-0.043005652264882,0.081019151466555
3.69,-0.0442983582458625,0.080013078075286
3.692,-0.0455581891312549,0.079523714324221
3.694,-0.047145996158515,0.078612913129341
3.696,-0.0486975652543013,0.078163749708246
3.698,-0.0502840171094635,0.077961124375544
3.7,-0.051933075585104,0.07793369055803
3.702,-0.0535914116361052,0.078114935869723
3.704,-0.0552633311913483,0.078500252616724
3.706,-0.0569197223060189,0.079096727271918
3.708,-0.0585472343879834,0.079896282019536
3.71,-0.0601265259442514,0.0808981468795
3.712,-0.0616493321981272,0.082095351041676
3.714,-0.063088099967879,0.083489211749918
3.716,-0.0641173457604147,0.085146237705981
3.718,-0.0656639127121621,0.086825632703269
3.72,-0.0667685474749527,0.088748316560434
3.722,-0.0677437588920388,0.090833855234807
3.724,-0.068564075964209,0.093060855245697
3.726,-0.0692171679859882,0.095429312327529
3.728,-0.0696870641519552,0.097915860052823
3.73,-0.0696387150131279,0.100393872905062
3.732,-0.0700892053735063,0.103192469971342
3.734,-0.0699886320566625,0.105947024294959
3.736,-0.0696821412324823,0.108766970604801
3.738,-0.0691571338339859,0.111623876938592
3.74,-0.0684220044642767,0.114509070957037
3.742,-0.0674699025635766,0.11741153610639
3.744,-0.066298133346405,0.1203002465783
3.746,-0.0649111073188577,0.123150603295493
3.748,-0.0631346922559832,0.12569607247837
3.75,-0.061477871959317,0.128738263297433
3.752,-0.0594530438544924,0.131410527913967
3.754,-0.0572271713689863,0.133996550960228
3.756,-0.0548031411000003,0.136471512485486
3.758,-0.0521991062324503,0.138847829104918
3.76,-0.0494096573070652,0.141023267240421
3.762,-0.0464610558986571,0.143080146811226
3.764,-0.0433568885544565,0.144972636174489
3.766,-0.0401125003126317,0.146683981295677
3.768,-0.0367395058208991,0.148203303758851
3.77,-0.0332505252352739,0.149522464356864
3.772,-0.0296734332489708,0.150643033171422
3.774,-0.0260129137914069,0.151547210752995
3.776,-0.0222938823063638,0.152231898880683
3.778,-0.0185178490272697,0.152683610891911
3.78,-0.0149366542556254,0.152661332932047
3.782,-0.0109043194881656,0.152912693743885
3.784,-0.0070968015825603,0.152679320537062
3.786,-0.00331689061624622,0.15222057301731
3.788,0.000458407803581851,0.151541049325673
3.79,0.00380706715085449,0.150470147897565
3.792,0.00736502558295933,0.149349119561754
3.794,0.0112704379693377,0.148150162749247
3.796,0.0146824791779187,0.146598376042083
3.798,0.0179422866914331,0.144847623342006
3.8,0.0207520748565532,0.142893511539077
3.802,0.0237540724829092,0.140819307400191
3.804,0.026961094021936,0.138540443687454
3.806,0.0296243510555755,0.136122087756585
3.808,0.0320958636448525,0.133565352545074
3.81,0.0343728522682498,0.130889734720413
3.812,0.0361093808399829,0.128268284648143
3.814,0.0382875324980902,0.125263032043862
3.816,0.0399385875323718,0.122324464341147
3.818,0.0413584786721842,0.119331291762396
3.82,0.0422667660440711,0.116566561962597
3.822,0.0435410487592572,0.113254849439044
3.824,0.0440608752509409,0.110468391409941
3.826,0.0448038041914711,0.107167812723983
3.828,0.0450997140993591,0.104159964737835
3.83,0.0451809808761134,0.101208685332572
3.832,0.0450472911429344,0.09832289765403
3.834,0.044704191977221,0.095524825535142
3.836,0.0441635272689614,0.092823819891143
3.838,0.0434270440669229,0.090234998133797
3.84,0.0425108572246799,0.087751340308522
3.842,0.0414300172865272,0.085462473171449
3.844,0.0402335908531687,0.083703334406506
3.846,0.038792420247273,0.081287170132342
3.848,0.037384039658873,0.079839867109313
3.85,0.0356577849905855,0.077870321066336
3.852,0.033928962032659,0.07643927900777
3.854,0.0321199732128963,0.075212255580213
3.856,0.0302426287633614,0.074189527729251
3.858,0.0283181774019444,0.073379181406237
3.86,0.026359135455577,0.072783136464943
3.862,0.0246536724744504,0.07264685515826
3.864,0.0224214250350784,0.072243461914821
3.866,0.0204713744582071,0.072295292505613
3.868,0.0185646574095446,0.072562738850543
3.87,0.0170424841495121,0.073183741625022
3.872,0.0149042318476653,0.073705121926482
3.874,0.0132396165649071,0.074590690940894
3.876,0.0116538929175539,0.075647751689267
3.878,0.0101909429302417,0.07688520980413
3.88,0.0088274874586352,0.078298482095995
3.882,0.0080409307420098,0.079848784199816
3.884,0.0066479836556259,0.081576944481439
3.886,0.0057684348929743,0.083428418444021
3.888,0.0051302943278174,0.085386117364479
3.89,0.0046435914660879,0.087443633569916
3.892,0.0043644322976088,0.089590590904054
3.894,0.0042863604076607,0.091808749514631
3.896,0.0047254903683541,0.09386671168688
3.898,0.0047729800798694,0.0963792557349227
3.9,0.0056068419415106,0.098441168937521
3.902,0.0061234999725812,0.101024163798045
3.904,0.0071121470631329,0.103355372191914
3.906,0.0085531544445004,0.105285027121086
