"Freq [GHz]","re(S(Antenna1_1_p1,Antenna1_1_p1)) []","im(S(Antenna1_1_p1,Antenna1_1_p1)) []"
3,0.104801191622387,-0.096055371558587
3.002,0.103665265073,-0.0985133294811278
3.004,0.102392520441926,-0.100927186496213
3.006,0.100998420245518,-0.103304383754833
3.008,0.0994857362000517,-0.105617658841078
3.01,0.0978523046132745,-0.107873406532891
3.012,0.0961155322459965,-0.110047451657245
3.014,0.0942647404337069,-0.11214501895384
3.016,0.0923088239181895,-0.114172560893087
3.018,0.0902643931792424,-0.116086357216679
3.02,0.0881352851223935,-0.117906338592505
3.022,0.0859178508536598,-0.119609388759112
3.024,0.0836378229783809,-0.121210594769568
3.026,0.0812854121861175,-0.122692077984792
3.028,0.0788913395035956,-0.124057744376353
3.03,0.0764709055227071,-0.125281426358811
3.032,0.0739948567896373,-0.126395970061385
3.034,0.0714824309018112,-0.12737458939926
3.036,0.0689802118551525,-0.128219843094279
3.038,0.0664556784704368,-0.128946481745175
3.04,0.0639388539777017,-0.129536473837268
3.042,0.061439260142807,-0.129995774741676
3.044,0.05897015846924,-0.130342639974039
3.046,0.0565295051478701,-0.130565856792736
3.048,0.054119403863786,-0.130658487756616
3.05,0.0517694881122692,-0.130642451552254
3.052,0.049471602731858,-0.130520614980705
3.054,0.04724852437155,-0.130294981523839
3.056,0.0451042523601328,-0.129989677900182
3.058,0.0430218406236504,-0.129566012800212
3.06,0.0410431474389762,-0.12907645468434
3.062,0.0391518971075629,-0.128513432256313
3.064,0.0373514066892852,-0.127884752782263
3.066,0.0356556450164716,-0.127202023213194
3.068,0.0340535212680752,-0.126449231993156
3.07,0.0325723737139626,-0.1256728464239
3.072,0.0311949995994154,-0.124862964583282
3.074,0.0299269250397382,-0.124035622205231
3.076,0.0287697414550651,-0.123195857509602
3.078,0.0277251907053133,-0.122353013550142
3.08,0.0267782033452896,-0.121522367866073
3.082,0.0259505186600308,-0.12070954140049
3.084,0.025213632070247,-0.119921427558999
3.086,0.0245888335279667,-0.119167738152127
3.088,0.0240591305924046,-0.118456678786151
3.09,0.0236139501959499,-0.117799013245669
3.092,0.023256190360368,-0.117194189573825
3.094,0.0229776997832107,-0.116657623141958
3.096,0.0227768949044003,-0.116198570373094
3.098,0.0226537305789856,-0.115807485998897
3.1,0.0225626389911464,-0.115514948446316
3.102,0.0225318819653232,-0.11531379139408
3.104,0.0225456631708112,-0.115197216897592
3.106,0.022592936859891,-0.115175496916469
3.108,0.0226639044580803,-0.115257362967813
3.11,0.0227517740729295,-0.115443012791959
3.112,0.0228420930965531,-0.115722626236783
3.114,0.0229292804935584,-0.116122423211964
3.116,0.0230045012107158,-0.116612491352707
3.118,0.0230690272628076,-0.11721154433327
3.12,0.0230767363151886,-0.117902441120144
3.122,0.0230642990248488,-0.118702814474856
3.124,0.0229812476988793,-0.119575638876503
3.126,0.0228498218302858,-0.120550934463957
3.128,0.0226524814249227,-0.121616186767773
3.13,0.0223789652017671,-0.122755887401722
3.132,0.0220239067633201,-0.123969011234102
3.134,0.021579459079284,-0.125253296118731
3.136,0.021039822027521,-0.126590483205617
3.138,0.0204045912951748,-0.127983150368332
3.14,0.0196593998200765,-0.129418158520134
3.142,0.0188079551423442,-0.13088431249681
3.144,0.0178348358063022,-0.132380058789205
3.146,0.0167480349225488,-0.133894226946471
3.148,0.0155483742903658,-0.135417516075098
3.15,0.0142282059702879,-0.136934151333122
3.152,0.012775684876937,-0.138442459511115
3.154,0.011214303362177,-0.13992347414437
3.156,0.0095259019884208,-0.141378672694885
3.158,0.00772496132223433,-0.142787309129539
3.16,0.0058070438481932,-0.144148890954072
3.162,0.003780843382996,-0.145450976315263
3.164,0.0016396829297852,-0.14667793340596
3.166,-0.000613898877199101,-0.14784401981377
3.168,-0.0029377558577878,-0.148904460522574
3.17,-0.0053826158807379,-0.149889070605821
3.172,-0.007886086668365,-0.150750920969584
3.174,-0.010484194550902,-0.151515050498355
3.176,-0.0131475163855904,-0.152164198270713
3.178,-0.0158862520365646,-0.152712074794705
3.18,-0.0186471562373719,-0.153112557123031
3.182,-0.0214665670383407,-0.153381729738046
3.184,-0.0243218251376394,-0.153539999696555
3.186,-0.0272038552630488,-0.153550893914373
3.188,-0.0300958085961233,-0.15342259755075
3.19,-0.0329973924260359,-0.153163370562557
3.192,-0.0358891718446117,-0.152774555668312
3.194,-0.0387666682850576,-0.152225889341998
3.196,-0.0416199462974375,-0.151555847266725
3.198,-0.0444413413002961,-0.150748102578217
3.2,-0.0472070033729762,-0.149817615798068
3.202,-0.0499128539463491,-0.148746081946932
3.204,-0.052573639953184,-0.147568179447445
3.206,-0.0551513074823099,-0.146256998457038
3.208,-0.0576477474334999,-0.144839395470586
3.21,-0.0600660633570784,-0.14330623978289
3.212,-0.0623653977042741,-0.141695314421009
3.214,-0.0645829988262763,-0.139972567171442
3.216,-0.0666785511030783,-0.138198199221167
3.218,-0.0686504916219802,-0.136326430927524
3.22,-0.0705189942558896,-0.134392668048005
3.222,-0.0722648912513105,-0.132396384068815
3.224,-0.0738724698661017,-0.130356409745418
3.226,-0.0753598558369182,-0.12830794421185
3.228,-0.0767136888664161,-0.126215846561454
3.23,-0.0779336661702065,-0.124104532072507
3.232,-0.0790241857534913,-0.121995459654175
3.234,-0.0799901897374804,-0.119887788068403
3.236,-0.080809479465483,-0.117798065514159
3.238,-0.0815153891688185,-0.115713705793569
3.24,-0.0820979866523694,-0.113700838183458
3.242,-0.0825606638899061,-0.111712295473793
3.244,-0.0828987996691684,-0.109784703687981
3.246,-0.083137301456613,-0.107910956520128
3.248,-0.0832575696819803,-0.106111312412137
3.25,-0.0832966140624992,-0.104390349917781
3.252,-0.0832449210069234,-0.102756737642633
3.254,-0.0831145942942231,-0.101215297653938
3.256,-0.0829134356170309,-0.099765678900383
3.258,-0.0826427556298637,-0.098426245001805
3.26,-0.082320873088013,-0.097190821988794
3.262,-0.0819606841862309,-0.096069613502253
3.264,-0.0815585572931025,-0.095056861312867
3.266,-0.0811362273856733,-0.094162982080483
3.268,-0.0806992656308425,-0.093383988093469
3.27,-0.0802614065339247,-0.092723698557985
3.272,-0.07982621781503,-0.092176754177156
3.274,-0.0794147625445963,-0.091735317580265
3.276,-0.0790358444687412,-0.091417405091829
3.278,-0.0786767636337944,-0.091203218100619
3.28,-0.0783688326985796,-0.091103701148684
3.282,-0.0781222408534739,-0.091090574000279
3.284,-0.0779359981811423,-0.091187713530745
3.286,-0.0778297688490687,-0.091372606715387
3.288,-0.0777969125728109,-0.091622636618274
3.29,-0.0778513977949762,-0.091963668591023
3.292,-0.0780054380339712,-0.092371731756529
3.294,-0.0782608312924589,-0.092827698531683
3.296,-0.078621407015602,-0.093326595518055
3.298,-0.0790940481890166,-0.093887076214541
3.3,-0.0796749911664852,-0.094455609654977
3.302,-0.080377655207401,-0.0950523723607829
3.304,-0.081201870073971,-0.0956644078721987
3.306,-0.082141101328186,-0.0962555237521946
3.308,-0.083198425308481,-0.0968514750970116
3.31,-0.084376376676183,-0.097420316085678
3.312,-0.085679940871738,-0.0979537974631005
3.314,-0.087111736980602,-0.0984690801418205
3.316,-0.088637746438956,-0.0988987716437823
3.318,-0.090262970889156,-0.0992673166008324
3.32,-0.092014048644918,-0.0995736064442342
3.322,-0.093853177986244,-0.0997914615351902
3.324,-0.095781065294161,-0.0999230862023709
3.326,-0.097804866105144,-0.0999499681064426
3.328,-0.099901003465334,-0.0998721024085907
3.33,-0.102072067014514,-0.0996826094291052
3.332,-0.104290616530803,-0.0993649861258989
3.334,-0.106569581666151,-0.0989318021531291
3.336,-0.108871585933604,-0.0983699187697856
3.338,-0.111235710162247,-0.0976598013682834
3.34,-0.113601581707002,-0.0968208852431442
3.342,-0.115975215364126,-0.0958432348596365
3.344,-0.118361712553799,-0.0947193947124825
3.346,-0.120716922858659,-0.0934599023145703
3.348,-0.123062224296631,-0.0920597697557129
3.35,-0.125374515301474,-0.090513453001455
3.352,-0.127635300689631,-0.0888340190018617
3.354,-0.129844312367032,-0.0870146709104176
3.356,-0.131985953582974,-0.0850710149628962
3.358,-0.134046899025741,-0.0830005107863293
3.36,-0.136023898189048,-0.0808101352479887
3.362,-0.137902537074194,-0.0785106141244171
3.364,-0.139681606947034,-0.0760978830105198
3.366,-0.141353769347697,-0.0735804194386916
3.368,-0.142895047140099,-0.0709938098180128
3.37,-0.144322469061204,-0.0682936496524807
3.372,-0.145603689790098,-0.0655404787643162
3.374,-0.146756371766788,-0.0627242120253304
3.376,-0.147761711540842,-0.0598527142303154
3.378,-0.148628301829772,-0.0569432517315588
3.38,-0.14934332142718,-0.0539980114593595
3.382,-0.149906626600734,-0.0510440716171036
3.384,-0.150321052889887,-0.0480794210127444
3.386,-0.150577364053414,-0.045113263960935
3.388,-0.150689364336689,-0.0421645642314745
3.39,-0.150653512848798,-0.0392514541703831
3.392,-0.150471812819399,-0.0363659392344763
3.394,-0.150148548615402,-0.0335366055283839
3.396,-0.149686867447427,-0.0307622476677036
3.398,-0.149095785696031,-0.0280601925711993
3.4,-0.148374317257788,-0.0254316245521265
3.402,-0.147545412971073,-0.0228916709396012
3.404,-0.146604710621757,-0.0204515685660835
3.406,-0.145537974728559,-0.0181164535779242
3.408,-0.144399794018336,-0.01589280027605
3.41,-0.143168563504074,-0.0137793326966889
3.412,-0.141860507291713,-0.0117976364922155
3.414,-0.140486125438788,-0.0099387843020991
3.416,-0.13905414086085,-0.0082125975039436
3.418,-0.137601553171692,-0.0066250191246081
3.42,-0.136097706086108,-0.0051798451814765
3.422,-0.134589092513225,-0.0038723239437805
3.424,-0.133055739795167,-0.002697002074063
3.426,-0.131539096951508,-0.0016683383197225
3.428,-0.130029423108079,-0.000761356674684598
3.43,-0.128540569120331,-5.93374119620127E-06
3.432,-0.127099008300248,0.0006215823783076
3.434,-0.125699718742069,0.0011243987291964
3.436,-0.124341895414843,0.0015079319825132
3.438,-0.123080561856747,0.0017745975927546
3.44,-0.121874688285315,0.0019297751654898
3.442,-0.120768486525395,0.0019893636249245
3.444,-0.119743012781002,0.0019472741012631
3.446,-0.118825913036934,0.00182419144801339
3.448,-0.118012857520294,0.0016269490211348
3.45,-0.117319045151751,0.00136356717005225
3.452,-0.116728125126694,0.00104609958457778
3.454,-0.116269323166179,0.00067983991165357
3.456,-0.115935105157762,0.00028960431501917
3.458,-0.115717051996086,-0.00013109402202494
3.46,-0.115647147563375,-0.000560002765291626
3.462,-0.11568595969974,-0.00098830562752981
3.464,-0.115861371343315,-0.00140520775628308
3.466,-0.11617507151024,-0.00179503381745996
3.468,-0.116595173854509,-0.00214758560879526
3.47,-0.11715067902762,-0.0024640653815774
3.472,-0.117815566378117,-0.00271979877512708
3.474,-0.11859416414093,-0.00290585961638339
3.476,-0.119475845046626,-0.0030182540256884
3.478,-0.120459911920446,-0.0030488193536532
3.48,-0.121537389681248,-0.0029696251142444
3.482,-0.122682421760277,-0.0027937542099487
3.484,-0.123926573169791,-0.0025229297571627
3.486,-0.125216931524562,-0.0021226367016594
3.488,-0.126568287705227,-0.0015969490242589
3.49,-0.127965738251493,-0.0009492022266426
3.492,-0.129391066294232,-0.000165598127310301
3.494,-0.130842727051395,0.000747408072279302
3.496,-0.132308797090865,0.001803829611463
3.498,-0.133763317684401,0.0029953317838831
3.5,-0.135211129219696,0.0043226569709316
3.502,-0.136642306549824,0.0057990664149651
3.504,-0.138030673883503,0.0074099513823738
3.506,-0.139373837488821,0.0091527894365141
3.508,-0.140655853671933,0.0110243602604342
3.51,-0.141870590533048,0.0130299483294722
3.512,-0.143010528625218,0.0151539973536368
3.514,-0.144042608437046,0.0173908005199
3.516,-0.145000873401291,0.0197418187542318
3.518,-0.145837044058324,0.0221904596735331
3.52,-0.146560441492516,0.0247376733573474
3.522,-0.147156021818488,0.0273645500094514
3.524,-0.14762888550727,0.0300721829692149
3.526,-0.147952711782351,0.0328364294198455
3.528,-0.148142113985635,0.0356540576114167
3.53,-0.148182010413279,0.0385173233917345
3.532,-0.148069242691472,0.0414155464070362
3.534,-0.147803875132063,0.0443255885184984
3.536,-0.147385472258135,0.0472516526256535
3.538,-0.146810307719494,0.050172900759104
3.54,-0.14607849536802,0.0530688254564222
3.542,-0.145199976983001,0.0559502355240213
3.544,-0.14417485879631,0.0587847879892127
3.546,-0.14298334551755,0.0615795992995896
3.548,-0.141655105339099,0.0643029213312344
3.55,-0.140186890271067,0.0669509465128438
3.552,-0.138589413236199,0.0695216573415516
3.554,-0.136862058734678,0.0720025896986826
3.556,-0.135014649348874,0.0743678237682487
3.558,-0.133056441028016,0.0766393720562887
3.56,-0.130995143982794,0.0787795514390024
3.562,-0.128838626799887,0.0807990267507256
3.564,-0.126610450398437,0.0826804204717101
3.566,-0.124298198444482,0.0844362483456854
3.568,-0.12193689975727,0.0860407424472709
3.57,-0.119506252078569,0.0874955353292099
3.572,-0.117048715818901,0.0887978829293531
3.574,-0.114561623508528,0.0899591460775179
3.576,-0.112056758624073,0.0909617851221303
3.578,-0.109543018144098,0.091809057266669
3.58,-0.107052641207155,0.0925067101859463
3.582,-0.104568816692755,0.0930512123721691
3.584,-0.102136104677027,0.093450548890838
3.586,-0.099732258303117,0.0937074473564247
3.588,-0.097387139637043,0.0938153329978896
3.59,-0.095109666619549,0.0937990030839944
3.592,-0.092902869169871,0.0936484019584159
3.594,-0.090769814181522,0.0933867032846786
3.596,-0.088738763303021,0.0930083059808876
3.598,-0.086810757531576,0.0925236157343024
3.6,-0.084991865106798,0.0919552516556428
3.602,-0.083276476234316,0.091276375763311
3.604,-0.081691811789454,0.0905354985933087
3.606,-0.080235727880802,0.0897332742670682
3.608,-0.078904197073851,0.0888723126410054
3.61,-0.0777054171245481,0.0879680946819266
3.612,-0.0766466249128813,0.0870317614362414
3.614,-0.07572424965643,0.0860809395392679
3.616,-0.0749378791239138,0.0851188292655591
3.618,-0.0742902286987556,0.084166028760539
3.62,-0.0737759403425832,0.0832223118359458
3.622,-0.0733955290988115,0.0823073206215597
3.624,-0.0731432486561408,0.0814318819429854
3.626,-0.0730227236121196,0.0806029366455147
3.628,-0.0730148852566849,0.0798337921238085
3.63,-0.0731252656657032,0.0791395558953693
3.632,-0.0733502395145401,0.0785051348528583
3.634,-0.0736610397916142,0.0779787374472071
3.636,-0.0740730253120088,0.0775433302585139
3.638,-0.074550827121026,0.0772102444168041
3.64,-0.0751193523578427,0.0770061008525675
3.642,-0.0757551860361157,0.0768678149971043
3.644,-0.0764377154556463,0.0768800761626958
3.646,-0.0771620353560528,0.0770166504526065
3.648,-0.0779225769194769,0.0772823076508645
3.65,-0.0786798523353152,0.0776822622318599
3.652,-0.0794693648257752,0.078201911769808
3.654,-0.0802701821796551,0.078864094037948
3.656,-0.0810377410061943,0.079654686617621
3.658,-0.0817849782349053,0.080577245087148
3.66,-0.0824888403354804,0.081625405440507
3.662,-0.0831475396399445,0.082809584575842
3.664,-0.0837512256956043,0.084102247443797
3.666,-0.0842843240070947,0.085518978195651
3.668,-0.0847412109474271,0.087041450901292
3.67,-0.0851090643291147,0.088671517077007
3.672,-0.0853710159563519,0.090387115713068
3.674,-0.0855418854931932,0.092213752691169
3.676,-0.0855891930778499,0.094111733981703
3.678,-0.0855150318870144,0.096079630740789
3.68,-0.0853302835302285,0.098108974634218
3.682,-0.0850044559443316,0.100189400357147
3.684,-0.0845421649979687,0.102311467786662
3.686,-0.0839389103261483,0.104458824632165
3.688,-0.083189265934882,0.106623872589555
3.69,-0.0823187049058625,0.108791858111286
3.692,-0.0812917855912549,0.110974462554821
3.694,-0.080118680838515,0.113133134561341
3.696,-0.0788011744553013,0.115255954766246
3.698,-0.0773438752944635,0.117351451189544
3.7,-0.075751119679104,0.11939842434703
3.702,-0.0740221272877052,0.121378455784723
3.704,-0.0721658922093483,0.123289143936724
3.706,-0.0701914821690189,0.125107550661918
3.708,-0.0680826748529834,0.126858298679536
3.71,-0.0658717436042514,0.1284976320095
3.712,-0.0635534759781272,0.130027891211676
3.714,-0.061144211777879,0.131444296219918
3.716,-0.0586494017404147,0.132741598895981
3.718,-0.0560765060521621,0.133898168703269
3.72,-0.0534343501859527,0.134929079760434
3.722,-0.0507390768140388,0.135818049874807
3.724,-0.047999119649209,0.136549653915697
3.726,-0.0452233457939882,0.137159565937529
3.728,-0.0424211988569552,0.137609229942823
3.73,-0.0396147984774279,0.137907760735062
3.732,-0.0368011231805063,0.138049387581342
3.734,-0.0340033263616625,0.138046828674959
3.736,-0.0312142040914823,0.137891296507801
3.738,-0.0284673020919859,0.137592824062592
3.74,-0.0257708066782767,0.137141853905037
3.742,-0.0231252187175766,0.13656548750579
3.744,-0.020527874386405,0.1358498601023
3.746,-0.0180378008288577,0.135004343330493
3.748,-0.0156139593959832,0.13403244708637
3.75,-0.013264975519317,0.132954834407433
3.752,-0.0110322607144924,0.131760302613967
3.754,-0.0089146359289863,0.130472697600228
3.756,-0.0069093939600003,0.129088150225486
3.758,-0.0050259166524503,0.127625235898918
3.76,-0.0032623146570652,0.126092136179421
3.762,-0.0016357355386571,0.124502086964226
3.764,-0.000145947414456501,0.122853156669489
3.766,0.0012129091273683,0.121172568560677
3.768,0.0024323381291009,0.119463216267851
3.77,0.0035364031947261,0.117727487779064
3.772,0.0044439419010292,0.116000701774422
3.774,0.0052420202385931,0.114272424263995
3.776,0.0058973764926362,0.112565167315683
3.778,0.0064233015037303,0.110878460242911
3.78,0.0068183905783746,0.109229821397047
3.782,0.0070950969394344,0.107611657933885
3.784,0.0072158689664397,0.106090073917062
3.786,0.00723988361575378,0.10461505753731
3.788,0.00715692732058185,0.103219378755673
3.79,0.00695967745085449,0.101903302507565
3.792,0.00667209288295933,0.100692908211754
3.794,0.00630537883933767,0.099531045629247
3.796,0.00584826657791871,0.098543013992083
3.798,0.00532628526943312,0.097632408472006
3.8,0.00474689155755323,0.096839281819077
3.802,0.00411302994990921,0.096142544920191
3.804,0.00344415544393597,0.095622121957454
3.806,0.00274405571857551,0.095173226246585
3.808,0.00203549445375254,0.094904571665074
3.81,0.00131760045324977,0.094732468780413
3.812,0.00059555417098295,0.094692329828143
3.814,-0.00010103751590983,0.094779688699862
3.816,-0.00078117598762824,0.094988163431147
3.818,-0.00142107898281577,0.095315659619396
3.82,-0.00200913183692888,0.095763750751597
3.822,-0.00254859734074283,0.096328438952044
3.824,-0.00304258936905906,0.096973866369941
3.826,-0.0034470748985289,0.097750189566983
3.828,-0.0037406007206409,0.098625908874835
3.83,-0.0039650922238866,0.099582503732572
3.832,-0.0041117766070656,0.10060813767403
3.834,-0.004115223232779,0.101726316435142
3.836,-0.0040210941510386,0.102894549175143
3.838,-0.0038245984630771,0.104118247457797
3.84,-0.0034954479553201,0.105384144046522
3.842,-0.0030559963534728,0.106682398711449
3.844,-0.0024844118968313,0.108007399548506
3.846,-0.001784822272727,0.109334625695342
3.848,-0.000951379621126999,0.110680863656493
3.85,5.78045058549984E-06,0.112005517369336
3.852,0.001094574412659,0.11332049052177
3.854,0.0023134578278963,0.114597397003213
3.856,0.0036498577263614,0.115842507496251
3.858,0.0050948700299444,0.117027542179237
3.86,0.006686666056777,0.118164180788943
3.862,0.0083816138354504,0.11922383163826
3.864,0.0101772404490784,0.120210261034821
3.866,0.0120840047792071,0.121093369545613
3.868,0.0140737677295446,0.121900300740543
3.87,0.0161538330795121,0.122590844345022
3.872,0.0183232079376653,0.123176216826482
3.874,0.0205514902649071,0.123648117550894
3.876,0.0228470378105539,0.123986979199267
3.878,0.0251968331702417,0.12420794629413
3.88,0.0275816780106352,0.124294068155995
3.882,0.0299945385690098,0.124252407049816
3.884,0.0324407274266259,0.124066632651439
3.886,0.0348956656179743,0.123740608384021
3.888,0.0373394878392174,0.123287081734479
3.89,0.0397831945040879,0.122690999389916
3.892,0.0422136655476088,0.121931399974054
3.894,0.0445983665826607,0.121048881173631
3.896,0.0469518449773541,0.12003914196488
3.898,0.0492456048198694,0.118898594359923
3.9,0.0514793436915106,0.117621442153221
3.902,0.0536430728725812,0.116231909238045
3.904,0.0557267716831329,0.114737514272914
