"Freq [GHz]","re(S(Antenna1_1_p1,Antenna1_1_p1)) []","im(S(Antenna1_1_p1,Antenna1_1_p1)) []"
3,0.0856538618793872,-0.092857640959087
3.002,0.0848352356319999,-0.0937456129282278
3.004,0.0840159660589265,-0.094628478698413
3.006,0.0831966798745175,-0.0955120767208325
3.008,0.0823774637580517,-0.0963907617210777
3.01,0.0815600228402745,-0.0972667754708913
3.012,0.0807352540289965,-0.0981373528382454
3.014,0.0799097872657069,-0.09901371341284
3.016,0.0790832564741895,-0.099887784990087
3.018,0.0782512471072424,-0.100765835758679
3.02,0.0774134511001935,-0.101641126700505
3.022,0.0765685599120598,-0.102522581573112
3.024,0.0757207398488809,-0.103403927127568
3.026,0.0748641988648175,-0.104286933264792
3.028,0.0739970135892956,-0.105174604062353
3.03,0.0731214577090871,-0.106064331760811
3.032,0.0722334923084973,-0.106956568320385
3.034,0.0713346329755112,-0.10785282733126
3.036,0.0704225104682525,-0.108748162492279
3.038,0.0694954430756368,-0.109646533849175
3.04,0.0685536550263017,-0.110546648061268
3.042,0.067592879697807,-0.111448850453676
3.044,0.06662158322724,-0.112347718226039
3.046,0.0656291462318701,-0.113247842511736
3.048,0.064617362880786,-0.114145890697616
3.05,0.0635874207402692,-0.115042393283254
3.052,0.062534847184858,-0.115935234307705
3.054,0.06146190972055,-0.116820635537839
3.056,0.0603703241751328,-0.117706512468182
3.058,0.0592562585496504,-0.118577563290112
3.06,0.0581207353839762,-0.11944554660224
3.062,0.0569629236185629,-0.120305870144813
3.064,0.0557895540142852,-0.121152728441363
3.066,0.0545788261574716,-0.121987816614494
3.068,0.0533613689840752,-0.122813572448776
3.07,0.0521174752459626,-0.123624916281
3.072,0.0508494577084154,-0.124419868244282
3.074,0.0495533406217382,-0.125194191252731
3.076,0.0482505106610651,-0.125958285773802
3.078,0.0469123465563133,-0.126696729870542
3.08,0.0455680764892896,-0.127419563357473
3.082,0.0441996809120308,-0.12812096892049
3.084,0.042806168128247,-0.128794513614999
3.086,0.0414087847019667,-0.129453954934127
3.088,0.0399878561374046,-0.130084668209151
3.09,0.0385475061519499,-0.130683768618669
3.092,0.037097105086368,-0.131263645711825
3.094,0.0356397023120107,-0.131824110307958
3.096,0.0341644503876003,-0.132349426287094
3.098,0.0326790947875856,-0.132848777038897
3.1,0.0311842796515464,-0.133320990692316
3.102,0.0296786996057232,-0.13375663095108
3.104,0.0281706026618112,-0.134170046510592
3.106,0.026656700527161,-0.134559456728469
3.108,0.0251374625030803,-0.134925401513813
3.11,0.0236168931914295,-0.135247858561959
3.112,0.0220910364586531,-0.135557220821783
3.114,0.0205666407823584,-0.135831624119964
3.116,0.0190423254029158,-0.136077813873707
3.118,0.0175250042190076,-0.13628956412927
3.12,0.0160016581441886,-0.136488819882144
3.122,0.0144869823828488,-0.136654323723856
3.124,0.0129764961288793,-0.136794960938503
3.126,0.0114730128742858,-0.136911641603957
3.128,0.0099758869299227,-0.137003076716773
3.13,0.0084854319417671,-0.137071898575722
3.132,0.00701237285632008,-0.137113618507702
3.134,0.005540240029284,-0.137139393036831
3.136,0.00407063674452099,-0.137144757190717
3.138,0.00261913005717483,-0.137130918699532
3.14,0.0011772572640765,-0.137095480624834
3.142,-0.00025314798065577,-0.13704408636511
3.144,-0.00166316735169778,-0.136975739607585
3.146,-0.00307905842845118,-0.136891344019371
3.148,-0.00446696389263422,-0.136793203232598
3.15,-0.00585928029371211,-0.136679360223822
3.152,-0.00723111890006302,-0.136554237602215
3.154,-0.00859323428882304,-0.13641743366777
3.156,-0.0099358581135792,-0.136273656229085
3.158,-0.0112812551057657,-0.136112127562339
3.16,-0.0126104915578068,-0.135947087141072
3.162,-0.013922607447004,-0.135776913397263
3.164,-0.0152302723842148,-0.13559600997196
3.166,-0.0165354894591991,-0.13540049792977
3.168,-0.0178252247007878,-0.135206046449574
3.17,-0.0191044343091379,-0.135013996061821
3.172,-0.020382352168865,-0.134799822456584
3.174,-0.021650113394702,-0.134591367139355
3.176,-0.0229090660387904,-0.134383886679713
3.178,-0.0241682356401646,-0.134159545601705
3.18,-0.0254208059449719,-0.133938199500031
3.182,-0.0266688639951607,-0.133720133237046
3.184,-0.0279145341080694,-0.133491668955555
3.186,-0.0291579241154488,-0.133259024056373
3.188,-0.0303991256874233,-0.13302333147275
3.19,-0.0316406586348359,-0.132783807386557
3.192,-0.0328863252570117,-0.132551187170312
3.194,-0.0341247215945576,-0.132299649990998
3.196,-0.0353686517475375,-0.132049827142725
3.198,-0.0366156713562961,-0.131798261577217
3.2,-0.0378644905709762,-0.131538855730068
3.202,-0.0391246138463491,-0.131281228802932
3.204,-0.040375614126184,-0.131006069267445
3.206,-0.0416368984853099,-0.130730548027038
3.208,-0.0429038903954999,-0.130445961506086
3.21,-0.0441815471570784,-0.13015712002829
3.212,-0.0454595464912741,-0.129856350333309
3.214,-0.0467427816162763,-0.129543486053042
3.216,-0.0480353781610783,-0.129223121679567
3.218,-0.0493305960319802,-0.128890494993124
3.22,-0.0506357365508896,-0.128545576490705
3.222,-0.0519447662093105,-0.128188154961998
3.224,-0.0532594139511017,-0.127815206584818
3.226,-0.0545828163799182,-0.12742624877425
3.228,-0.0559099239504161,-0.127024333735654
3.23,-0.0572423625232065,-0.126605927787807
3.232,-0.0585823450934913,-0.126168401948575
3.234,-0.0599240563674804,-0.125713504740203
3.236,-0.061272348184483,-0.125238461507559
3.238,-0.0626227054758185,-0.124743258171569
3.24,-0.0639753197113694,-0.124229445646458
3.242,-0.0653304487139061,-0.123693182850793
3.244,-0.0666890545461684,-0.123133524132981
3.246,-0.068043495091613,-0.122554417026128
3.248,-0.0693997430653803,-0.121946779317137
3.25,-0.0707548566769992,-0.121318842505781
3.252,-0.0721071180853234,-0.120670723323633
3.254,-0.0734557549408231,-0.119990187983938
3.256,-0.0747991774062309,-0.119290047282383
3.258,-0.0761395297087637,-0.118568587547805
3.26,-0.077468836875183,-0.117816611499794
3.262,-0.0787895215869309,-0.117043737303253
3.264,-0.0801061129410025,-0.116241456496867
3.266,-0.0814115195746733,-0.115419279493483
3.268,-0.0827026515375425,-0.114572590372469
3.27,-0.0839843283956247,-0.113699725086985
3.272,-0.08524865230413,-0.112805637582156
3.274,-0.0864977306258963,-0.111886296914265
3.276,-0.0877340923757412,-0.110946578310829
3.278,-0.0889534413257944,-0.109984048198619
3.28,-0.0901523458845796,-0.109002586920684
3.282,-0.0913317197484739,-0.107997387266279
3.284,-0.0924969890151423,-0.106974543950745
3.286,-0.0936377854770687,-0.105932982950987
3.288,-0.0947587562298109,-0.104872525541974
3.29,-0.0958580473529762,-0.103800293271423
3.292,-0.0969338196459712,-0.102708461266729
3.294,-0.0979878726164589,-0.101606706907283
3.296,-0.099020375780602,-0.100489618435555
3.298,-0.100025265110017,-0.099364302651921
3.3,-0.101012063121485,-0.098220887290757
3.302,-0.101972380556401,-0.0970747382274829
3.304,-0.102907508613971,-0.0959172213157987
3.306,-0.103819651030186,-0.0947544644729946
3.308,-0.104711704703481,-0.0935806210686116
3.31,-0.105576348420183,-0.092405670651078
3.312,-0.106421412786738,-0.0912288095333005
3.314,-0.107241367763602,-0.0900466299618205
3.316,-0.108041824677956,-0.0888671574657823
3.318,-0.108817345284156,-0.0876822772898324
3.32,-0.109573176801918,-0.0864992413762342
3.322,-0.110309189973244,-0.0853182031811902
3.324,-0.111026681039261,-0.0841390842593709
3.326,-0.111724111556044,-0.0829660436504426
3.328,-0.112405702713934,-0.0817935072315907
3.33,-0.113067614239114,-0.0806238811811052
3.332,-0.113715309799103,-0.0794585134238989
3.334,-0.114348053525451,-0.0783014238621291
3.336,-0.114966566919214,-0.0771501105627856
3.338,-0.115575542531107,-0.0760024370232834
3.34,-0.116167803933102,-0.0748593889321442
3.342,-0.116751768854026,-0.0737240154996365
3.344,-0.117324852071599,-0.0725943026124825
3.346,-0.117888660911359,-0.0714665121115703
3.348,-0.118445743532031,-0.0703468748887129
3.35,-0.118995045609374,-0.069232954729455
3.352,-0.119538603210631,-0.0681227397818617
3.354,-0.120078316185032,-0.0670190021454176
3.356,-0.120617066187974,-0.0659179911818962
3.358,-0.121145835788741,-0.0648182710783293
3.36,-0.121673667810048,-0.0637209570259887
3.362,-0.122197495730194,-0.0626254217934171
3.364,-0.122722446075034,-0.0615333609748198
3.366,-0.123242695505697,-0.0604420628635916
3.368,-0.123763756889099,-0.0593475262277128
3.37,-0.124285412777204,-0.0582471239124807
3.372,-0.124801033283098,-0.0571510638489162
3.374,-0.125319040274788,-0.0560487982244204
3.376,-0.125836468890842,-0.0549421018664054
3.378,-0.126352912291772,-0.0538303688309588
3.38,-0.12687268008918,-0.0527125560100595
3.382,-0.127386570098734,-0.0515875938372676
3.384,-0.127901356110887,-0.0504526300789444
3.386,-0.128414087208414,-0.049312495233035
3.388,-0.128922457074689,-0.0481600704532745
3.39,-0.129427886108798,-0.0470013703323831
3.392,-0.129931536972399,-0.0458264320064763
3.394,-0.130430503685402,-0.0446446530893839
3.396,-0.130925296872427,-0.0434466957567036
3.398,-0.131412670860031,-0.0422360738621993
3.4,-0.131894289252988,-0.0410148903861265
3.402,-0.132368843648673,-0.0397791708276012
3.404,-0.132833352939257,-0.0385291383360835
3.406,-0.133287233252359,-0.0372618004129242
3.408,-0.133733986161836,-0.03598645255005
3.41,-0.134166551057974,-0.0346944163316889
3.412,-0.134587974942743,-0.0333885860872155
3.414,-0.134994460055668,-0.0320676782570991
3.416,-0.13538634022175,-0.0307330990479436
3.418,-0.135760239006292,-0.0293842577066081
3.42,-0.136122160744108,-0.0280250942114765
3.422,-0.136461872638425,-0.0266506280167805
3.424,-0.136787673243867,-0.025265580154063
3.426,-0.137092158464208,-0.0238693221427225
3.428,-0.137372520482079,-0.0224604531586846
3.43,-0.137637675721331,-0.0210427060121962
3.432,-0.137876140207248,-0.0196162812586924
3.434,-0.138095922177069,-0.0181799927048036
3.436,-0.138289772306843,-0.0167377159554868
3.438,-0.138460840818747,-0.0152881104784454
3.44,-0.138608757408315,-0.0138329914328102
3.442,-0.138732996902395,-0.0123746972081755
3.444,-0.138830791515002,-0.0109113197796369
3.446,-0.138903430938934,-0.00944401200698661
3.448,-0.138952494356294,-0.0079796028299652
3.45,-0.138975083566751,-0.00651359821264775
3.452,-0.138974100050694,-0.00504723042470222
3.454,-0.138946534092179,-0.00358427484574643
3.456,-0.138894311891762,-0.00212384773058083
3.458,-0.138818062740086,-0.00066925058672494
3.46,-0.138716221068375,0.000782680470208374
3.462,-0.13859142593574,0.00222801394987019
3.464,-0.138442942974315,0.00366469028151692
3.466,-0.13827061082724,0.00509455741894004
3.468,-0.138077723427509,0.00651500738220474
3.47,-0.13786081980462,0.0079240088564226
3.472,-0.137623158916117,0.00932254402087292
3.474,-0.13736462211793,0.0107115696086166
3.476,-0.137089038300826,0.0120869906393116
3.478,-0.136793073671046,0.0134492251053468
3.48,-0.136479768444348,0.0147994222907556
3.482,-0.136147700366577,0.0161372933650513
3.484,-0.135802429204691,0.0174579090558373
3.486,-0.135440791691662,0.0187651703353406
3.488,-0.135065271272627,0.0200585175197411
3.49,-0.134673917845843,0.0213357293753574
3.492,-0.134274230447932,0.0225985461846897
3.494,-0.133861384769095,0.0238466913182793
3.496,-0.133438372740565,0.025079664197463
3.498,-0.133005458402901,0.0262975518408831
3.5,-0.132560934179396,0.0274998562129316
3.502,-0.132112246043424,0.0286901034589651
3.504,-0.131654736449503,0.0298630487673738
3.506,-0.131192213921821,0.0310219396275141
3.508,-0.130724685946933,0.0321690138644342
3.51,-0.130252618742048,0.0333027723144722
3.512,-0.129777357210218,0.0344245761356368
3.514,-0.129301161417046,0.0355333989377
3.516,-0.128815036169291,0.0366288372567318
3.518,-0.128329809543324,0.0377155159899331
3.52,-0.127845706297516,0.0387951400001474
3.522,-0.127359311652488,0.0398592476564514
3.524,-0.12686734023827,0.0409145378892149
3.526,-0.126377868075351,0.0419665004798455
3.528,-0.125889326192635,0.0430096946373167
3.53,-0.125397398007279,0.0440444361370845
3.532,-0.124904227129472,0.0450747822963362
3.534,-0.124416674111063,0.0460979600071984
3.536,-0.123923874114135,0.0471174983779535
3.538,-0.123429740327494,0.048138294307704
3.54,-0.12293758842702,0.0491473597004222
3.542,-0.122445144059001,0.0501606118763213
3.544,-0.12194772537331,0.0511671598763127
3.546,-0.12145311629355,0.0521753580545896
3.548,-0.120950436564099,0.0531825045022344
3.55,-0.120449786826067,0.0541927857808438
3.552,-0.119947259314199,0.0551988108145516
3.554,-0.119438397867978,0.0562104325086826
3.556,-0.118925641299174,0.0572209961022487
3.558,-0.118409133221616,0.0582321417002887
3.56,-0.117885753047194,0.0592432404730024
3.562,-0.117356836169587,0.0602629258547256
3.564,-0.116819035015437,0.0612797617377101
3.566,-0.116279965837482,0.0623002705856854
3.568,-0.11572726974584,0.0633261344902709
3.57,-0.115167713125179,0.0643486545162099
3.572,-0.114598472731001,0.0653779790813531
3.574,-0.114017604590628,0.0664062353735179
3.576,-0.113426707188973,0.0674405368761303
3.578,-0.112820265229398,0.068477342784669
3.58,-0.112207459554755,0.0695112936769463
3.582,-0.111577400046255,0.0705477203001691
3.584,-0.110931393934827,0.071583390219838
3.586,-0.110273174073117,0.0726220633794247
3.588,-0.109600693537043,0.0736554360188896
3.59,-0.108912057595549,0.0746913896519944
3.592,-0.108206046169871,0.0757261367884159
3.594,-0.107484945968522,0.0767561145612786
3.596,-0.106746953375021,0.0777818522376876
3.598,-0.105990771088576,0.0788062909395024
3.6,-0.105217515443798,0.0798231058209428
3.602,-0.104427695489316,0.080835020033811
3.604,-0.103617410108454,0.0818404640514087
3.606,-0.102790710890802,0.0828351734342682
3.608,-0.101945666776851,0.0838262852359634
3.61,-0.101084397723548,0.0848038069018266
3.612,-0.100201726326881,0.0857741906585414
3.614,-0.09930325605243,0.0867317467084679
3.616,-0.0983895017979138,0.0876756901519591
3.618,-0.0974583536077556,0.088607947538639
3.62,-0.0965079971905832,0.0895254820596458
3.622,-0.0955422989728115,0.0904283967209597
3.624,-0.0945620196521408,0.0913161063959854
3.626,-0.0935638178731196,0.0921875643565147
3.628,-0.0925540608986849,0.0930408681328085
3.63,-0.0915302240487032,0.0938766155903693
3.632,-0.0904970413315401,0.0946934740088583
3.634,-0.0894461281722142,0.0954920045942071
3.636,-0.0883847622872088,0.0962705620615139
3.638,-0.087314685723726,0.0970288210708041
3.64,-0.0862351295704427,0.0977660389075675
3.642,-0.0851464711644157,0.0984836168431043
3.644,-0.0840516093263463,0.0991788512576958
3.646,-0.0829493683894328,0.0998535466956065
3.648,-0.0818415947129369,0.100506684385864
3.65,-0.0807297443392152,0.10113626065786
3.652,-0.0796156441509752,0.101750825824808
3.654,-0.0784954411645551,0.102337016724948
3.656,-0.0773760804203943,0.102904579908621
3.658,-0.0762569682078053,0.103454002633148
3.66,-0.0751360766255804,0.103978669171507
3.662,-0.0740177881905445,0.104483821441842
3.664,-0.0729002096166043,0.104969837605797
3.666,-0.0717881580060947,0.105436778906651
3.668,-0.0706771517074271,0.105884365524292
3.67,-0.0695728047781147,0.106315295083007
3.672,-0.0684722052953519,0.106728445034268
3.674,-0.0673795691191932,0.107123921286569
3.676,-0.0662923955978499,0.107503672161203
3.678,-0.0652080849240144,0.107868858623389
3.68,-0.0641365071082285,0.108216952187218
3.682,-0.0630705853963316,0.108553611178047
3.684,-0.0620116869849687,0.108876714877862
3.686,-0.0609618024201483,0.109188594556615
3.688,-0.059922257864882,0.109490035966055
3.69,-0.0588887947928625,0.109781164903386
3.692,-0.0578625404132549,0.110063100532821
3.694,-0.056849905816515,0.110335349814341
3.696,-0.0558401849083013,0.110603819363946
3.698,-0.0548432068754635,0.110859494351444
3.7,-0.053851145888104,0.11111378723833
3.702,-0.0528668542297052,0.111361934626023
3.704,-0.0518905544033483,0.111604409868724
3.706,-0.0509192761290189,0.111843832436918
3.708,-0.0499559077729834,0.112082025111536
3.71,-0.0489972947892514,0.1123156611625
3.712,-0.0480415040155272,0.112548083598676
3.714,-0.047096062058179,0.112779984933918
3.716,-0.0461479909563147,0.113008601815981
3.718,-0.0452055569168621,0.113237255680269
3.72,-0.0442680385427527,0.113467194603434
3.722,-0.0433269455616388,0.113693305035807
3.724,-0.042392283885259,0.113923376822697
3.726,-0.0414556955132682,0.114151597799529
3.728,-0.0405145764360552,0.114377909091823
3.73,-0.0395778359367279,0.114607511440062
3.732,-0.0386365403237063,0.114835676244342
3.734,-0.0376910720693625,0.115062928027959
3.736,-0.0367441571853823,0.115289729188801
3.738,-0.0357923514730859,0.115514327861592
3.74,-0.0348333878146767,0.115739276977037
3.742,-0.0338707279565766,0.11596139698679
3.744,-0.032902882680405,0.1161821967793
3.746,-0.0319266540708577,0.116398546537493
3.748,-0.0309463214889832,0.11660844715737
3.75,-0.029954140075317,0.116821496581633
3.752,-0.0289560777664924,0.117025631688767
3.754,-0.0279522075619863,0.117223652199828
3.756,-0.0269363658880003,0.117417271652686
3.758,-0.0259146381474503,0.117600777597418
3.76,-0.0248832080590652,0.117778078552921
3.762,-0.0238407607706571,0.117949921681226
3.764,-0.0227927876634565,0.118109783732629
3.766,-0.0217341060166317,0.118258635664177
3.768,-0.0206676316778991,0.118396375591351
3.77,-0.0195943013692739,0.118523332244464
3.772,-0.0185108851489708,0.118636713725922
3.774,-0.0174216578084069,0.118738170613295
3.776,-0.0163272027413638,0.118823879029583
3.778,-0.0152211907292697,0.118895038160411
3.78,-0.0141098423806254,0.118951508960247
3.782,-0.0129936265495656,0.118991701806885
3.784,-0.0118728117865603,0.119014179049062
3.786,-0.0107476095802462,0.11902037917431
3.788,-0.00962043816361815,0.119008796082673
3.79,-0.00848874191814551,0.118979503414565
3.792,-0.00735346115664067,0.118930713532754
3.794,-0.00622068115176233,0.118863962811247
3.796,-0.00508588466798129,0.118778905052083
3.798,-0.00394925520706688,0.118672073931006
3.8,-0.00281575942234677,0.118546752725077
3.802,-0.00168604503479079,0.118402148065191
3.804,-0.000556913336884033,0.118238273922454
3.806,0.000566191155675508,0.118054169696585
3.808,0.00168449095075254,0.117851109392074
3.81,0.00279735923944977,0.117630414968413
3.812,0.00390484173958295,0.117388791979143
3.814,0.00500272711119017,0.117131345802862
3.816,0.00609160542477176,0.116855093721147
3.818,0.00717357111068423,0.116554638675396
3.82,0.00824409549227112,0.116242154583597
3.822,0.00930348396925717,0.115911190157044
3.824,0.0103522423579409,0.115568799541941
3.826,0.0113878322964711,0.115207027596983
3.828,0.0124106814973591,0.114830015617035
3.83,0.0134215745301134,0.114439919919272
3.832,0.0144179027109344,0.11403606405203
3.834,0.015402897402221,0.113622021013242
3.836,0.0163707755959614,0.113195338301643
3.838,0.0173235660019229,0.112754281050097
3.84,0.0182611645156799,0.112306711815222
3.842,0.0191807029955272,0.111846012155049
3.844,0.0200877894821687,0.111379953008176
3.846,0.020979579043273,0.110905845592442
3.848,0.021854679348873,0.110425173141713
3.85,0.0227135612115855,0.109937581541136
3.852,0.023558504210659,0.10944666821127
3.854,0.0243891135988963,0.108952599153013
3.856,0.0252034960613614,0.108454471276951
3.858,0.0260024056369444,0.107953332162637
3.86,0.026790038678777,0.107450902179943
3.862,0.0275587747064504,0.10694771732626
3.864,0.0283150597660784,0.106444647965821
3.866,0.0290606339892071,0.105941110386613
3.868,0.0297922399344446,0.105438977738543
3.87,0.0305119709569121,0.104937683042022
3.872,0.0312234568656653,0.104438809902482
3.874,0.0319228459491071,0.103942005387894
3.876,0.0326104021813539,0.103449946635267
3.878,0.0332862763312417,0.10296038290213
3.88,0.0339572466996352,0.102475757063995
3.882,0.0346198951697998,0.101993828137816
3.884,0.0352763740967259,0.101517404490439
3.886,0.0359259134491743,0.101043926773021
3.888,0.0365698579682174,0.100573699767479
3.89,0.0372092176253879,0.100106893975916
3.892,0.0378438994024088,0.099644796613054
3.894,0.0384754896064607,0.099188902632631
3.896,0.0391057854217541,0.09873434031488
3.898,0.0397335493920694,0.0982826735219227
3.9,0.0403597095215106,0.097835379058221
3.902,0.0409860051135812,0.0973909829950452
