"Freq [GHz]","re(S(Antenna1_1_p1,Antenna1_1_p1)) []","im(S(Antenna1_1_p1,Antenna1_1_p1)) []"
3,0.0936862475033872,-0.068703885096587
3.002,0.0948341910489999,-0.0703069956891278
3.004,0.0959237892619265,-0.072066987498213
3.006,0.0969335687555175,-0.0739903449518325
3.008,0.0978445389100517,-0.0760398283260777
3.01,0.0985697201932745,-0.0782565439228913
3.012,0.0993664854259965,-0.0805604354472454
3.014,0.0998812174737069,-0.08300380801384
3.016,0.100319882258189,-0.085563783153087
3.018,0.100669695079242,-0.088223636266679
3.02,0.100813256346394,-0.090978766032505
3.022,0.10078841324066,-0.093793872239112
3.024,0.100589301516381,-0.096690552881568
3.026,0.100221886863118,-0.099634931438792
3.028,0.0996808343475956,-0.102623905702353
3.03,0.0989559974257071,-0.105620857733811
3.032,0.0980443084446373,-0.108632218133085
3.034,0.0968916919750112,-0.11158854662326
3.036,0.0956514471731525,-0.114632808914279
3.038,0.0941859223634368,-0.117579602439175
3.04,0.0925328334907017,-0.120480889925268
3.042,0.090696095342807,-0.123333447441676
3.044,0.08869905196324,-0.126094083194039
3.046,0.0865271791638701,-0.128776011502736
3.048,0.084190794757786,-0.131348065236616
3.05,0.0817047597822692,-0.133806157082254
3.052,0.079063168041858,-0.136135298010705
3.054,0.07630034651155,-0.138332275543839
3.056,0.0734200242101328,-0.140374855800182
3.058,0.0704073798036504,-0.142253166200212
3.06,0.0673424502289762,-0.14389864435134
3.062,0.0641156748095629,-0.145527344492313
3.064,0.0608613447782852,-0.146903407467263
3.066,0.0575356729044716,-0.148096454989194
3.068,0.0541722340520752,-0.149086141823156
3.07,0.0507733732247626,-0.1499013275489
3.072,0.0473591443444154,-0.150522029563082
3.074,0.0439428170207382,-0.150950099451131
3.076,0.0405398447680651,-0.151188477698602
3.078,0.0372212888773133,-0.151198397482142
3.08,0.0339103928472896,-0.151064086650073
3.082,0.0305598776000308,-0.15078316055249
3.084,0.027351933640247,-0.150285049450999
3.086,0.0243131283479667,-0.149608443978127
3.088,0.0212030472324046,-0.148793122626151
3.09,0.0182787903059499,-0.147826899065669
3.092,0.015490506740368,-0.146706455933825
3.094,0.0128867772932107,-0.145466376401958
3.096,0.0102950205544003,-0.144085749323094
3.098,0.0079115649629856,-0.142591597548897
3.1,0.0056717431141464,-0.141014587283316
3.102,0.0036065010763232,-0.13937236231508
3.104,0.0017084514688112,-0.137643169624592
3.106,-2.1283071109001E-05,-0.135857771306469
3.108,-0.0015794856899197,-0.134043298236813
3.11,-0.0029617476500705,-0.132187409721959
3.112,-0.0041632514617469,-0.130328758668783
3.114,-0.0051964414344416,-0.128479694973964
3.116,-0.0060438371182842,-0.126634843137707
3.118,-0.0067401081851924,-0.12482060316227
3.12,-0.0072640345398114,-0.123068474490144
3.122,-0.0076223417201512,-0.121377646324856
3.124,-0.0078372366181207,-0.119756245426503
3.126,-0.0078938089097142,-0.118216014583957
3.128,-0.0078235280550773,-0.116774082777773
3.13,-0.0076137055782329,-0.115453162851722
3.132,-0.00729173826667992,-0.114246156744102
3.134,-0.006854735660716,-0.113162830468731
3.136,-0.00635857089247901,-0.112279267165617
3.138,-0.00572488345482517,-0.111414857641332
3.14,-0.0050517237149235,-0.110762056029134
3.142,-0.00431916474365577,-0.11027322852881
3.144,-0.00355291544569778,-0.109944923856205
3.146,-0.00274003235145118,-0.109773046582471
3.148,-0.00193240379003422,-0.109776823153098
3.15,-0.00112608399671211,-0.109940854986622
3.152,-0.00032170352106302,-0.110273947863115
3.154,0.00043665050317696,-0.11076023387237
3.156,0.0011438108974208,-0.111428269531885
3.158,0.00179766494223433,-0.112233171344539
3.16,0.0023871741981932,-0.113187791996072
3.162,0.002877491082996,-0.114298320102263
3.164,0.0032638110697852,-0.11553808701596
3.166,0.0035631917728009,-0.11692044877377
3.168,0.0037057953322122,-0.118400679602574
3.17,0.0037372199592621,-0.120004971585821
3.172,0.003564845461635,-0.121682921569584
3.174,0.003280985299098,-0.123452322268355
3.176,0.0029333639594096,-0.125315305990713
3.178,0.0023432447644354,-0.127235123773705
3.18,0.0015843903266281,-0.129181052833031
3.182,0.000651984315659299,-0.131170999094046
3.184,-0.000463619854639403,-0.133167034791555
3.186,-0.0017565097090488,-0.135160831061013
3.188,-0.0032187386435233,-0.13715548997875
3.19,-0.0049225970674359,-0.139064886961557
3.192,-0.0067058651456117,-0.141026980389312
3.194,-0.0087157643000576,-0.142896921965998
3.196,-0.0109123788714375,-0.144624246696725
3.198,-0.0132228091102961,-0.146384404328217
3.2,-0.0157594341379762,-0.147912977538068
3.202,-0.0183713372273491,-0.149474982796932
3.204,-0.021181131793184,-0.150747452867445
3.206,-0.0240933063423099,-0.152064191697038
3.208,-0.0271406797934999,-0.153154517720586
3.21,-0.0303087371170784,-0.15407350989289
3.212,-0.0335606346042741,-0.154831765901009
3.214,-0.0368950653862763,-0.155344018546442
3.216,-0.0403231682600783,-0.155814025367167
3.218,-0.0437918046849802,-0.156036181439524
3.22,-0.0473209604078896,-0.156064099710005
3.222,-0.0508799394463105,-0.155894654096815
3.224,-0.0544492398196017,-0.155521713661418
3.226,-0.0580118110459182,-0.15496371899985
3.228,-0.0615569281924161,-0.154205301933954
3.23,-0.0650905353122065,-0.153251068492507
3.232,-0.0684892238944913,-0.152064188082175
3.234,-0.0719758156674804,-0.150766172948403
3.236,-0.075306491345483,-0.149244472026159
3.238,-0.0785740985188185,-0.147529873490569
3.24,-0.0817270899423694,-0.145658120177458
3.242,-0.0847667464399061,-0.143627398893793
3.244,-0.0876866614591684,-0.141436766117981
3.246,-0.090456740196613,-0.139106727720128
3.248,-0.0930127994819803,-0.136655727892137
3.25,-0.0954848037424992,-0.134070641627781
3.252,-0.0978677845269234,-0.131362961522633
3.254,-0.100010466559223,-0.128562528743938
3.256,-0.101965173682031,-0.125688375025383
3.258,-0.103737146619864,-0.122745010288805
3.26,-0.105265177292013,-0.119789363822794
3.262,-0.106732123275231,-0.116712067655253
3.264,-0.107929782696102,-0.113660438971067
3.266,-0.108942486623173,-0.110588206563483
3.268,-0.109755656688843,-0.107525664478469
3.27,-0.110390181800925,-0.104504278544985
3.272,-0.11082702732403,-0.101480874447156
3.274,-0.111088693610596,-0.098529136850265
3.276,-0.111172573491741,-0.095651065231829
3.278,-0.111079460877794,-0.092839465020619
3.28,-0.11083515402858,-0.090124825128684
3.282,-0.110423904843474,-0.087495323390279
3.284,-0.109877948211142,-0.085006640650745
3.286,-0.109199996309069,-0.082636265245387
3.288,-0.108390632772811,-0.080504471968274
3.29,-0.107468837134976,-0.078287142681023
3.292,-0.106446835353971,-0.076344078961529
3.294,-0.105349499404459,-0.074548114772683
3.296,-0.104168523766602,-0.072920903251055
3.298,-0.102939853927017,-0.071464725175541
3.3,-0.101659894859485,-0.070175633605977
3.302,-0.100356858912701,-0.0690609019017829
3.304,-0.099054265792971,-0.0681145917504987
3.306,-0.097727760529186,-0.0673520998263946
3.308,-0.096424050860481,-0.0667561617990116
3.31,-0.095162581960183,-0.066337183081678
3.312,-0.093934060681738,-0.0660699156601005
3.314,-0.092783217240602,-0.0659746109408205
3.316,-0.091747137358956,-0.0660604074597823
3.318,-0.090662265849156,-0.0662449112908324
3.32,-0.089858993424918,-0.0665938328242342
3.322,-0.088958943606244,-0.0670498977251902
3.324,-0.088270774824161,-0.0676600799323709
3.326,-0.087713766515144,-0.0683554410464426
3.328,-0.087294848585334,-0.0691545046085907
3.33,-0.087024791914514,-0.0700510468091052
3.332,-0.086906999819803,-0.0710031211158989
3.334,-0.086928002929151,-0.0720377841381291
3.336,-0.087148462844604,-0.0731004456967856
3.338,-0.087512129735247,-0.0742005018832834
3.34,-0.088044551990002,-0.0753241657311442
3.342,-0.088754077470126,-0.0764452190108365
3.344,-0.089636515611499,-0.0775451613604825
3.346,-0.090682717346659,-0.0786303340715703
3.348,-0.091904277956631,-0.0796790515977129
3.35,-0.093281422862474,-0.080648613281455
3.352,-0.094813706136631,-0.0815635390318617
3.354,-0.096556575244032,-0.0823355010304176
3.356,-0.098359913142974,-0.0831429557328962
3.358,-0.100341793705741,-0.0837755072463293
3.36,-0.102452382739048,-0.0842949633379887
3.362,-0.104692275374194,-0.0846814327444171
3.364,-0.107040736777034,-0.0848417044905198
3.366,-0.109467807257697,-0.0850093949386916
3.368,-0.112018237320099,-0.0849428675780128
3.37,-0.114587527911204,-0.0846123293734807
3.372,-0.117267106959098,-0.0842861784053162
3.374,-0.119967517860788,-0.0836261474383304
3.376,-0.122729829180842,-0.0829432558313154
3.378,-0.125446511975772,-0.0819062039965588
3.38,-0.12827627360678,-0.0808574752793595
3.382,-0.130989973139734,-0.0794580116776676
3.384,-0.133777839521887,-0.0780085403917444
3.386,-0.136462703922414,-0.076316623183935
3.388,-0.139110246573689,-0.0744372270384745
3.39,-0.141584273198798,-0.0723276009313831
3.392,-0.144101015919399,-0.0701149537204763
3.394,-0.146575183285402,-0.0677597933153839
3.396,-0.148857794217427,-0.0652012385277036
3.398,-0.151045392906031,-0.0624972586111993
3.4,-0.153066756647788,-0.0596404801321265
3.402,-0.154886345961073,-0.0566387414096012
3.404,-0.156709282901757,-0.0535475214360835
3.406,-0.158302656178559,-0.0503237699179242
3.408,-0.159701036838336,-0.04701765832605
3.41,-0.160930205931074,-0.0436252976666889
3.412,-0.161986532714713,-0.0401526310422155
3.414,-0.162848247519788,-0.0366212223970991
3.416,-0.16352225363385,-0.0330545973739436
3.418,-0.163931255255692,-0.0294964277216081
3.42,-0.164206653439408,-0.0258927931439765
3.422,-0.164366627908225,-0.0222321087177805
3.424,-0.164245935288167,-0.018636649082063
3.426,-0.163945430731508,-0.0150865621597225
3.428,-0.163448477960079,-0.0115578666346846
3.43,-0.162719357428331,-0.0081671102611962
3.432,-0.161902840466248,-0.0047161789316924
3.434,-0.160861403132069,-0.0014058997008036
3.436,-0.159652641184843,0.0018011083225132
3.438,-0.158284888836747,0.0048976470927546
3.44,-0.156759141775315,0.0078781932154898
3.442,-0.155108463455395,0.0107114103149245
3.444,-0.153319533741002,0.0134112429912631
3.446,-0.151416959896934,0.0159541438080134
3.448,-0.149413981540294,0.0183411712491348
3.45,-0.147317096781751,0.0205596419260523
3.452,-0.145165157939694,0.0225321182445778
3.454,-0.142924434884179,0.0244074008816536
3.456,-0.140593066296762,0.0261773110420192
3.458,-0.138254878646086,0.0276884373646751
3.46,-0.135906415354375,0.0290088861593084
3.462,-0.13354490076874,0.0301504415224702
3.464,-0.131190094073315,0.0311062104537169
3.466,-0.12885682850424,0.03188292493154
3.468,-0.126568916614509,0.0324844055792047
3.47,-0.12431156339762,0.0329019237104226
3.472,-0.122122950788117,0.0331595798748729
3.474,-0.12002044673093,0.0332484822736166
3.476,-0.117989157276626,0.0331776956443116
3.478,-0.116070709750446,0.0329659386463468
3.48,-0.114274249971248,0.0326225293157556
3.482,-0.112596002080277,0.0321451399700513
3.484,-0.111027653219791,0.0315480688628373
3.486,-0.109620523851562,0.0308574752483406
3.488,-0.108358660645227,0.0300603841357411
3.49,-0.107247708306493,0.0291909260853574
3.492,-0.106302546485232,0.0282592428716897
3.494,-0.105517048093395,0.0272771315692793
3.496,-0.104898195832865,0.026242325448463
3.498,-0.104449890273101,0.0251972446861831
3.5,-0.104248393588696,0.0241958141089316
3.502,-0.104067390546824,0.0230833781909651
3.504,-0.104133414004503,0.0220444677473738
3.506,-0.104372068745821,0.0210577388395141
3.508,-0.104761056308933,0.0200965815404342
3.51,-0.105313505763048,0.0192054179294722
3.512,-0.106029087085218,0.0183813819436368
3.514,-0.106885261367046,0.0176627244599
3.516,-0.107879795131291,0.0170167857842318
3.518,-0.108997209978324,0.0165118928535331
3.52,-0.110254676182516,0.0161084910573474
3.522,-0.111600564618488,0.0158375383394514
3.524,-0.11305330985727,0.0157104557692149
3.526,-0.114592293272351,0.0158423404228455
3.528,-0.116236441075635,0.0159030057044167
3.53,-0.117876995956279,0.0163407464867345
3.532,-0.119643808696472,0.0167510368320362
3.534,-0.121409130912063,0.0174334841024984
3.536,-0.123192194504135,0.0182889734405535
3.538,-0.124991496863064,0.019326507569104
3.54,-0.12669784079802,0.0206052639714222
3.542,-0.128537668102001,0.0219221954910213
3.544,-0.13025660683331,0.0234827479212127
3.546,-0.13193517457555,0.0252267278645896
3.548,-0.133545820919099,0.0271363436622344
3.55,-0.135058955421067,0.0292080341228438
3.552,-0.136498149466199,0.0314314028715516
3.554,-0.137842129904678,0.0338199554486826
3.556,-0.139048423998874,0.0363453831182487
3.558,-0.140133607198016,0.0390051607062887
3.56,-0.141074446632794,0.0417829389890024
3.562,-0.141778300819887,0.0446781173007256
3.564,-0.142504024386437,0.0476669562617101
3.566,-0.142981909414482,0.0507643421156854
3.568,-0.14328158226527,0.0539315731972709
3.57,-0.143393845503569,0.0571557172122099
3.572,-0.143323205021901,0.0604323456863531
3.574,-0.143060014184728,0.0637554142115179
3.576,-0.142609125972573,0.0670898088111303
3.578,-0.141964150566098,0.070443714057969
3.58,-0.141114115210155,0.0737765147819463
3.582,-0.140012169007755,0.0770202729071691
3.584,-0.138842351614027,0.080366240382838
3.586,-0.137423027660117,0.0835919899724247
3.588,-0.135813987027043,0.0867528191078896
3.59,-0.133990943919549,0.0897270063339944
3.592,-0.132036437659871,0.0927086262984159
3.594,-0.129932517421522,0.0956890042146786
3.596,-0.127641621573021,0.0984504327308876
3.598,-0.125201360021576,0.101069532434302
3.6,-0.122624432316798,0.103557037145643
3.602,-0.119913887814316,0.105891117063311
3.604,-0.117099914619454,0.107958759967309
3.606,-0.114148618310802,0.110057312603068
3.608,-0.111121988583851,0.111879842675005
3.61,-0.108018580635548,0.113518805599927
3.612,-0.104847574327881,0.114965001210241
3.614,-0.10162598063343,0.116225916146968
3.616,-0.0983771400899138,0.117282626122559
3.618,-0.0951050678195556,0.118145425013539
3.62,-0.0918232929465832,0.118805225102946
3.622,-0.0885529192838115,0.11927265942256
3.624,-0.0853074465131408,0.119539072964985
3.626,-0.0821872326521196,0.119558213095515
3.628,-0.0789527418566849,0.119496294633809
3.63,-0.0758661049857032,0.119195480395369
3.632,-0.0728592771745401,0.118710896972858
3.634,-0.0699521343416142,0.118057986897207
3.636,-0.0671516716120088,0.117249600178514
3.638,-0.064476456441026,0.116277520696804
3.64,-0.0619355589378427,0.115172610392567
3.642,-0.0595176742491157,0.113918515927104
3.644,-0.0572609575626463,0.112552288992696
3.646,-0.0551529867010528,0.111082513372607
3.648,-0.0533298761254769,0.109542685270864
3.65,-0.0514749840393152,0.10786446347586
3.652,-0.0499877352019752,0.106179809843808
3.654,-0.0484920581826551,0.104362818284948
3.656,-0.0472813794941943,0.102551492452621
3.658,-0.0462569874469053,0.100722185305148
3.66,-0.0454155797224804,0.098882778747507
3.662,-0.0447663041579445,0.097051449470842
3.664,-0.0443069139496043,0.095241542935797
3.666,-0.0440293828770947,0.093468719005651
3.668,-0.0439222465474271,0.091742971371292
3.67,-0.0439977163691147,0.090086787587007
3.672,-0.0442376661263519,0.088515628893068
3.674,-0.0446374605231932,0.087037418991169
3.676,-0.0451848368678499,0.085664537871703
3.678,-0.0458693466870144,0.084415248570789
3.68,-0.0467044777102285,0.083277378657218
3.682,-0.0476456504243316,0.082290511289147
3.684,-0.0487007274779687,0.081450616390662
3.686,-0.0498496847761483,0.080771906268165
3.688,-0.051065141234882,0.080259666866555
3.69,-0.0523803473138625,0.079905001295286
3.692,-0.0536798419612549,0.079838882194221
3.694,-0.055114843288515,0.079747386939341
3.696,-0.0565375373269013,0.079943579788246
3.698,-0.0579563064884635,0.080322723445544
3.7,-0.059374049898104,0.08089274273803
3.702,-0.0607719326257052,0.081643046899723
3.704,-0.0621203751263483,0.082568751246724
3.706,-0.0634289546990189,0.083683918361918
3.708,-0.0646600814529834,0.084969540449536
3.71,-0.0658174775642514,0.0864279311995
3.712,-0.0668782370981272,0.088038734141676
3.714,-0.067827085617879,0.089813525489918
3.716,-0.0685452456004147,0.091747471205981
3.718,-0.0693481449721621,0.093788532473269
3.72,-0.0698963776649527,0.095961285140434
3.722,-0.0702882721520388,0.098255358374807
3.724,-0.070507489844209,0.100633436485697
3.726,-0.0705676277159882,0.103129314667529
3.728,-0.0704396796919552,0.105689311622823
3.73,-0.0699953534831279,0.108238073271062
3.732,-0.0696219339835063,0.110953839514342
3.734,-0.0689187259666625,0.113626206082959
3.736,-0.0680198884724823,0.116338654057501
3.738,-0.0669150640239859,0.119046577471592
3.74,-0.0656236555142767,0.121707638672037
3.742,-0.0641207432035766,0.12434999382779
3.744,-0.062419410006405,0.1269595220643
3.746,-0.0605360975888577,0.129491296660493
3.748,-0.0584188699659832,0.13182361300637
3.75,-0.056198998849317,0.134298349887433
3.752,-0.0537603871944924,0.136540217413967
3.754,-0.0511596332389863,0.138663007310228
3.756,-0.0484012378500003,0.140649429115486
3.758,-0.0454968048524503,0.142487435904918
3.76,-0.0424517926270652,0.144161238720421
3.762,-0.0392991617486571,0.145662426911226
3.764,-0.0360145615044565,0.146990732504489
3.766,-0.0326434378026317,0.148131510795677
3.768,-0.0291849684708991,0.149063813198851
3.77,-0.0256770311172739,0.149810478586864
3.772,-0.0220977651439708,0.150341475311422
3.774,-0.0184907240864069,0.150658636322995
3.776,-0.0148669843518798,0.150765385940683
3.778,-0.0112368423272697,0.150658485631911
3.78,-0.0077026721026254,0.150259000032047
3.782,-0.0040354303805656,0.149800694293885
3.784,-0.0004851536335603,0.149043925167062
3.786,0.00299454348575378,0.14809123537731
3.788,0.00640581986058185,0.146932091095673
3.79,0.00959904695085449,0.145536993547565
3.792,0.0127517326829593,0.144005787661754
3.794,0.0159939625693377,0.142310536989247
3.796,0.0189430359279187,0.140417827342083
3.798,0.0217457617514331,0.138362026522006
3.8,0.0242603559165532,0.136166646479077
3.802,0.0267258119629092,0.133844309690191
3.804,0.029146905121936,0.131365641427454
3.806,0.0312564401355755,0.128816564516585
3.808,0.0331578433148525,0.126145061664074
3.81,0.0348598278182498,0.123410782574413
3.812,0.0362522361499829,0.120681505255143
3.814,0.0376441848180902,0.117785327868862
3.816,0.0387203699123718,0.114912909982847
3.818,0.0395809574821842,0.112038866903396
3.82,0.0401235032040711,0.109284176542597
3.822,0.0406633998592572,0.106319975808044
3.824,0.0408312031209409,0.103614468649941
3.826,0.0409101498014711,0.100759855646983
3.828,0.0407209190493591,0.098064620464835
3.83,0.0403472353561134,0.095463026572572
3.832,0.0397890322029344,0.09296940217403
3.834,0.039041122107221,0.090581800365142
3.836,0.0381456846289614,0.088323605881143
3.838,0.0370725202669229,0.086210360273797
3.84,0.0358645398946799,0.084249979618522
3.842,0.0345355844265272,0.082449735321449
3.844,0.0331050787331687,0.080988284126506
3.846,0.031519138757273,0.079384578342342
3.848,0.029919628593873,0.078249405679313
3.85,0.0281599741285855,0.077079336946336
3.852,0.026380837779659,0.07622845428777
3.854,0.0245665743708963,0.075581123630213
3.856,0.0227333537513614,0.075138810529251
3.858,0.0208994485749444,0.074906026776237
3.86,0.019072012279777,0.074872568654943
3.862,0.0173806690464504,0.07512336708826
3.864,0.0155246094590784,0.075428763084821
3.866,0.0138358072292071,0.076007266865613
3.868,0.0122213016995446,0.076767929260543
3.87,0.0108309133995121,0.077768850125022
3.872,0.0092900876676653,0.078854815106482
3.874,0.0080106189549071,0.080154802300894
3.876,0.0068649525075539,0.081606525019267
3.878,0.0058734833202417,0.08320781146413
3.88,0.0050159737486352,0.084929935945995
3.882,0.0044902117820098,0.086760055689816
3.884,0.0038683147856259,0.088732251171439
3.886,0.0035666652329743,0.090790111594021
3.888,0.0034754895178174,0.092909905766479
3.89,0.0035796137560879,0.095087551101916
3.892,0.0038834845076088,0.097304998855054
3.894,0.0044094539876607,0.099542317633631
3.896,0.0052360094583541,0.10170678314288
3.898,0.0060813908398694,0.104030558037923
3.9,0.0073200127415106,0.106139496411221
3.902,0.0085943105325812,0.108409236288045
3.904,0.0101625494031329,0.110517239382914
3.906,0.0119887822245004,0.112424460308086
3.908,0.013908992359716,0.114464410252025
