"Freq [GHz]","re(S(Antenna1_1_p1,Antenna1_1_p1)) []","im(S(Antenna1_1_p1,Antenna1_1_p1)) []"
3,0.035107309474332,0.148571092460416
3.002,0.0462398433667789,0.145926269065931
3.004,0.0571901846655384,0.142656086451602
3.006,0.0679264924010304,0.138771447422238
3.008,0.0784175148823461,0.134284781134868
3.01,0.0886326595566961,0.129210013250465
3.012,0.0985420615717887,0.123562533285737
3.014,0.108116651036807,0.117359158954209
3.016,0.117328217736581,0.110618097985531
3.018,0.126149475832493,0.103358906311721
3.02,0.134554124492554,0.0956024436089888
3.022,0.14251690856208,0.0873708268837353
3.024,0.150013675355318,0.0786873801914804
3.026,0.157021430567402,0.0695765826775988
3.028,0.163518391105051,0.0600640136290486
3.03,0.169484035333497,0.0501762958266057
3.032,0.174899151536271,0.039941035887536
3.034,0.179745882783667,0.029386762779118
3.036,0.184007769304948,0.0185428643839576
3.038,0.187669788758651,0.00743952215862508
3.04,0.190718392294751,-0.00389235622223166
3.042,0.19314153850184,-0.0154212056334833
3.044,0.194928723931999,-0.0271148739553189
3.046,0.196071010695577,-0.0389406938730298
3.048,0.196561050117744,-0.0508655558968277
3.05,0.19639310434832,-0.0628559825480013
3.052,0.195563063116155,-0.0748782035029641
3.054,0.194068458519126,-0.0868982315419872
3.056,0.191908475340632,-0.0988819392046541
3.058,0.189083958383415,-0.110795135937314
3.06,0.185597416411442,-0.122603645671058
3.062,0.181453022090599,-0.134273384511994
3.064,0.175216107718978,-0.14537468391385
3.066,0.167899117837627,-0.155980933611201
3.068,0.160008526712744,-0.166171563580899
3.07,0.151566680180469,-0.175917800918538
3.072,0.142597291645624,-0.185192002536101
3.074,0.133125389025996,-0.193967717426215
3.076,0.123177256634029,-0.202219747167749
3.078,0.112780376588121,-0.209924203586798
3.08,0.101963365846074,-0.217058562866401
3.082,0.0907559118536391,-0.223601718597688
3.084,0.0791887055015748,-0.229534030164445
3.086,0.0672933719850855,-0.234837368952468
3.088,0.055102399350086,-0.239495161374377
3.09,0.0426490654113142,-0.243492428499958
3.092,0.0299673627079699,-0.246815822481439
3.094,0.0170919218032705,-0.249453659362533
3.096,0.00405793311508501,-0.251395948759441
3.098,-0.00909893262434301,-0.252634420001485
3.1,-0.0223426051206665,-0.253162543718488
3.102,-0.0356366962845876,-0.252975551661515
3.104,-0.0489445829133183,-0.25207045074316
3.106,-0.0622294901030257,-0.25044603458316
3.108,-0.0754545752009138,-0.248102891244777
3.11,-0.0885830121502816,-0.245043406247184
3.112,-0.101578076053709,-0.24127176273886
3.114,-0.114403227856448,-0.236793937417026
3.116,-0.127022198768159,-0.231617691878142
3.118,-0.139399074522302,-0.225752561784716
3.12,-0.151498379300843,-0.219209840034018
3.122,-0.163285158290171,-0.212002557814764
3.124,-0.174725060802384,-0.204145460938541
3.126,-0.18513209814431,-0.194752133533613
3.128,-0.194348120084807,-0.183934034189809
3.13,-0.202958656099135,-0.172653909544507
3.132,-0.210941515867454,-0.160943503401256
3.134,-0.218276087602802,-0.148835585774342
3.136,-0.224943384182362,-0.136363877554602
3.138,-0.230926086254378,-0.123562973394088
3.14,-0.23620858279178,-0.110468261809649
3.142,-0.240777005962518,-0.0971158445882743
3.144,-0.244619264085772,-0.0835424535400023
3.146,-0.247725070142604,-0.0697853662374142
3.148,-0.250085965809428,-0.0558823201940817
3.15,-0.251695342382721,-0.0418714259479108
3.152,-0.252548456963956,-0.0277910791089849
3.154,-0.2526424451746,-0.0136798716452667
3.156,-0.251976329072434,0.000423497480681783
3.158,-0.250551021242275,0.0144803121050259
3.16,-0.248369324536524,0.028451928795396
3.162,-0.24543592754379,0.0422998669148405
3.164,-0.241757395667197,0.0559858983354513
3.166,-0.237342158397783,0.0694721369130551
3.168,-0.232200491672726,0.0827211272036537
3.17,-0.226344496312851,0.0956959324280174
3.172,-0.219788072339027,0.108360221313055
3.174,-0.212546888872529,0.120678353787373
3.176,-0.204638350330211,0.132615465107847
3.178,-0.196081557931286,0.144137548214128
3.18,-0.186897268138587,0.155211534488824
3.182,-0.177107846163271,0.165805372092671
3.184,-0.166737216967942,0.175888102316366
3.186,-0.155810811608969,0.185429932903834
3.188,-0.144105853764332,0.19392463080563
3.19,-0.131263776398383,0.200334055325749
3.192,-0.118134821819563,0.206041035130479
3.194,-0.104754877991048,0.211033357493811
3.196,-0.0911603273776086,0.215300571260435
3.198,-0.0773879630444164,0.21883400671427
3.2,-0.0634749022952071,0.221626790147722
3.202,-0.0494585007478923,0.223673854734398
3.204,-0.0353762659155347,0.224971947415578
3.206,-0.0212657706494253,0.225519631018314
3.208,-0.00716456690889685,0.225317282630449
3.21,0.00688990014951312,0.224367087664958
3.212,0.0208603775128411,0.222673030152706
3.214,0.0347098887784089,0.22024087830888
3.216,0.0484018176238952,0.217078166923904
3.218,0.0618999900842528,0.213194175034391
3.22,0.0751687554715413,0.208599900833702
3.222,0.0881730656327234,0.203308031884777
3.224,0.100878552565731,0.197332912100096
3.226,0.113251604050507,0.190690505654934
3.228,0.125259437429151,0.183398357100369
3.23,0.136870170736605,0.175475548041982
3.232,0.148052892340387,0.166942651748721
3.234,0.158777727094637,0.157821683454147
3.236,0.169015900780028,0.148136048909279
3.238,0.178739801936877,0.13791048984256
3.24,0.187923039823955,0.127171027178208
3.242,0.196540501240049,0.115944901259471
3.244,0.204568403249115,0.104260510618166
3.246,0.211984343153015,0.0921473479264844
3.248,0.218767345858179,0.0796359348614441
3.25,0.224897907884222,0.0667577542167189
3.252,0.228194625563473,0.0533984043709091
3.254,0.230798967480698,0.0399363252657886
3.256,0.232709027801927,0.0264053760426851
3.258,0.23392448904038,0.0128393669700435
3.26,0.234446613206055,-0.000728012499584142
3.262,0.23427822918362,-0.0142632646493258
3.264,0.233423717980962,-0.0277331537258066
3.266,0.231888994388103,-0.0411047749188782
3.268,0.229681485683321,-0.054345622342327
3.27,0.226810108320182,-0.0674236556773728
3.272,0.223285240626013,-0.0803073654710549
3.274,0.219118693538973,-0.0929658369774651
3.276,0.214323679007596,-0.105368812467209
3.278,0.208914775073336,-0.117486751819505
3.28,0.202907889353394,-0.129290891486993
3.282,0.196320219037978,-0.140753301500598
3.284,0.189170210013115,-0.151846940691803
3.286,0.18147751251728,-0.162545709989363
3.288,0.173262935437444,-0.172824503296954
3.29,0.164548398247645,-0.182659256727449
3.292,0.155356881190915,-0.1920269952386
3.294,0.145712373503327,-0.200905877373737
3.296,0.135639819977071,-0.20927523731992
3.298,0.125165065657825,-0.217115624404594
3.3,0.114314799170239,-0.224408841150458
3.302,0.103116494864124,-0.231137977406754
3.304,0.0915983528928793,-0.237287442773785
3.306,0.0797892387248232,-0.242842996535952
3.308,0.0677186211374015,-0.24779177421716
3.31,0.0554165092936916,-0.252122312271033
3.312,0.0429133889202312,-0.255824569216961
3.314,0.0302401575849227,-0.258889944531683
3.316,0.0174280593936177,-0.261311294704806
3.318,0.00450861896393409,-0.263082946265458
3.32,-0.00848642494609468,-0.2642007058861
3.322,-0.0215251862658108,-0.264661867968444
3.324,-0.0345756985792502,-0.264465219215403
3.326,-0.0476059822848062,-0.263611039592066
3.328,-0.0605841117077664,-0.262101101977795
3.33,-0.0734782820898975,-0.259938667110749
3.332,-0.0862568763758756,-0.25712847682541
3.334,-0.098888531563961,-0.253676744283
3.336,-0.111342204652881,-0.24959114059405
3.338,-0.123587237873459,-0.244880779431883
3.34,-0.135593423363076,-0.239556198635202
3.342,-0.147331066780581,-0.233629338397591
3.344,-0.158771050088852,-0.227113517541295
3.346,-0.169884893441695,-0.22002340677232
3.348,-0.180644815271384,-0.212374998913562
3.35,-0.191023791892639,-0.204185576812406
3.352,-0.200995615118434,-0.195473679019008
3.354,-0.210534948392589,-0.186259062331242
3.356,-0.219617381543654,-0.176562662002147
3.358,-0.228219483364206,-0.166406550205522
3.36,-0.236318853419254,-0.155813891155241
3.362,-0.243894169987035,-0.144808895193705
3.364,-0.250925238035138,-0.133416769474804
3.366,-0.257393033834446,-0.121663667726702
3.368,-0.263279747713077,-0.109576637299687
3.37,-0.268568824352076,-0.097183564644346
3.372,-0.273245000824315,-0.0845131189552851
3.374,-0.277294342477634,-0.0715946941456509
3.376,-0.279348322162978,-0.058225431070721
3.378,-0.279367334207905,-0.0446202068298849
3.38,-0.278701357035516,-0.0311063358103907
3.382,-0.277358075728545,-0.0177168681483113
3.384,-0.27534670243802,-0.00448437563227631
3.386,-0.272677950335592,0.00855911632238068
3.388,-0.269364004908342,0.0213821953672835
3.39,-0.265418492094559,0.0339541274945654
3.392,-0.260856443358731,0.0462449207992446
3.394,-0.255694258503663,0.058225387524175
3.396,-0.24994966551744,0.0698672044211425
3.398,-0.243641678352635,0.0811429709414665
3.4,-0.236790551134972,0.0920262659092474
3.402,-0.229417731198388,0.102491701670164
3.404,-0.221545809143277,0.11251497632847
3.406,-0.213198466414441,0.122072923324573
3.408,-0.20440042189517,0.131143559155297
3.41,-0.195177375113658,0.139706127838637
3.412,-0.185555948157859,0.147741144124495
3.414,-0.175563626594772,0.155230432252601
3.416,-0.165228697190037,0.162157163758447
3.418,-0.154580185033688,0.168505891427771
3.42,-0.143647789397835,0.174262580699774
3.422,-0.132461817622074,0.179414638418881
3.424,-0.121053118252395,0.183950938034562
3.426,-0.109453013069437,0.187861842448337
3.428,-0.0976932280819904,0.191139223506765
3.43,-0.0858058238717366,0.193776478338872
3.432,-0.073823125221367,0.195768542836157
3.434,-0.0617776501633461,0.197111901772963
3.436,-0.0497020387607843,0.197804595764719
3.438,-0.03762898154008,0.197846225261245
3.44,-0.0255911479072266,0.197237951272051
3.442,-0.0136211144939285,0.195982492520282
3.444,-0.00175129370994978,0.194084120321742
3.446,0.00998613735559017,0.191548649185208
3.448,0.0215593076589441,0.188383425030055
3.45,0.032936722364132,0.184597310217062
3.452,0.0440873320843078,0.180200664988118
3.454,0.054980601913049,0.175205326210465
3.456,0.0655865782261636,0.169624582821027
3.458,0.075875955944247,0.163473148766331
3.46,0.0858201433958532,0.156767132633532
3.462,0.0953913260407844,0.149524003768042
3.464,0.104562529152641,0.141762557073364
3.466,0.113307678359421,0.133502873588748
3.468,0.121601658840619,0.124766278940457
3.47,0.12942037197893,0.115575299462538
3.472,0.136740791364371,0.105953614983157
3.474,0.143541014848305,0.0959260101127667
3.476,0.149800316544588,0.0855183223405731
3.478,0.155499194374807,0.0747573882460031
3.48,0.160619416954314,0.063670987502143
3.482,0.165144067215575,0.0522877847583696
3.484,0.16905758306515,0.0406372695296935
3.486,0.172345796570454,0.0287496943306209
3.488,0.174995968772336,0.0166560109876512
3.49,0.176996823419366,0.00438780534383379
3.492,0.178338576519685,-0.0080227694888788
3.494,0.179012963006161,-0.0205430612634233
3.496,0.179013261510624,-0.0331399880032026
3.498,0.178334314442896,-0.0457801084607628
3.5,0.176972546370382,-0.0584296935845963
3.502,0.171509194194013,-0.0704612482507892
3.504,0.165418626016412,-0.0821263415859535
3.506,0.158721914798218,-0.0933949110206017
3.508,0.151441504998605,-0.104237997531874
3.51,0.143601158296179,-0.114627805904261
3.512,0.135225896886517,-0.124537762726751
3.514,0.126341943952804,-0.133942571504608
3.516,0.116976662806149,-0.142818264993779
3.518,0.107158492192329,-0.151142254685759
3.52,0.0969168810618831,-0.158893377940571
3.522,0.086282220200656,-0.166051940865369
3.524,0.0752857728180445,-0.172599759436026
3.526,0.0639596032904017,-0.178520196358991
3.528,0.0523365036572171,-0.18379819557053
3.53,0.0404499197178576,-0.188420312670464
3.532,0.0283338753168357,-0.192374742487351
3.534,0.0160228955057238,-0.195651342872071
3.536,0.00355192886999155,-0.19824165521667
3.538,-0.00904373094080075,-0.200138921695296
3.54,-0.0217285244308928,-0.201338098524027
3.542,-0.0344667059255899,-0.201835865836327
3.544,-0.0472224235940934,-0.201630633970892
3.546,-0.0599597996459534,-0.200722546468553
3.548,-0.0726430106131083,-0.19911347887494
3.55,-0.0852363674453884,-0.196807034645532
3.552,-0.0977043953852555,-0.193808536749716
3.554,-0.110011913377503,-0.190125016470414
3.556,-0.122124112887543,-0.185765197995808
3.558,-0.134006636017865,-0.180739479899624
3.56,-0.145625652641188,-0.175059913106361
3.562,-0.156947936670767,-0.168740175137767
3.564,-0.167940941018271,-0.161795541436788
3.566,-0.178572870949585,-0.15424285286504
3.568,-0.188812756628854,-0.146100480369783
3.57,-0.198630523620985,-0.137388286216159
3.572,-0.207997061162795,-0.128127581880309
3.574,-0.216884289902875,-0.118341083498773
3.576,-0.225265225910154,-0.108052863869322
3.578,-0.233114044151018,-0.0972883013981485
3.58,-0.240406138434696,-0.0860740268880471
3.582,-0.247118179926445,-0.0744378672618938
3.584,-0.253228172127847,-0.0624087863154281
3.586,-0.258715504523281,-0.0500168240929618
3.588,-0.263561002591332,-0.0372930324792693
3.59,-0.267746975079524,-0.0242694097305087
3.592,-0.271257258840368,-0.0109788322366054
3.594,-0.27407726012619,0.00254501554290418
3.596,-0.276193993439686,0.0162677130680127
3.598,-0.277596116236436,0.0301541774312538
3.6,-0.278273961774915,0.0441687387279147
3.602,-0.278219567308652,0.0582752168552031
3.604,-0.277426699414248,0.0724369997845234
3.606,-0.275890876747856,0.0866171228973794
3.608,-0.273609387621555,0.100778349535731
3.61,-0.270581305389663,0.114883252403875
3.612,-0.266807500033579,0.12889429577107
3.614,-0.262290645432117,0.142773918352163
3.616,-0.257035224002483,0.156484616717385
3.618,-0.251047526895169,0.169989028752213
3.62,-0.244335650723933,0.183250018027749
3.622,-0.23690949060984,0.196230757341376
3.624,-0.228780729816011,0.208894812816501
3.626,-0.218454193447253,0.219848125268957
3.628,-0.206132170686255,0.228855781346018
3.63,-0.193416579535392,0.237188298942026
3.632,-0.180342037830616,0.244828856092214
3.634,-0.166943871191281,0.251762303943419
3.636,-0.153258036967298,0.257975197297032
3.638,-0.139321046142624,0.263455820815574
3.64,-0.125169885152007,0.268194212679794
3.642,-0.110841935766094,0.272182185078117
3.644,-0.0963748944886625,0.275413340804495
3.646,-0.0818066912488959,0.277883087034481
3.648,-0.067175406691488,0.279588645542369
3.65,-0.052519189517991,0.280529058814814
3.652,-0.0378761729844391,0.280705194208372
3.654,-0.0232843910829477,0.280119742790059
3.656,-0.00878169437893752,0.278777215491335
3.658,0.0055943342590725,0.276683935997174
3.66,0.0198064640233278,0.2738480289831
3.662,0.0338179004321396,0.270279405004622
3.664,0.0475923693442574,0.265989741835559
3.666,0.0610942006680288,0.260992461744626
3.668,0.074288411467405,0.255302704493718
3.67,0.0871407884114646,0.248937296936872
3.672,0.0996179692371664,0.241914717896339
3.674,0.111687523376677,0.234255059791896
3.676,0.123318030901123,0.225979985201875
3.678,0.134479159922357,0.21711268013972
3.68,0.145141742983735,0.207677802138502
3.682,0.155277850130538,0.197701425447996
3.684,0.164860860491081,0.187210980764822
3.686,0.173865530981506,0.176235191635783
3.688,0.182268062331408,0.164804006797914
3.69,0.190046161014538,0.152948528045573
3.692,0.197179098359714,0.140700934944961
3.694,0.203647765812316,0.128094405848954
3.696,0.209434725117123,0.115163034799731
3.698,0.21452425489921,0.101941746232212
3.7,0.218902392231565,0.0884662061969773
3.702,0.222556968396243,0.0747727313860558
3.704,0.22547764017016,0.0608981958074144
3.706,0.22765591569685,0.0468799358231718
3.708,0.229085173741132,0.0327556537311685
3.71,0.229760678063892,0.0185633206085715
3.712,0.229679585798172,0.0043410785726896
3.714,0.22884094985415,-0.009872856802628
3.716,0.22724571572823,-0.0240402936572213
3.718,0.224896712038634,-0.0381231599983333
3.72,0.221798636955407,-0.052083598503255
3.722,0.217958037634753,-0.0658840594765522
3.724,0.213383285905092,-0.0794873917186239
3.726,0.208084548483639,-0.0928569307234022
3.728,0.202073753026763,-0.105956584182824
3.73,0.195364550134181,-0.118750914462891
3.732,0.187972271235538,-0.131205217605194
3.734,0.179913883688216,-0.143285599267177
3.736,0.171207942407246,-0.154959046622553
3.738,0.161874538732655,-0.166193497378819
3.74,0.151935247617026,-0.176957905080339
3.742,0.141413072087622,-0.187222300171974
3.744,0.130332386204115,-0.196957848428827
3.746,0.118718876996161,-0.20613690598177
3.748,0.10659948412596,-0.214733070685677
3.75,0.0940023397809058,-0.222721230387743
3.752,0.0803872327616632,-0.22794776325696
3.754,0.0665453934126113,-0.23246973333333
3.756,0.0525112797555737,-0.236278512147167
3.758,0.038319603574897,-0.239367091045747
3.76,0.0240052580828233,-0.241730081047266
3.762,0.0096032467492282,-0.243363709721607
3.764,-0.00485138661069585,-0.244265815574563
3.766,-0.0193236267331823,-0.244435840387814
3.768,-0.0337785546439878,-0.243874818241947
3.77,-0.0481814142501378,-0.242585363724792
3.772,-0.0624976779090687,-0.240571656403033
3.774,-0.0766931109069227,-0.237839424711926
3.776,-0.0907338348526712,-0.234395926496406
3.778,-0.104586390091137,-0.230249928817312
3.78,-0.118217797082256,-0.22541168461892
3.782,-0.131595616696578,-0.219892908038837
3.784,-0.144688009533514,-0.213706747928277
3.786,-0.157463794069503,-0.20686775884013
3.788,-0.169892504061631,-0.199391870333652
3.79,-0.181944444180396,-0.191296354338122
3.792,-0.193590745143754,-0.18259979071315
3.794,-0.20480341696331,-0.173322030040365
3.796,-0.215555401692929,-0.163484155479698
3.798,-0.225820623920037,-0.15310844202324
3.8,-0.235574040430742,-0.142218313880535
3.802,-0.244791688071555,-0.130838299530849
3.804,-0.253450729923018,-0.118993985980444
3.806,-0.261529499993936,-0.106711969765827
3.808,-0.269007545939135,-0.0940198070473454
3.81,-0.275865669998683,-0.0809459611411393
3.812,-0.282085967452322,-0.0675197492412516
3.814,-0.286948597979327,-0.0533360558075949
3.816,-0.290862858511134,-0.0387901705092874
3.818,-0.294048086661795,-0.0240722177566768
3.82,-0.296497577319515,-0.00921722853899073
3.822,-0.298206234581208,0.00573952366194511
3.824,-0.299170579711058,0.0207625933582093
3.826,-0.299388757503447,0.0358164337767063
3.828,-0.298860538430307,0.0508654680788404
3.83,-0.297587318752824,0.0658741605406534
3.832,-0.295572117377532,0.080807087884692
3.834,-0.292819569237072,0.0956290104466954
3.836,-0.289335916676238,0.110304943172157
3.838,-0.285128996224375,0.124800226178033
3.84,-0.280208224235708,0.13908059491322
3.842,-0.274584577779719,0.153112249642946
3.844,-0.268270573864246,0.166861924241916
3.846,-0.261280244874577,0.180296953899842
3.848,-0.253629111312351,0.193385342271911
3.85,-0.245334151918686,0.206095827025764
3.852,-0.236413770366465,0.218397944075694
3.854,-0.226887759807265,0.230262091173894
3.856,-0.216777264358915,0.241659588957896
3.858,-0.20610473742016,0.252562741152573
3.86,-0.194893898599394,0.262944892724442
3.862,-0.183169686544862,0.272780485985348
3.864,-0.170958210864199,0.282045115241984
3.866,-0.15828670042161,0.290715578487126
3.868,-0.14518344960142,0.298769927927836
3.87,-0.131677763327187,0.306187517745338
3.872,-0.117799898536014,0.312949048980662
3.874,-0.103581004408165,0.319036612739612
3.876,-0.0886938336825851,0.323758389210025
3.878,-0.0732627020594314,0.327051982283737
3.88,-0.0577140997312847,0.329570033875132
3.882,-0.0420856718052816,0.331308680427585
3.884,-0.0264151769470419,0.332265813398635
3.886,-0.0107404084539218,0.332441082214179
3.888,0.00490088483015375,0.331835894181546
3.89,0.0204710775532823,0.33045341005086
3.892,0.0359327466417824,0.328298537013705
3.894,0.0512487497653547,0.325377917627782
3.896,0.0663823032776545,0.321699915755933
3.898,0.0812970595217986,0.317274598807707
3.9,0.0959571833813763,0.312113716671477
3.902,0.110327427676519,0.306230677225032
3.904,0.124373207933591,0.299640519112594
3.906,0.138060675436013,0.292359879676287
3.908,0.151356789032704,0.284406961930258
3.91,0.164229385559595,0.275801496365956
3.912,0.17664724897863,0.266564700677432
3.914,0.188580176327716,0.256719236395994
3.916,0.199999043874057,0.246289161824132
3.918,0.210875869062475,0.235299883659288
