"Freq [GHz]","re(S(Tx_p1,Tx_p1)) []","im(S(Tx_p1,Tx_p1)) []"
3,0.06516602141,-0.02320627517
3.014,0.06317548886,-0.02772947269
3.028,0.06087269679,-0.0320858307
3.042,0.05827146034,-0.03625393377
3.056,0.05538704954,-0.04021350699
3.07,0.05223609465,-0.0439455133
3.084,0.04883648517,-0.04743224278
3.098,0.04520726322,-0.05065739365
3.112,0.04136851205,-0.05360614455
3.126,0.03734124025,-0.05626521795
3.14,0.03314726253,-0.05862293433
3.154,0.02880907776,-0.06066925718
3.168,0.02434974498,-0.0623958286
3.182,0.01979275804,-0.06379599544
3.196,0.01516191977,-0.06486482622
3.21,0.0104812162,-0.06559911862
3.224,0.005774691532,-0.06599739796
3.238,0.001066324656,-0.06605990665
3.252,-0.003620092323,-0.06578858492
3.266,-0.008261072856,-0.06518704315
3.28,-0.01283355146,-0.06426052597
3.294,-0.01731499548,-0.06301586871
3.308,-0.02168351247,-0.06146144631
3.322,-0.02591795297,-0.0596071153
3.336,-0.02999800796,-0.05746414926
3.35,-0.03390430089,-0.05504516806
3.364,-0.03761847371,-0.05236406164
3.378,-0.04112326676,-0.0494359085
3.392,-0.04440259218,-0.04627688965
3.406,-0.04744160063,-0.04290419838
3.42,-0.0502267412,-0.03933594647
3.434,-0.05274581419,-0.03559106725
3.448,-0.05498801691,-0.03168921607
3.462,-0.05694398219,-0.02765066871
3.476,-0.05860580972,-0.02349621825
3.49,-0.05996709016,-0.01924707073
3.504,-0.061022922,-0.01492474037
3.518,-0.06176992136,-0.01055094452
3.532,-0.06220622462,-0.006147499044
3.546,-0.06233148425,-0.001736214414
3.56,-0.06214685768,0.002661206968
3.574,-0.06165498962,0.007023271836
3.588,-0.06085998786,0.01132879511
3.602,-0.05976739278,0.01555699656
3.616,-0.05838414086,0.01968759471
3.63,-0.0567185223,0.02370089769
3.644,-0.05478013304,0.0275778906
3.658,-0.05257982156,0.0313003192
3.672,-0.05012963049,0.03485076958
3.686,-0.04744273359,0.03821274352
3.7,-0.0445333681,0.04137072937
3.714,-0.04141676308,0.04431026809
3.728,-0.0381090638,0.04701801434
3.742,-0.03462725257,0.04948179237
3.756,-0.03098906644,0.05169064658
3.77,-0.02721291201,0.05363488644
3.784,-0.02331777761,0.05530612584
3.798,-0.01932314347,0.05669731654
3.812,-0.01524888988,0.05780277577
3.826,-0.01111520406,0.05861820773
3.84,-0.006942485763,0.05914071901
3.854,-0.002751252279,0.05936882791
3.868,0.001437957002,0.05930246751
3.882,0.005604675971,0.05894298249
3.896,0.009728606789,0.05829311985
3.91,0.01378971409,0.0573570133
3.924,0.01776831803,0.05614016163
3.938,0.02164518577,0.05464940088
3.952,0.02540162101,0.05289287057
3.966,0.02901955125,0.05087997405
3.98,0.03248161233,0.04862133306
3.994,0.03577122987,0.04612873668
4.008,0.0388726973,0.04341508494
4.022,0.04177125008,0.0404943271
4.036,0.0444531358,0.03738139507
4.05,0.04690567968,0.034092132
4.064,0.04911734538,0.03064321651
4.078,0.05107779057,0.02705208272
4.092,0.05277791708,0.02333683647
4.106,0.05420991541,0.01951616816
4.12,0.05536730313,0.01560926239
4.134,0.05624495726,0.01163570499
4.148,0.05683914003,0.007615387732
4.162,0.05714751821,0.003568411234
4.176,0.05716917562,-0.0004850135396
4.19,0.05690461874,-0.004524664707
4.204,0.05635577544,-0.008530409331
4.218,0.05552598661,-0.01248230324
4.232,0.05441999079,-0.0163606903
4.246,0.05304390179,-0.02014630065
4.26,0.05140517926,-0.02382034736
4.274,0.04951259248,-0.02736462104
4.288,0.04737617733,-0.03076158191
4.302,0.04500718665,-0.03399444876
4.316,0.04241803431,-0.03704728439
4.33,0.039622233,-0.039905077
4.344,0.03663432632,-0.04255381718
4.358,0.03346981518,-0.04498056981
4.372,0.0301450791,-0.04717354078
4.386,0.02667729268,-0.04912213789
4.4,0.02308433768,-0.05081702567
4.414,0.01938471116,-0.05225017372
4.428,0.0155974302,-0.05341489837
4.442,0.01174193355,-0.0543058973
4.456,0.007837980997,-0.05491927693
4.47,0.0039055507,-0.05525257243
4.484,-3.526473459E-05,-0.05530476007
4.498,-0.003964362978,-0.055076262
4.512,-0.007861736881,-0.05456894329
4.526,-0.01170757898,-0.05378610119
4.54,-0.01548238505,-0.05273244673
4.554,-0.01916705601,-0.05141407867
4.568,-0.02274299781,-0.04983845002
4.582,-0.0261922185,-0.04801432716
4.596,-0.02949742211,-0.04595174189
4.61,-0.03264209866,-0.04366193669
4.624,-0.03561060993,-0.04115730334
4.638,-0.03838827039,-0.03845131541
4.652,-0.04096142285,-0.03555845494
4.666,-0.04331750847,-0.03249413369
4.68,-0.04544513062,-0.02927460949
4.694,-0.04733411231,-0.02591689802
4.708,-0.04897554688,-0.0224386808
4.722,-0.05036184155,-0.01885820961
4.736,-0.05148675385,-0.01519420808
4.75,-0.05234542035,-0.01146577103
4.764,-0.05293437796,-0.007692261982
4.778,-0.05325157743,-0.003893209669
4.792,-0.05329638905,-8.8203879E-05
4.806,-0.05306960062,0.003703208549
4.82,-0.0525734077,0.007461627118
4.834,-0.05181139616,0.01116789981
4.848,-0.05078851727,0.01480322343
4.862,-0.04951105546,0.01834924151
4.876,-0.04798658896,0.02178813937
4.89,-0.04622394362,0.02510273568
4.904,-0.04423314022,0.02827657008
4.918,-0.04202533555,0.03129398643
4.932,-0.03961275769,0.0341402111
4.946,-0.03700863592,0.03680142616
4.96,-0.03422712561,0.03926483675
4.974,-0.03128322866,0.04151873264
4.988,-0.02819270987,0.04355254341
5.002,-0.02497200982,0.04535688716
5.016,-0.02163815473,0.04692361251
5.03,-0.0182086639,0.04824583361
5.044,-0.01470145512,0.0493179582
5.058,-0.01113474881,0.05013570848
5.072,-0.007526971202,0.05069613487
5.086,-0.003896657322,0.05099762255
5.1,-0.000262354119,0.0510398909
5.114,0.003357475597,0.05082398588
5.128,0.006944547958,0.05035226553
5.142,0.01048085106,0.0496283786
5.156,0.01394873574,0.04865723672
5.17,0.01733100361,0.04744498013
5.184,0.02061099196,0.04599893741
5.198,0.02377265507,0.04432757931
5.212,0.02680064158,0.04244046721
5.226,0.02968036749,0.04034819637
5.24,0.03239808458,0.03806233444
5.254,0.03494094385,0.03559535557
5.268,0.03729705374,0.03296057056
5.282,0.0394555329,0.03017205339
5.296,0.04140655738,0.02724456465
5.31,0.04314140192,0.02419347229
5.324,0.04465247536,0.02103466998
5.338,0.04593335002,0.01778449382
5.352,0.04697878491,0.0144596375
5.366,0.04778474289,0.01107706669
5.38,0.04834840162,0.00765393279
5.394,0.04866815849,0.004207486725
5.408,0.04874362941,0.0007549930476
5.422,0.0485756417,-0.002686355159
5.436,0.04816622116,-0.006099520202
5.45,0.0475185734,-0.009467702133
5.464,0.04663705967,-0.01277441915
5.478,0.04552716729,-0.01600358573
5.492,0.04419547509,-0.01913958807
5.506,0.04264961379,-0.02216735661
5.52,0.04089822181,-0.02507243533
5.534,0.03895089673,-0.02784104742
5.548,0.03681814255,-0.03046015724
5.562,0.03451131319,-0.03291752821
5.576,0.03204255251,-0.03520177648
5.59,0.02942473106,-0.03730242012
5.604,0.02667137995,-0.03920992374
5.618,0.02379662229,-0.04091573836
5.632,0.02081510223,-0.04241233636
5.646,0.01774191226,-0.0436932415
5.66,0.01459251887,-0.04475305381
5.674,0.01138268711,-0.04558746945
5.688,0.008128404135,-0.04619329527
5.702,0.004845802369,-0.04656845832
5.716,0.001551082386,-0.04671201013
5.73,-0.001739564042,-0.04662412579
5.744,-0.005010030426,-0.04630609801
5.758,-0.00824437125,-0.045760326
5.772,-0.01142687656,-0.04499029952
5.786,-0.01454214513,-0.04400057793
5.8,-0.01757515589,-0.04279676456
5.814,-0.02051133736,-0.04138547636
5.828,-0.0233366348,-0.03977430921
5.842,-0.02603757469,-0.03797179876
5.856,-0.02860132652,-0.0359873772
5.87,-0.03101576133,-0.03383132611
5.884,-0.03326950701,-0.03151472555
5.898,-0.03535200002,-0.0290493996
5.912,-0.03725353327,-0.0264478587
5.926,-0.03896530012,-0.02372323888
5.94,-0.0404794341,-0.02088923831
5.954,-0.04178904433,-0.01796005127
5.968,-0.04288824652,-0.01495029994
5.982,-0.04377218915,-0.01187496432
5.996,-0.04443707509,-0.008749310421
6.01,-0.04488017822,-0.005588817257
6.024,-0.04509985516,-0.002409102766
6.038,-0.04509555197,0.0007741508956
6.052,-0.0448678058,0.003945272417
6.066,-0.04441824145,0.007088676399
6.08,-0.04374956282,0.01018893809
6.094,-0.04286553934,0.01323086746
6.108,-0.0417709873,0.01619958226
6.122,-0.04047174628,0.01908057974
6.136,-0.03897465062,0.0218598067
6.15,-0.03728749619,0.0245237275
6.164,-0.03541900241,0.02705938977
6.178,-0.03337876988,0.0294544874
6.192,-0.03117723357,0.03169742064
6.206,-0.02882561197,0.03377735285
6.22,-0.02633585231,0.03568426376
6.234,-0.02372057204,0.03740899878
6.248,-0.02099299702,0.03894331435
6.262,-0.01816689644,0.04027991884
6.276,-0.01525651502,0.04141250889
6.29,-0.01227650265,0.042335801
6.304,-0.009241841802,0.04304555816
6.318,-0.006167773173,0.0435386113
6.332,-0.003069719816,0.04381287552
6.346,3.678983138E-05,0.0438673609
6.36,0.003136199636,0.04370217791
6.374,0.006213003793,0.04331853718
6.388,0.009251824781,0.04271874384
6.402,0.01223749085,0.04190618622
6.416,0.01515511265,0.04088531899
6.43,0.01799015858,0.03966164095
6.444,0.02072852845,0.03824166729
6.458,0.02335662515,0.03663289666
6.472,0.02586142376,0.03484377314
6.486,0.02823053794,0.03288364314
6.5,0.03045228308,0.03076270772
6.514,0.0325157359,0.02849197031
6.528,0.03441079021,0.02608318016
6.542,0.03612820846,0.02354877192
6.556,0.03765966887,0.02090180151
6.57,0.03899780774,0.01815587866
6.584,0.0401362568,0.01532509652
6.598,0.04106967543,0.01242395871
6.612,0.04179377734,0.009467304064
6.626,0.04230535185,0.00647022969
6.64,0.0426022794,0.00344801259
6.654,0.04268354132,0.0004160303395
6.668,0.04254922379,-0.002610318754
6.682,0.04220051588,-0.005615695573
6.696,0.04163970177,-0.008584899763
6.71,0.04087014717,-0.0115029485
6.724,0.03989627996,-0.01435515405
6.738,0.03872356522,-0.01712719963
6.752,0.03735847471,-0.01980521324
6.766,0.03580845114,-0.02237583899
6.78,0.03408186714,-0.02482630553
6.794,0.03218797954,-0.0271444913
6.808,0.03013687886,-0.02931898603
6.822,0.02793943454,-0.03133914847
6.836,0.02560723615,-0.03319515973
6.85,0.02315253084,-0.03487807215
6.864,0.02058815755,-0.03637985332
6.878,0.01792747818,-0.03769342514
6.892,0.01518430626,-0.03881269753
6.906,0.01237283342,-0.03973259689
6.92,0.009507554105,-0.04044908892
6.934,0.006603189012,-0.04095919583
6.948,0.003674607616,-0.04126100787
6.962,0.0007367502262,-0.04135368905
6.976,-0.00219544996,-0.04123747721
6.99,-0.005107144412,-0.04091367831
7.004,-0.007983645979,-0.04038465508
7.018,-0.01081050436,-0.03965381013
7.032,-0.01357357994,-0.03872556364
7.046,-0.01625911549,-0.03760532576
7.06,-0.01885380561,-0.03629946396
7.074,-0.02134486318,-0.03481526551
7.088,-0.02372008282,-0.03316089532
7.102,-0.02596790087,-0.03134534943
7.116,-0.02807745159,-0.02937840445
7.13,-0.03003861933,-0.0272705632
7.144,-0.03184208652,-0.02503299693
7.158,-0.03347937704,-0.02267748448
7.172,-0.03494289501,-0.02021634861
7.186,-0.03622595868,-0.01766239004
7.2,-0.03732282935,-0.01502881942
7.214,-0.03822873521,-0.01232918773
7.228,-0.03893989,-0.009577315387
7.242,-0.03945350647,-0.006787220559
7.256,-0.03976780461,-0.003973046956
7.27,-0.03988201466,-0.001148991571
7.284,-0.03979637495,0.001670767305
7.298,-0.0395121246,0.004472141392
7.312,-0.03903149125,0.007241202718
7.326,-0.03835767382,0.009964252538
7.34,-0.03749482059,0.01262788854
7.354,-0.03644800265,0.01521907001
7.368,-0.0352231829,0.01772518067
7.382,-0.03382718092,0.02013408889
7.396,-0.03226763385,0.02243420494
7.41,-0.03055295346,0.02461453517
7.424,-0.02869227986,0.02666473273
7.438,-0.02669543189,0.02857514472
7.452,-0.02457285464,0.03033685553
7.466,-0.02233556432,0.03194172627
7.48,-0.01999509078,0.03338242999
7.494,-0.01756341797,0.03465248278
7.508,-0.01505292272,0.03574627047
7.522,-0.01247631205,0.03665907097
7.536,-0.009846559447,0.03738707205
7.55,-0.007176840255,0.03792738474
7.564,-0.004480466672,0.0382780521
7.578,-0.001770822535,0.03843805357
7.592,0.0009387017469,0.03840730476
7.606,0.003634773827,0.03818665288
7.62,0.006304183327,0.03777786772
7.634,0.008933904731,0.0371836284
7.648,0.01151115899,0.03640750591
7.662,0.01402347356,0.03545394161
7.676,0.01645874067,0.03432822178
7.69,0.01880527343,0.03303644833
7.704,0.02105185981,0.03158550602
7.718,0.02318781394,0.02998302609
7.732,0.02520302477,0.02823734674
7.746,0.02708800184,0.02635747045
7.76,0.0288339179,0.02435301857
7.774,0.03043264827,0.02223418312
7.788,0.03187680684,0.02001167634
7.802,0.03315977843,0.01769667795
7.816,0.03427574757,0.01530078055
7.83,0.03521972342,0.01283593326
7.844,0.03598756088,0.01031438401
7.858,0.03657597767,0.007748620573
7.872,0.03698256754,0.005151310742
7.886,0.03720580924,0.002535241809
7.9,0.03724507159,-8.674034227E-05
7.914,0.03710061432,-0.002701792262
7.928,0.03677358492,-0.005297133839
7.942,0.03626601134,-0.007860108793
7.956,0.0355807907,-0.01037824452
7.97,0.03472167399,-0.012839311
7.984,0.03369324688,-0.01523137855
7.998,0.03250090669,-0.0175428741
8.012,0.03115083558,-0.01976263586
8.026,0.02964997016,-0.02187996599
8.04,0.02800596761,-0.02388468116
8.054,0.0262271684,-0.02576716071
8.068,0.02432255588,-0.02751839221
8.082,0.02230171278,-0.02913001419
8.096,0.02017477497,-0.03059435587
8.11,0.01795238244,-0.03190447367
8.124,0.01564562803,-0.03305418435
8.138,0.01326600383,-0.03403809461
8.152,0.01082534567,-0.03485162699
8.166,0.008335775913,-0.0354910419
8.18,0.005809644732,-0.03595345578
8.194,0.003259470266,-0.03623685514
8.208,0.0006978778047,-0.0363401065
8.222,-0.001862461631,-0.03626296211
8.236,-0.004408893075,-0.03600606143
8.25,-0.006928839451,-0.03557092828
8.264,-0.009409863169,-0.03495996377
8.278,-0.01183972719,-0.03417643491
8.292,-0.01420645525,-0.03322445898
8.306,-0.01649839097,-0.03210898363
8.32,-0.01870425552,-0.03083576303
8.334,-0.02081320357,-0.02941132976
8.348,-0.02281487724,-0.027842963
8.362,-0.02469945781,-0.02613865279
8.376,-0.02645771479,-0.02430706074
8.39,-0.02808105223,-0.02235747725
8.404,-0.02956155203,-0.02029977557
8.418,-0.0308920138,-0.01814436271
8.432,-0.03206599138,-0.0159021276
8.446,-0.03307782549,-0.01358438675
8.46,-0.03392267257,-0.01120282753
8.474,-0.03459652952,-0.008769449505
8.488,-0.03509625418,-0.006296504065
8.502,-0.03541958153,-0.003796432598
8.516,-0.03556513536,-0.00128180362
8.53,-0.03553243548,0.001234750885
8.544,-0.0353219003,0.003740599556
8.558,-0.03493484477,0.00622317585
8.572,-0.03437347376,0.008670041992
8.586,-0.03364087076,0.01106895236
8.6,-0.03274098204,0.01340791594
8.614,-0.03167859632,0.01567525757
8.628,-0.03045932007,0.0178596775
8.642,-0.02908954842,0.01995030921
8.656,-0.02757643209,0.02193677484
8.67,-0.02592784023,0.02380923823
8.684,-0.02415231954,0.02555845505
8.698,-0.0222590498,0.02717581991
8.712,-0.02025779615,0.02865341007
8.726,-0.01815885818,0.02998402563
8.74,-0.01597301635,0.03116122578
8.754,-0.01371147576,0.03217936123
8.768,-0.01138580789,0.03303360225
8.782,-0.009007890286,0.0337199625
8.796,-0.006589844797,0.03423531838
8.81,-0.00414397455,0.03457742372
8.824,-0.001682700055,0.0347449199
8.838,0.0007815052119,0.03473734123
8.852,0.003236179399,0.03455511564
8.866,0.005668936692,0.03419956055
8.88,0.008067531189,0.03367287418
8.894,0.0104199199,0.03297812212
8.908,0.01271432452,0.03211921938
8.922,0.01493929165,0.03110090801
8.936,0.01708375112,0.02992873043
8.95,0.01913707216,0.0286089985
8.964,0.02108911701,0.02714875881
8.978,0.02293029181,0.02555575404
8.992,0.02465159442,0.02383838085
9.006,0.02624465897,0.02200564452
9.02,0.02770179687,0.02006711048
9.034,0.0290160341,0.0180328531
9.048,0.0301811446,0.01591340211
9.062,0.03119167958,0.01371968672
9.076,0.03204299267,0.01146297799
9.09,0.03273126066,0.009154829664
9.104,0.03325349995,0.006807017758
9.118,0.03360757845,0.00443147935
9.132,0.03379222303,0.002040250794
9.146,0.03380702245,-0.0003545942457
9.16,0.03365242577,-0.00274100663
9.174,0.03332973638,-0.005107023111
9.188,0.03284110153,-0.007440826914
9.202,0.03218949768,-0.009730807219
9.216,0.03137871158,-0.01196561724
9.23,0.03041331732,-0.01413423057
9.244,0.02929864946,-0.01622599563
9.258,0.02804077247,-0.01823068772
9.272,0.02664644658,-0.02013855873
9.286,0.02512309031,-0.02194038397
9.3,0.02347873994,-0.02362750613
9.314,0.021722006,-0.02519187602
9.328,0.01986202724,-0.02662609001
9.342,0.0179084222,-0.02792342397
9.356,0.01587123865,-0.02907786347
9.37,0.01376090125,-0.03008413037
9.384,0.01158815764,-0.0309377054
9.398,0.009364023321,-0.03163484688
9.412,0.007099725537,-0.03217260541
9.426,0.004806646469,-0.03254883456
9.44,0.002496266085,-0.03276219743
9.454,0.0001801048575,-0.03281216926
9.468,-0.00213033332,-0.03269903593
9.482,-0.004423617761,-0.0324238886
9.496,-0.006688446876,-0.0319886143
9.51,-0.008913703062,-0.0313958828
9.524,-0.01108850635,-0.03064912971
9.538,-0.01320226651,-0.02975253597
9.552,-0.0152447335,-0.02871100386
9.566,-0.01720604582,-0.02753012966
9.58,-0.01907677684,-0.02621617317
9.594,-0.02084797864,-0.02477602418
9.608,-0.02251122333,-0.02321716619
9.622,-0.02405864163,-0.02154763738
9.636,-0.02548295857,-0.01977598933
9.65,-0.02677752615,-0.01791124337
9.664,-0.0279363528,-0.01596284505
9.678,-0.02895412966,-0.01394061679
9.692,-0.02982625338,-0.011854709
9.706,-0.03054884554,-0.009715549931
9.72,-0.03111876855,-0.007533794436
9.734,-0.031533638,-0.00532027193
9.748,-0.03179183131,-0.003085933755
9.762,-0.03189249295,-0.0008418002168
9.776,-0.03183553588,0.001401092479
9.79,-0.03162163948,0.003631745146
9.804,-0.03125224388,0.00583924816
9.818,-0.03072954076,0.008012833391
9.832,-0.03005646067,0.01014192529
9.846,-0.02923665697,0.01221619092
9.86,-0.02827448644,0.01422558867
9.874,-0.02717498666,0.01616041554
9.888,-0.02594385031,0.01801135264
9.902,-0.02458739645,0.01976950886
9.916,-0.02311253899,0.0214264624
9.93,-0.02152675243,0.02297430005
9.944,-0.01983803504,0.02440565406
9.958,-0.01805486971,0.02571373634
9.972,-0.01618618255,0.02689237
9.986,-0.01424129952,0.02793601788
10,-0.01222990118,0.02883980821
