"Freq [GHz]","re(S(Antenna1_1_p1,Antenna1_1_p1)) []","im(S(Antenna1_1_p1,Antenna1_1_p1)) []"
3,-0.00409670130866798,-0.076456302949584
3.002,-0.0059396184452211,-0.0758372404040689
3.004,-0.00774637619146158,-0.0751541405763979
3.006,-0.00951447486896965,-0.0744089092157619
3.008,-0.0112415149976539,-0.073603553843132
3.01,-0.0129252016233039,-0.0727401782905347
3.012,-0.0145633482982113,-0.071820977067263
3.014,-0.0161538807431932,-0.0708482295407909
3.016,-0.0176948401734188,-0.0698242939794695
3.018,-0.0191843862875072,-0.0687516014442787
3.02,-0.0206207999274462,-0.0676326495930113
3.022,-0.0220024853279203,-0.0664699963742647
3.024,-0.0233279720746824,-0.0652662536755196
3.026,-0.0245959167125983,-0.0640240809104012
3.028,-0.0258051039349488,-0.0627461785942514
3.03,-0.0269544475065031,-0.0614352819108943
3.032,-0.0280429907937294,-0.0600941543010641
3.034,-0.0290699069663326,-0.058725581087882
3.036,-0.0300344988550519,-0.0573323631610424
3.038,-0.030936198511349,-0.0559173107353749
3.04,-0.0317745664252491,-0.0544832372102317
3.042,-0.0325492904381597,-0.0530329531284833
3.044,-0.0332601843780014,-0.0515692602813189
3.046,-0.0339071863844232,-0.0500949459370298
3.048,-0.0344903569522559,-0.0486127772448278
3.05,-0.0350098767916803,-0.0471254957980013
3.052,-0.0354660442938446,-0.0456358123899641
3.054,-0.0358592729608737,-0.0441464019589872
3.056,-0.0361900883903677,-0.0426598987466541
3.058,-0.0364591252855846,-0.0411788916603142
3.06,-0.0366671241015578,-0.0397059198810584
3.062,-0.0368149276124013,-0.0382434686619945
3.064,-0.0368744138540224,-0.0368759779238496
3.066,-0.0368751754733731,-0.0355539159812007
3.068,-0.036829506272256,-0.0342519929908991
3.07,-0.0367387647325311,-0.0329717244485385
3.072,-0.0366043512123761,-0.0317145480261014
3.074,-0.0364277035540045,-0.0304818231262147
3.076,-0.0362102927439714,-0.0292748305277488
3.078,-0.0359536186328786,-0.0280947723767977
3.08,-0.0356592057469262,-0.0269427724164014
3.082,-0.035328599182961,-0.0258198764376878
3.084,-0.0349633606283452,-0.0247270529344448
3.086,-0.0345650644964145,-0.0236651940324679
3.088,-0.034135294206914,-0.0226351165843771
3.09,-0.0336756386176858,-0.0216375634999575
3.092,-0.0331876886190301,-0.0206732051914388
3.094,-0.0326730339077295,-0.0197426412625329
3.096,-0.032133259942915,-0.0188464023094406
3.098,-0.031569945100343,-0.017984951861485
3.1,-0.0309846580276665,-0.017158688448488
3.102,-0.0303789552187876,-0.0163679478215149
3.104,-0.0297543787893183,-0.0156130051331602
3.106,-0.0291124544920257,-0.0148940773461595
3.108,-0.0284546899459137,-0.0142113255727774
3.11,-0.0277825730902816,-0.0135648574921837
3.112,-0.027097570873709,-0.0129547297788598
3.114,-0.0264011281644483,-0.0123809505060261
3.116,-0.0256946668771588,-0.0118434815281415
3.118,-0.0249795853223022,-0.0113422408127156
3.12,-0.0242572577708435,-0.010877104696018
3.122,-0.0235290342001706,-0.0104479100537636
3.124,-0.0227962402623839,-0.0100544563565408
3.126,-0.0221056709343103,-0.0096912253576132
3.128,-0.0214575773148066,-0.00935168189180902
3.13,-0.0208069253691348,-0.00903880855250664
3.132,-0.020154409407454,-0.00875240783325619
3.134,-0.0195007096328016,-0.00849228241434189
3.136,-0.018846494392362,-0.00825823576890172
3.138,-0.0181924223943785,-0.00805007249298802
3.14,-0.0175391449417799,-0.00786759835364948
3.142,-0.0168873081925185,-0.0077106200462743
3.144,-0.016237555285772,-0.00757894466500232
3.146,-0.0155905284826042,-0.00747237888341419
3.148,-0.0149468710894275,-0.00739072786108165
3.15,-0.0143072293627209,-0.00733379386691078
3.152,-0.0136722540639562,-0.00730137465798493
3.154,-0.0130426019946001,-0.00729326159926672
3.156,-0.0124189371224337,-0.00730923757431822
3.158,-0.0118019315532748,-0.00734907469197409
3.16,-0.0111922661635235,-0.00741253181860398
3.162,-0.0105906309017897,-0.00749935197615946
3.164,-0.00999772477219679,-0.00760925963154872
3.166,-0.00941425545378306,-0.00774195792294494
3.168,-0.00884093853772594,-0.00789712585134629
3.17,-0.00827849639885106,-0.00807441549698265
3.172,-0.00772765666902701,-0.00827344928694487
3.174,-0.00718915033152907,-0.0084938173796267
3.176,-0.00666370943321094,-0.00873507519215256
3.178,-0.00615206443728589,-0.00899674114587165
3.18,-0.00565494121858689,-0.00927829461117614
3.182,-0.00517305773627151,-0.00957917422732868
3.184,-0.00470712040794174,-0.00989877646363401
3.186,-0.00425782022696911,-0.0102364546161657
3.188,-0.00382290217233176,-0.0105802382843703
3.19,-0.00339455327638282,-0.0109075032742509
3.192,-0.00298065645906277,-0.0112519249895205
3.194,-0.00258187703730845,-0.0116129624161889
3.196,-0.00219885991640856,-0.0119900292195645
3.198,-0.0018322249914164,-0.0123824945657298
3.2,-0.00148256258720709,-0.0127896844822783
3.202,-0.00115042900589233,-0.0132108836956018
3.204,-0.000836342213534685,-0.0136453379944217
3.206,-0.000540777765425299,-0.0140922570716863
3.208,-0.000264164976896845,-0.0145508177995514
3.21,-6.88343648687795E-06,-0.0150201679650416
3.212,0.000230740121841075,-0.0154994304072942
3.214,0.000448434529408947,-0.0159877074521203
3.216,0.000645986433895153,-0.0164840857120963
3.218,0.000823242071252813,-0.0169876410986094
3.22,0.000980108518541288,-0.0174974440462978
3.222,0.00111655441772345,-0.0180125648782234
3.224,0.00123261014973085,-0.0185320792459041
3.226,0.00132836746050657,-0.019055073592066
3.228,0.00140397853315101,-0.0195806505756311
3.23,0.00145965452160498,-0.0201079343940178
3.232,0.00149566355538662,-0.0206360759512789
3.234,0.00151232823463649,-0.0211642578128533
3.236,0.00151002266002802,-0.0216916988967211
3.238,0.00148916900687682,-0.0222176588614399
3.24,0.00145023367395529,-0.0227414421287915
3.242,0.00139372312004911,-0.0232624015265286
3.244,0.00132017930911493,-0.0237799414978336
3.246,0.00123017493301454,-0.0242935208685156
3.248,0.00112430840817919,-0.0248026551331559
3.25,0.001003198624222,-0.0253069182612811
3.252,0.000963760773472678,-0.0257965691680909
3.254,0.000910758090698032,-0.0262896351632113
3.256,0.000844243541927036,-0.0267858658293149
3.258,0.000764271630380141,-0.0272850375319565
3.26,0.000670894806055061,-0.0277869530405841
3.262,0.000564160063620213,-0.0282914407663258
3.264,0.000444105530961856,-0.0287983536378066
3.266,0.000310757328103489,-0.0293075676268781
3.268,0.000164126568320903,-0.029818979961327
3.27,4.20658418225604E-06,-0.0303325070353728
3.272,-0.000169029594986903,-0.0308480820610549
3.274,-0.000355631504027268,-0.0313656524754651
3.276,-0.00055567321340403,-0.0318851771442087
3.278,-0.000769255014664114,-0.0324066233885048
3.28,-0.000996504792606105,-0.0329299638699931
3.282,-0.00123757908202164,-0.0334551733555983
3.284,-0.00149266380988499,-0.0339822254108029
3.286,-0.00176197471572036,-0.0345110890343635
3.288,-0.00204575745555638,-0.0350417252709538
3.29,-0.00234428739235509,-0.0355740838344492
3.292,-0.00265786907808493,-0.0361080997595998
3.294,-0.00298683543967293,-0.0366436901237371
3.296,-0.00333154667892895,-0.0371807508199197
3.298,-0.00369238888817506,-0.0377191534845945
3.3,-0.00406977241876128,-0.0382587425304579
3.302,-0.00446412998687595,-0.0387993322767535
3.304,-0.0048759145621207,-0.0393407043237853
3.306,-0.00530559703057678,-0.0398826050459524
3.308,-0.00575366366699847,-0.0404247433171601
3.31,-0.00622061342530843,-0.0409667883710326
3.312,-0.00670695506876879,-0.0415083679669607
3.314,-0.00721320415307731,-0.0420490666916826
3.316,-0.00773987989138232,-0.042588424544806
3.318,-0.00828750190606591,-0.0431259357654584
3.32,-0.00885658689109468,-0.0436610478031004
3.322,-0.00944764521281083,-0.0441931606624435
3.324,-0.0100611774412502,-0.0447216263944026
3.326,-0.0106976708618062,-0.0452457488680664
3.328,-0.0113575959537664,-0.0457647837807951
3.33,-0.0120414028688975,-0.0462779388987486
3.332,-0.0127495179248756,-0.0467843745474105
3.334,-0.013482340120961,-0.0472832043319997
3.336,-0.0142402376958806,-0.0477734960820502
3.338,-0.015023544740459,-0.0482542730338832
3.34,-0.0158325578780756,-0.0487245152192023
3.342,-0.0166675330265815,-0.0491831610755909
3.344,-0.0175286822518521,-0.0496291092642947
3.346,-0.0184161707216954,-0.0500612206813198
3.348,-0.0193301137913843,-0.0504783206665616
3.35,-0.020270574172639,-0.0508792013914058
3.352,-0.0212375593084342,-0.0512626244280078
3.354,-0.0222310188025888,-0.0516273234802424
3.356,-0.0232508420836536,-0.0519720072721466
3.358,-0.0242968561742065,-0.0522953625920217
3.36,-0.0253688236492539,-0.0525960574616411
3.362,-0.0264664407770353,-0.0528727444488046
3.364,-0.0275893357951381,-0.0531240640898038
3.366,-0.0287370674444465,-0.0533486484227017
3.368,-0.0299091236530766,-0.053545124622687
3.37,-0.0311049203820764,-0.053712118718346
3.372,-0.0323238007443154,-0.0538482593932851
3.374,-0.0335650342776338,-0.0539521818476509
3.376,-0.0349021740329781,-0.053988754288721
3.378,-0.0363295297379051,-0.0539463964588849
3.38,-0.0377694334555159,-0.0538545086723907
3.382,-0.0392199747895452,-0.0537122665553113
3.384,-0.0406791958710201,-0.0535189229212763
3.386,-0.0421450946345921,-0.0532738105026193
3.388,-0.0436156282073415,-0.0529763445447165
3.39,-0.0450887164585595,-0.0526260252394346
3.392,-0.0465622456977311,-0.0522224400007554
3.394,-0.0480340725146631,-0.051765265569825
3.396,-0.0495020277354398,-0.0512542699388575
3.398,-0.0509639205136352,-0.0506893140895335
3.4,-0.0524175425209716,-0.0500703535307526
3.402,-0.0538606722443884,-0.0493974396698362
3.404,-0.0552910793752769,-0.0486707208915303
3.406,-0.0567065292724409,-0.0478904435454271
3.408,-0.0581047875041699,-0.0470569526147027
3.41,-0.0594836244386577,-0.0461706922013635
3.412,-0.0608408198888591,-0.045232205785505
3.414,-0.062174167784572,-0.0442421362573989
3.416,-0.0634814808753174,-0.0432012256915534
3.418,-0.064760595437388,-0.0421103149422286
3.42,-0.0660093759818354,-0.040970342920226
3.422,-0.0672257199440743,-0.0397823456711193
3.424,-0.0684075623553949,-0.038547455295438
3.426,-0.0695528804604373,-0.0372668984516626
3.428,-0.0706596982949904,-0.0359419948132353
3.43,-0.0717260911907366,-0.0345741551851284
3.432,-0.072750190205367,-0.0331648793868434
3.434,-0.0737301864593461,-0.0317157539690371
3.436,-0.0746643353757843,-0.0302284496602813
3.438,-0.07555096079908,-0.0287047186107553
3.44,-0.0763884589892266,-0.0271463914229493
3.442,-0.0771753024849285,-0.0255553739797182
3.444,-0.0779100438019498,-0.0239336440662582
3.446,-0.0785913189914098,-0.0222832478117925
3.448,-0.0792178510140559,-0.0206062959329452
3.45,-0.079788452938868,-0.0189049598229382
3.452,-0.0803020309526922,-0.0171814674568824
3.454,-0.080757587172951,-0.015438099152535
3.456,-0.0811542222558364,-0.013677183187973
3.458,-0.0814911377857531,-0.0119010912786685
3.46,-0.0817676384441468,-0.0101122339354685
3.462,-0.0819831339492156,-0.0083130557149579
3.464,-0.0821371407973591,-0.00650603036163561
3.466,-0.0822292837005787,-0.004693655876252
3.468,-0.0822592968293812,-0.00287844949234297
3.47,-0.0822270248010701,-0.00106294261053228
3.472,-0.0821324234356287,0.000750324332856534
3.474,-0.0819755602116953,0.0025588070247667
3.476,-0.0817566144954122,0.00435996246157312
3.478,-0.0814758775751933,0.00615125414000309
3.48,-0.0811337523156863,0.00793015725614302
3.482,-0.0807307526844248,0.00969416387736963
3.484,-0.0802675029648502,0.0114407880936935
3.486,-0.0797447366995459,0.0131675711226209
3.488,-0.0791632954466644,0.0148720863686512
3.49,-0.0785241272396336,0.0165519444058338
3.492,-0.0778282848403151,0.0182047978921212
3.494,-0.0770769237338391,0.0198283463855767
3.496,-0.0762712999053758,0.0214203410677974
3.498,-0.0754127673801036,0.0229785893432372
3.5,-0.0745027755556182,0.0245009593254037
3.502,-0.0734740677889874,0.0258487063002108
3.504,-0.0724100051915879,0.0271503154080465
3.506,-0.0713127153137824,0.0284047462373983
3.508,-0.0701843557943951,0.0296110596081258
3.51,-0.069027109353821,0.0307684183857393
3.512,-0.0678431787754833,0.0318760880232487
3.514,-0.0666347818861958,0.0329334368853916
3.516,-0.0654041465318507,0.0339399362362211
3.518,-0.0641535055846714,0.0348951601042414
3.52,-0.0628850919781169,0.0357987847394292
3.522,-0.061601133793144,0.0366505879446315
3.524,-0.0603038493978554,0.0374504480939737
3.526,-0.0589954426659983,0.0381983429610094
3.528,-0.0576780982747829,0.0388943482094701
3.53,-0.0563539771011424,0.0395386357695363
3.532,-0.0550252117281643,0.040131471942649
3.534,-0.0536939020642762,0.0406732151979288
3.536,-0.0523621111050084,0.04116431392333
3.538,-0.0510318608238007,0.0416053038007036
3.54,-0.0497051282268928,0.0419968050879731
3.542,-0.0483838415585899,0.0423395196646727
3.544,-0.0470698766920934,0.0426342279031083
3.546,-0.0457650536889534,0.0428817853594471
3.548,-0.0444711335601083,0.0430831193080604
3.55,-0.0431898152163884,0.0432392251094678
3.552,-0.0419227326362555,0.0433511624412841
3.554,-0.0406714522395035,0.0434200513905864
3.556,-0.039437470488543,0.0434470684221921
3.558,-0.0382222117168648,0.0434334422333755
3.56,-0.037027026192188,0.0433804495156392
3.562,-0.0358531884247671,0.0432894106152329
3.564,-0.0347018957182708,0.043161685130212
3.566,-0.0335742669695853,0.0429986674399596
3.568,-0.0324713417358542,0.0428017821792166
3.57,-0.0313940795459849,0.0425724796858415
3.572,-0.0303433594867949,0.0423122314196909
3.574,-0.0293199800498748,0.0420225253762267
3.576,-0.0283246592481536,0.0417048615066782
3.578,-0.0273580350010177,0.0413607471563514
3.58,-0.026420665774696,0.0409916925424629
3.582,-0.0255130315434455,0.0405992062863062
3.584,-0.0246355349488471,0.0401847910085719
3.586,-0.0237885027802812,0.0397499390130382
3.588,-0.0229721877043318,0.0392961280687307
3.59,-0.0221867702585243,0.0388248173124913
3.592,-0.0214323611063677,0.0383374432823946
3.594,-0.0207090035491901,0.0378354161129042
3.596,-0.0200166762826862,0.0373201158870127
3.598,-0.019355296401436,0.0367928891922538
3.6,-0.0187247226379149,0.0362550458699147
3.602,-0.0181247588216523,0.0357078560012031
3.604,-0.0175551575592478,0.0351525471335234
3.606,-0.0170156241148564,0.0345903017673794
3.608,-0.0165058204765553,0.0340222551307308
3.61,-0.0160253696006627,0.0334494932538747
3.612,-0.0155738598075791,0.0328730513640695
3.614,-0.0151508493181174,0.0322939126161626
3.616,-0.0147558709024834,0.0317130071853845
3.618,-0.0143884366221691,0.0311312117322127
3.62,-0.0140480426339327,0.0305493492577492
3.622,-0.0137341740368398,0.029968189365376
3.624,-0.0134463097200106,0.0293884489485014
3.626,-0.0131748047632526,0.0288548248789572
3.628,-0.0129129206142546,0.0283665273560178
3.63,-0.0126673102113922,0.0278791500320264
3.632,-0.0124376424448161,0.0273926537322142
3.634,-0.0122236366156814,0.0269069670834194
3.636,-0.012025065929298,0.0264219917170325
3.638,-0.0118417606010243,0.0259376079955736
3.64,-0.011673610526007,0.0254536810297945
3.642,-0.0115205674570943,0.0249700672141171
3.644,-0.0113826466446625,0.0244866210404946
3.646,-0.0112599278698959,0.0240032022324805
3.648,-0.011152555837488,0.0235196831923693
3.65,-0.011060739855991,0.0230359566738139
3.652,-0.0109847527694391,0.0225519436163725
3.654,-0.0109249290769476,0.0220676011040592
3.656,-0.0108816622169375,0.0215829303523354
3.658,-0.0108554009519275,0.0210979846431742
3.66,-0.0108466448496722,0.0206128771230997
3.662,-0.0108559388138604,0.0201277883566222
3.664,-0.0108838666707426,0.019642973519559
3.666,-0.0109310438029712,0.019158769130626
3.668,-0.010998108841595,0.0186755991797176
3.67,-0.0110857144645354,0.0181939805448721
3.672,-0.0111945173198336,0.0177145275483391
3.674,-0.0113251671683228,0.0172379555378956
3.676,-0.0114782953128765,0.0167650833448746
3.678,-0.011654502428643,0.01629683452472
3.68,-0.0118543459212648,0.0158342372355019
3.682,-0.0120783269584616,0.0153784226699957
3.684,-0.0123268773469191,0.0149306219528217
3.686,-0.0126003464374938,0.0144921614247835
3.688,-0.0128989882635919,0.0140644562909135
3.69,-0.0132229491274618,0.0136490025930734
3.692,-0.0135722558622859,0.0132473675388612
3.694,-0.0139468049956843,0.0128611782233535
3.696,-0.014346353050877,0.0124921088270311
3.698,-0.0147705082027897,0.012141866406212
3.7,-0.0152187235164347,0.0118121754309773
3.702,-0.0156902919357568,0.0115047612490558
3.704,-0.0161843432298403,0.0112213327114144
3.706,-0.0166998430081499,0.0109635641901718
3.708,-0.017235593920868,0.0107330772761685
3.71,-0.0177902391161078,0.0105314224425715
3.712,-0.0183622679648284,0.0103600609826896
3.714,-0.0189500240418495,0.010220347537372
3.716,-0.0195517152747702,0.0101135135057787
3.718,-0.0201654261593656,0.0100406516616667
3.72,-0.0207891318635929,0.010002702228745
3.722,-0.0214207140272475,0.0100004406934478
3.724,-0.0220579780009081,0.0100344675573761
3.726,-0.0226986712563615,0.0101052002225978
3.728,-0.0233405026762371,0.0102128671441757
3.73,-0.023981162387819,0.0103575043411091
3.732,-0.0246183418414616,0.0105389543118059
3.734,-0.0252497537907839,0.0107568673468232
3.736,-0.0258731518667536,0.011010705176447
3.738,-0.0264863494453454,0.0112997468711807
3.74,-0.0270872375289744,0.0116230968306609
3.742,-0.0276738013883785,0.0119796947100264
3.744,-0.0282441357598847,0.0123683270521726
3.746,-0.0287964584098387,0.0127876404062301
3.748,-0.0293291219240402,0.0132361556943234
3.75,-0.0298406236330942,0.0137122835222574
3.752,-0.0302772206655068,0.0141708640130397
3.754,-0.0306941377395887,0.0146487447966701
3.756,-0.0310906798584263,0.0151443717128333
3.758,-0.031466301936103,0.0156561667952529
3.76,-0.0318206079411767,0.0161825440177339
3.762,-0.0321533483577718,0.0167219243733926
3.764,-0.0324644160836958,0.0172727503194369
3.766,-0.0327538409291823,0.0178334993391863
3.768,-0.0330217828379878,0.018402696522053
3.77,-0.0332685240341378,0.0189789260532085
3.772,-0.0334944602160687,0.0195608415429667
3.774,-0.0337000909999226,0.0201471751450743
3.776,-0.0338860097466712,0.0207367454285936
3.778,-0.0340528929501372,0.0213284640036883
3.78,-0.0342014893202558,0.0219213409000799
3.782,-0.0343326087015784,0.0225144887261629
3.784,-0.0344471109645143,0.0231071256567234
3.786,-0.0345458949715034,0.0236985772798702
3.788,-0.0346298877356306,0.0242882773823475
3.79,-0.0347000338543962,0.0248757677148778
3.792,-0.0347572853007537,0.0254606968368498
3.794,-0.0348025916423099,0.0260428180856349
3.796,-0.0348368907449288,0.0266219867693023
3.798,-0.034861100000037,0.0271981566417599
3.8,-0.0348761081307421,0.0277713757524646
3.802,-0.034882767601555,0.0283417817281506
3.804,-0.0348818875730176,0.028909596575856
3.806,-0.0348742276139362,0.0294751210627731
3.808,-0.0348604919391352,0.0300387287525546
3.81,-0.0348413243186828,0.0306008597488607
3.812,-0.0348173036223219,0.0311620142167484
3.814,-0.0348576535693269,0.0317250772914051
3.816,-0.0349164795811344,0.0322966769057126
3.818,-0.0349706249317955,0.0328776933463232
3.82,-0.0350197929215149,0.0334686951870093
3.822,-0.035063617453208,0.0340702427589451
3.824,-0.0351016639790577,0.0346828820402093
3.826,-0.0351334308854471,0.0353071387367063
3.828,-0.0351583513263074,0.0359435125628404
3.83,-0.0351757954568238,0.0365924717756534
3.832,-0.0351850730585316,0.037254447952692
3.834,-0.0351854365140722,0.0379298310506954
3.836,-0.0351760841002385,0.038618964767157
3.838,-0.0351561635893753,0.0393221421940333
3.84,-0.0351247761077079,0.0400396018022204
3.842,-0.0350809802437186,0.0407715237529457
3.844,-0.0350237963702463,0.041518026543916
3.846,-0.0349522111465774,0.0422791640008423
3.848,-0.0348651821953512,0.0430549226249106
3.85,-0.0347616429086857,0.0438452192767644
3.852,-0.0346405073654647,0.0446498992336939
3.854,-0.0345006753442649,0.0454687345838942
3.856,-0.034341037391915,0.0463014230078957
3.858,-0.0341604799364602,0.0471475868325729
3.86,-0.0339578904239945,0.0480067725744423
3.862,-0.0337321624421616,0.0488784506753482
3.864,-0.0334822008261987,0.0497620156819842
3.866,-0.0332069267166101,0.0506567867271255
3.868,-0.03290528255042,0.0515620083178359
3.87,-0.032576236970187,0.0524768515073378
3.872,-0.0322187896220136,0.0534004152956619
3.874,-0.031831975841165,0.054331728384612
