"Freq [GHz]","re(S(Antenna1_1_p1,Antenna1_1_p1)) []","im(S(Antenna1_1_p1,Antenna1_1_p1)) []"
3,0.121843423174332,0.00269792270041599
3.002,0.124011973386779,-0.00440881389406889
3.004,0.125784842475538,-0.0116403182483979
3.006,0.12715613515103,-0.0189760317777619
3.008,0.128120963052346,-0.026395140035132
3.01,0.128675455136696,-0.0338766195795347
3.012,0.128816765871789,-0.041399285354263
3.014,0.128543082136807,-0.0489418382557909
3.016,0.127853626536581,-0.0564829130864695
3.018,0.126748660132493,-0.0640011265205787
3.02,0.125229482292554,-0.0714751251970113
3.022,0.12329842836208,-0.0788836337662647
3.024,0.120958865255318,-0.0862055027985196
3.026,0.118215185467402,-0.0934197565324012
3.028,0.115072798105051,-0.100505640250951
3.03,0.111538118533497,-0.107442667323394
3.032,0.107618555436271,-0.114210665762464
3.034,0.103322496283667,-0.120789824220882
3.036,0.0986592905049481,-0.127160737276042
3.038,0.093639230258651,-0.133304450121375
3.04,0.0882735300947509,-0.139202502242232
3.042,0.0825743041018403,-0.144836970323483
3.044,0.0765545408219986,-0.150190510125319
3.046,0.0702280770955768,-0.15524639725303
3.048,0.0636095694977442,-0.159988566855828
3.05,0.0567144641583197,-0.164401651739001
3.052,0.0495589648161554,-0.168471019972964
3.054,0.0421599992291263,-0.172182810061987
3.056,0.0345351839206323,-0.175523965284654
3.058,0.0267027873934154,-0.178482266717314
3.06,0.0186816918014422,-0.181046363641058
3.062,0.0104913532405987,-0.183205803531995
3.064,0.00185144982897762,-0.18413835233385
3.066,-0.00692804904237312,-0.184345984011201
3.068,-0.015711324847256,-0.184093778880899
3.07,-0.0244751953095311,-0.183382054918538
3.072,-0.0331965164413761,-0.182212244836101
3.074,-0.0418522339800045,-0.180586894026215
3.076,-0.0504194346559714,-0.178509655667749
3.078,-0.0588753972718786,-0.175985283586798
3.08,-0.0671976434539262,-0.173019623266401
3.082,-0.075363987996361,-0.169619599997688
3.084,-0.0833525887284252,-0.165793205064445
3.086,-0.0911419957649145,-0.161549479952468
3.088,-0.098711200049914,-0.156898498074377
3.09,-0.106039681148686,-0.151851344399958
3.092,-0.11310745414203,-0.146420092881439
3.094,-0.11989511554673,-0.140617781862533
3.096,-0.126383888204915,-0.134458387659441
3.098,-0.132555665024343,-0.127956795661485
3.1,-0.138393051380666,-0.121128769678488
3.102,-0.143879406601788,-0.113990919461515
3.104,-0.148998883083318,-0.10656066621316
3.106,-0.153736465403026,-0.0988562063231595
3.108,-0.158078006410914,-0.0908964733347774
3.11,-0.162010262760282,-0.0827010982171837
3.112,-0.165520927943709,-0.0742903680088598
3.114,-0.168598663926448,-0.0656851828570261
3.116,-0.171233131068159,-0.0569070115981415
3.118,-0.173415015822302,-0.0479778459447156
3.12,-0.175136056100843,-0.038920153194018
3.122,-0.176389065790171,-0.0297568278247636
3.124,-0.177167955702384,-0.0205111418095408
3.126,-0.17685055704431,-0.0111894294486132
3.128,-0.175432247284807,-0.00190203708980902
3.13,-0.173533623299135,0.00728091907549336
3.132,-0.171160767567454,0.0163356339287438
3.134,-0.168320901302802,0.0252386184156581
3.136,-0.165022369482362,0.0339667525153983
3.138,-0.161274623954378,0.042497337545912
3.14,-0.15708820409178,0.0508081479403505
3.142,-0.152474715262518,0.0588774821517257
3.144,-0.147446804385772,0.0666842127699977
3.146,-0.142018133742604,0.0742078356425858
3.148,-0.136203352109428,0.0814285179259183
3.15,-0.130018064082721,0.0883271449620892
3.152,-0.123478796533956,0.0948853658510151
3.154,-0.1166029634446,0.101085637644733
3.156,-0.109408828152434,0.106911268136682
3.158,-0.101915463792275,0.112346456835026
3.16,-0.0941427115665235,0.117376334135396
3.162,-0.0861111370337897,0.121986999414841
3.164,-0.0778419844971968,0.126165555915451
3.166,-0.0693571295477831,0.129900144803055
3.168,-0.0606790298327259,0.133179976353654
3.17,-0.0518306741828511,0.135995358918017
3.172,-0.042835530139027,0.138337726013055
3.174,-0.0337174900325291,0.140199660287373
3.176,-0.0245008157002109,0.141574915507847
3.178,-0.0152100819392859,0.142458435314128
3.18,-0.00587011893358689,0.142846370088824
3.182,0.00349404638672849,0.142736089892671
3.184,0.0128572497520583,0.142126195616366
3.186,0.0221942496310309,0.141016526303834
3.188,0.0313741260556682,0.13913232700563
3.19,0.0400962106816172,0.135950238825749
3.192,0.0486160649304372,0.13232203853048
3.194,0.0569119474889516,0.128259200593811
3.196,0.0649627265023914,0.123774243060435
3.198,0.0727479303655836,0.11888069611427
3.2,0.0802477967947929,0.113593068747722
3.202,0.0874433203221077,0.107926812834398
3.204,0.0943162979744653,0.101898283915578
3.206,0.100849372860575,0.0955247012483137
3.208,0.107026075721103,0.0888241037204486
3.21,0.112830864460513,0.0818153051649584
3.212,0.118249160582841,0.0745178468227058
3.214,0.123267383938409,0.0669519483088797
3.216,0.127872984793895,0.0591384567239037
3.218,0.132054472384253,0.0510987942143906
3.22,0.135801441751541,0.0428549042137022
3.222,0.139104597142723,0.0344291963647766
3.224,0.141955772345731,0.025844490400096
3.226,0.144347948950507,0.017123959094934
3.228,0.146275270429151,0.00829107058036895
3.23,0.147733054036605,-0.000630469998017776
3.232,0.148717799440387,-0.00961677912627893
3.234,0.149227194194636,-0.0186438538118533
3.236,0.149260116580028,-0.0276876304907211
3.238,0.148816634736877,-0.0367240438274399
3.24,0.147898003723955,-0.0457290851817915
3.242,0.146506659240049,-0.0546788606705286
3.244,0.144646207849115,-0.0635496486018336
3.246,0.142321415853015,-0.0723179562035156
3.248,0.139538193958179,-0.0809605754085559
3.25,0.136303580284222,-0.0894546376732811
3.252,0.131685102763473,-0.0968724820790909
3.254,0.126721299980698,-0.104014118864211
3.256,0.121427717401927,-0.110864212747315
3.258,0.11582055914038,-0.117408260209957
3.26,0.109916644466055,-0.123632616649584
3.262,0.10373336307362,-0.129524521259326
3.264,0.0972886297209619,-0.135072119544807
3.266,0.0906008378481035,-0.140264483411878
3.268,0.0836888127333209,-0.145091628992327
3.27,0.0765717639801823,-0.149544532197373
3.272,0.0692692377560131,-0.153615141521055
3.274,0.0618010686689727,-0.157296388687465
3.276,0.054187331497596,-0.160582197257209
3.278,0.0464482929033359,-0.163467488419505
3.28,0.0386043631533939,-0.165948184796993
3.282,0.0306760480579784,-0.168021211690598
3.284,0.022683901163115,-0.169684496391803
3.286,0.0146484762672796,-0.170936965089363
3.288,0.00659028049944362,-0.171778537796954
3.29,-0.00147027218735509,-0.172210120727449
3.292,-0.00951290674908493,-0.1722335972386
3.294,-0.0175175321466729,-0.171851816073737
3.296,-0.025464285582929,-0.17106857831992
3.298,-0.0333335758621751,-0.169888621604594
3.3,-0.0411061258297613,-0.168317603250458
3.302,-0.048763013725876,-0.166362081006754
3.304,-0.0562857134471207,-0.164029492573785
3.306,-0.0636561336451768,-0.161328132835952
3.308,-0.0708566556325985,-0.15826712971716
3.31,-0.0778701699263084,-0.154856418871033
3.312,-0.0846801114797688,-0.151106716126961
3.314,-0.0912704935650773,-0.147029489131683
3.316,-0.0976259400563823,-0.142636927284806
3.318,-0.103731716406066,-0.137941910535458
3.32,-0.109573758935095,-0.1329579768461
3.322,-0.115138702558811,-0.127699288618444
3.324,-0.12041390686925,-0.122180597965403
3.326,-0.125387480824806,-0.116417211012066
3.328,-0.130048305217766,-0.110424951267795
3.33,-0.134386053779897,-0.104220122140749
3.332,-0.138391212575876,-0.0978194687054105
3.334,-0.142055097543961,-0.0912401387429997
3.336,-0.145369869892881,-0.0844996431740502
3.338,-0.148328550663459,-0.0776158159518832
3.34,-0.150925031763076,-0.0706067735352023
3.342,-0.153154087380581,-0.0634908738905909
3.344,-0.155011381388852,-0.0562866753042947
3.346,-0.156493474541695,-0.0490128948833198
3.348,-0.157597828671384,-0.0416883669635616
3.35,-0.158322809892639,-0.0343320014224058
3.352,-0.158667689318434,-0.0269627420390078
3.354,-0.158632642392589,-0.0195995249412424
3.356,-0.158218745843654,-0.0122612371721466
3.358,-0.157427973764206,-0.0049666755755217
3.36,-0.156263190619254,0.00226549400475892
3.362,-0.154728143787035,0.00941677721629543
3.364,-0.152827453135138,0.0164688910751962
3.366,-0.150566599834446,0.0234038034132983
3.368,-0.147951913013077,0.030203771670313
3.37,-0.144990554652076,0.036851380955654
3.372,-0.141690503144315,0.0433295814547149
3.374,-0.138060535137634,0.0496217248943491
3.376,-0.133532854572978,0.055162743182279
3.378,-0.128194725697905,0.0598610184051151
3.38,-0.122665441105516,0.0642306168896093
3.382,-0.116962702698545,0.0682640178116887
3.384,-0.11110448496802,0.0719545848877237
3.386,-0.105108993145592,0.0752965744823807
3.388,-0.0989946211183415,0.0782851429272835
3.39,-0.0927799092645595,0.0809163505545654
3.392,-0.0864835022387311,0.0831871655492446
3.394,-0.0801241068136632,0.085095464124175
3.396,-0.0737204498374398,0.0866400304211425
3.398,-0.0672912364326352,0.0878205532414665
3.4,-0.0608551084089716,0.0886376217092474
3.402,-0.0544306031373884,0.0890927192701639
3.404,-0.0480361127832769,0.0891882150284697
3.406,-0.0416898440944409,0.0889273540245729
3.408,-0.0354097787651699,0.0883142456552973
3.41,-0.0292136344536577,0.0873538502386365
3.412,-0.0231188265578591,0.086051964024495
3.414,-0.017142430744772,0.0844152022526011
3.416,-0.0113011463800374,0.0824509812584466
3.418,-0.00561126088368803,0.0801674984277714
3.42,-8.86150378353601E-05,0.077573710699774
3.422,0.00525143059792567,0.0746793122188807
3.424,0.0103940281876051,0.071494709524562
3.426,0.0153248739705627,0.0680309965083374
3.428,0.0200302383680096,0.0642999271767647
3.43,0.0244969947982634,0.0603138876488716
3.432,0.028712647274633,0.0560858667961567
3.434,0.0326653565396539,0.0516294258129629
3.436,0.0363439646492157,0.0469586666247187
3.438,0.03973801858992,0.0420881993912447
3.44,0.0428377919427734,0.0370331089820507
3.442,0.0456343050760715,0.0318089206002818
3.444,0.0481193439400502,0.0264315646117418
3.446,0.0502854772155902,0.0209173405852075
3.448,0.0521260720189441,0.0152828807000548
3.45,0.053635307364132,0.00954511247706184
3.452,0.0548081868843078,0.00372122104811762
3.454,0.055640549013049,-0.00217138909053504
3.456,0.0561290761261636,-0.00811513272197305
3.458,0.056271301244247,-0.0140922828566685
3.46,0.0560656138958532,-0.0200850099564685
3.462,0.0555112635407844,-0.0260754213019579
3.464,0.0546083617526409,-0.0320456005366356
3.466,0.0533578821594213,-0.037977647171252
3.468,0.0517616590406188,-0.043853716079543
3.47,0.0498223840789299,-0.0496560568974623
3.472,0.0475436013643713,-0.0553670532268435
3.474,0.0449297008483047,-0.0609692615772333
3.476,0.0419859095445878,-0.0664454499894269
3.478,0.0387182819748067,-0.0717786362439969
3.48,0.0351336879543137,-0.076952125627857
3.482,0.0312397995155752,-0.0819495481516304
3.484,0.0270450756751498,-0.0867548951303065
3.486,0.0225587457904541,-0.0913525551193791
3.488,0.0177907915223356,-0.0957273491283488
3.49,0.0127519269793663,-0.0998645648431662
3.492,0.00745357749968489,-0.103749990508879
3.494,0.00190785695616091,-0.107369946873423
3.496,-0.00387245640937585,-0.110711319253203
3.498,-0.00987394546710355,-0.113761588140763
3.5,-0.0160825810496182,-0.116508857874596
3.502,-0.0232974236459874,-0.117273809270789
3.504,-0.0305372956935879,-0.117644355815953
3.506,-0.0377823033117824,-0.117620609720602
3.508,-0.0450126220013951,-0.117203628531874
3.51,-0.052208539413821,-0.116395408404261
3.512,-0.0593504977514832,-0.115198877426751
3.514,-0.0664191356751958,-0.113617884904608
3.516,-0.0733953297238507,-0.111657190693779
3.518,-0.0802602350876714,-0.109322451785759
3.52,-0.0869953257481169,-0.106620206940571
3.522,-0.093582433809344,-0.103557860465369
3.524,-0.100003788051955,-0.100143663936026
3.526,-0.106242051549598,-0.0963866954589906
3.528,-0.112280358382783,-0.0922968389705299
3.53,-0.118102349232142,-0.0878847601704637
3.532,-0.123692205973164,-0.083161882687351
3.534,-0.129034685064276,-0.0781403609720712
3.536,-0.134115149740008,-0.07283305381667
3.538,-0.138919600920801,-0.0672534943052964
3.54,-0.143434706790893,-0.0614158604640269
3.542,-0.14764783100559,-0.0553349433463273
3.544,-0.151547059519093,-0.0490261145108917
3.546,-0.155121225823953,-0.0425052922585529
3.548,-0.158359934743108,-0.0357889068149396
3.55,-0.161253584565388,-0.0288938645455322
3.552,-0.163793388125255,-0.0218375112597159
3.554,-0.165971390937503,-0.0146375946104136
3.556,-0.167780489327543,-0.00731222582580786
3.558,-0.169214445527865,0.000120159350375508
3.56,-0.170267901841188,0.00764084030363924
3.562,-0.170936392670767,0.0152308517522329
3.564,-0.171216354718271,0.022871024453212
3.566,-0.171105136049585,0.0305420262599596
3.568,-0.170601002228854,0.0382244035332166
3.57,-0.169703142020985,0.0458986228238415
3.572,-0.168411669762795,0.0535451126896909
3.574,-0.166727627402875,0.0611443056012267
3.576,-0.164652983710154,0.0686766799406782
3.578,-0.162190631851018,0.0761228018018514
3.58,-0.159344385634696,0.0834633668219529
3.582,-0.156118973326445,0.0906792416681062
3.584,-0.152520030127847,0.0977515053045719
3.586,-0.148554088623281,0.104661489927038
3.588,-0.144228567891332,0.111390821380731
3.59,-0.139551759979524,0.117921459149491
3.592,-0.134532815940368,0.124235735803395
3.594,-0.12918172896619,0.130316395672904
3.596,-0.123509316969686,0.136146633008013
3.598,-0.117527202596436,0.141710129191254
3.6,-0.111247792314915,0.146991089213915
3.602,-0.104684253708652,0.151974277465203
3.604,-0.0978504912842478,0.156645051964523
3.606,-0.0907611208678564,0.160989398237379
3.608,-0.0834314425315553,0.164993961945731
3.61,-0.0758774122296627,0.168646080283875
3.612,-0.0681156119935791,0.17193381227107
3.614,-0.0601632189621174,0.174845967952163
3.616,-0.0520379730924834,0.177372136117385
3.618,-0.0437581436951691,0.179502711052213
3.62,-0.0353424948939327,0.181228917827749
3.622,-0.0268102498978398,0.182542836141376
3.624,-0.0181810542860106,0.183437422916501
3.626,-0.00953754802925263,0.182924000668957
3.628,-0.00103205038625461,0.181009349646018
3.63,0.00733451296460778,0.178685113442026
3.632,0.0155430918793839,0.175959151892214
3.634,0.0235750288487186,0.172840171343419
3.636,0.031412094112702,0.169337706797032
3.638,0.0390365200473757,0.165462103415574
3.64,0.046431034817993,0.161224496479794
3.642,0.0535788952239057,0.156636789778117
3.644,0.0604639188313375,0.151711633704495
3.646,0.0670705153211041,0.14646240203448
3.648,0.073383717008512,0.140903166842369
3.65,0.079389208622009,0.135048673114814
3.652,0.0850733562455609,0.128914312618372
3.654,0.0904232355470524,0.122516095400059
3.656,0.0954266591410625,0.115870621671335
3.658,0.100072203019073,0.108995051677174
3.66,0.104349232663328,0.1019070748831
3.662,0.10824792756214,0.0946248779446222
3.664,0.111759305534257,0.087167111535559
3.666,0.114875245808029,0.079552856014626
3.668,0.117588511607405,0.0718015858737176
3.67,0.119892770711465,0.0639331329168721
3.672,0.121782616637166,0.0559676480863391
3.674,0.123253586776677,0.0479255620218956
3.676,0.124302181201123,0.0398275440918746
3.678,0.124925878322357,0.03169446013972
3.68,0.125123150483735,0.0235473285925019
3.682,0.124893477430538,0.0154072752189957
3.684,0.124237357291081,0.00729548632482167
3.686,0.123156316881506,-0.000766839474216539
3.688,0.121652918931408,-0.00875854097208649
3.69,0.119730766814538,-0.0166585453444266
3.692,0.117394507559714,-0.0244459204850388
3.694,0.114649831312316,-0.0320999284110465
3.696,0.111503468017123,-0.0396000796602688
3.698,0.10796318079921,-0.046926188457788
3.7,0.104037756031565,-0.0540584283830227
3.702,0.0997369903962432,-0.0609773883639442
3.704,0.0950716729701597,-0.0676641286125856
3.706,0.0900535647968501,-0.0741002362268282
3.708,0.084695374001132,-0.0802678800488315
3.71,0.0790107271538922,-0.0861498645514285
3.712,0.0730141367881716,-0.0917296821713104
3.714,0.0667209651941505,-0.096991563922628
3.716,0.0601473845182298,-0.101920527837221
3.718,0.0533103335086344,-0.106502424668333
3.72,0.0462274708854071,-0.110723980803255
3.722,0.0389171259047525,-0.114572838406552
3.724,0.0313982461350919,-0.118037591188624
3.726,0.0236903430136385,-0.121107817153402
3.728,0.0158134354167629,-0.123774107182824
3.73,0.00778799169418102,-0.126028090062891
3.732,-0.000365129484461626,-0.127862452105194
3.734,-0.00862473896178387,-0.129270954567177
3.736,-0.0169693774067536,-0.130248444922553
3.738,-0.0253773754773454,-0.130790865478819
3.74,-0.0338269137229744,-0.130895257480339
3.742,-0.0422960817123785,-0.130559761571974
3.744,-0.0507629361658847,-0.129783614028827
3.746,-0.0592055578738387,-0.12856714078177
3.748,-0.0676021070240402,-0.126911747285677
3.75,-0.0759308769290942,-0.124819905687743
3.752,-0.0836944660483368,-0.12134977045696
3.754,-0.0912626571573887,-0.11749469533333
3.756,-0.0986173250144263,-0.113265702747167
3.758,-0.105740975655103,-0.108674641545747
3.76,-0.112616781547177,-0.103734147147266
3.762,-0.119228613890772,-0.0984576021216074
3.764,-0.125561072320696,-0.0928590949745631
3.766,-0.131599511803182,-0.0869533781778137
3.768,-0.137330067110988,-0.080755826931947
3.77,-0.142739674798138,-0.0742823962047916
3.772,-0.147816092719069,-0.0675495785930333
3.774,-0.152547917466923,-0.0605743617619257
3.776,-0.156924599802671,-0.0533741860364064
3.778,-0.160936457161137,-0.0459669021073117
3.78,-0.164574685912256,-0.0383707290189201
3.782,-0.167831369936578,-0.0306042123088371
3.784,-0.170699488733514,-0.0226861824882766
3.786,-0.173172923169503,-0.0146357138901298
3.788,-0.175246460261631,-0.00647208374365248
3.79,-0.176915795380396,0.00178526829187782
3.792,-0.178177534143754,0.0101167802668498
3.794,-0.17902919216331,0.0185028077246349
3.796,-0.179469193292929,0.0269236630493023
3.798,-0.179496867020037,0.0353596544667599
3.8,-0.179112444130742,0.0437911246194646
3.802,-0.178317050771555,0.0521984887291506
3.804,-0.177112702123018,0.060562272319556
3.806,-0.175502293493936,0.0688631485241731
3.808,-0.173489591339135,0.0770819748826546
3.81,-0.171079221898683,0.0851998296788607
3.812,-0.168276659552322,0.0931980477387484
3.814,-0.164612038979327,0.100912772482405
3.816,-0.160426483511134,0.108373075470713
3.818,-0.155892375661795,0.115603861073323
3.82,-0.151022025719515,0.122589359151009
3.822,-0.145828421381208,0.129314425261945
3.824,-0.140325197531058,0.135764567668209
3.826,-0.134526605623447,0.141925972955706
3.828,-0.128447481950307,0.14778553063784
3.83,-0.122103214962824,0.153330855700653
3.832,-0.115509711897532,0.158550310854692
3.834,-0.108683364497072,0.163433026426695
3.836,-0.101641014066239,0.167968919512157
3.838,-0.0943999157943753,0.172148710858033
3.84,-0.0869777024357079,0.17596394128322
3.842,-0.0793923474697186,0.179406985942946
3.844,-0.0716621276642463,0.182471066641916
3.846,-0.0638055852145774,0.185150263899842
3.848,-0.0558414894423512,0.187439525971911
3.85,-0.0477887981706857,0.189334677525764
3.852,-0.0396666188504648,0.190832425375694
3.854,-0.0314941693862649,0.191930363873894
3.856,-0.023290738878915,0.192626978157896
3.858,-0.0150756482501602,0.192921645152573
3.86,-0.00686821085939448,0.192814633924442
3.862,0.00131230687513836,0.192307103785348
3.864,0.0094467246658013,0.191401100741984
3.866,0.0175159874383899,0.190099552487126
3.868,0.02550120415858,0.188406262027836
3.87,0.033383686272813,0.186325898645338
3.872,0.0411449858939864,0.183863988580662
3.874,0.048766933431835,0.181026902939612
3.876,0.0560630184074149,0.177448933410025
3.878,0.0629657863605686,0.173162082983737
3.88,0.0696119521387153,0.168559623875132
3.882,0.0759872175747184,0.163655301797585
3.884,0.0820779696809581,0.158463486028635
3.886,0.0878713068660782,0.152999137524179
3.888,0.0933550634601538,0.147277775491546
3.89,0.0985178330332823,0.14131544317086
3.892,0.103348990331782,0.135128672653705
3.894,0.107838710745355,0.128734448807782
3.896,0.111977989907655,0.122150172485933
3.898,0.115758659731799,0.115393622857707
3.9,0.119173404281376,0.108482919201477
3.902,0.122215773376519,0.101436481985032
3.904,0.124880194433591,0.0942729934825944
3.906,0.127161982836013,0.0870113578762875
3.908,0.129057350732704,0.0796706610032579
