"Freq [GHz]","re(S(Antenna1_1_1,Antenna1_1_1)) []","im(S(Antenna1_1_1,Antenna1_1_1)) []"
2,-0.00987916178071894,-0.510440411296148
2.008,-0.0316015751321378,-0.509113073437836
2.016,-0.0528396466783979,-0.506866334638718
2.024,-0.0735717754275823,-0.503746728115586
2.032,-0.0937778877870682,-0.499799565016678
2.04,-0.11343975124608,-0.495069403565836
2.048,-0.132541404608158,-0.48960019494815
2.056,-0.151069560401275,-0.483435107397879
2.064,-0.169013850337606,-0.476616082775764
2.072,-0.186366817594459,-0.469183222588403
2.08,-0.203123605079274,-0.461174127437849
2.088,-0.219281340033335,-0.452623322168301
2.096,-0.23483826510152,-0.443561888057187
2.104,-0.249792707608662,-0.434017395455887
2.112,-0.264142006876324,-0.424014189732057
2.12,-0.277881530703256,-0.413574036118054
2.128,-0.291004489612686,-0.402718312592329
2.136,-0.30350182954121,-0.391466817919686
2.144,-0.315358813706965,-0.379837316221984
2.152,-0.326557978797832,-0.367852255649866
2.16,-0.337079577375284,-0.355537744813113
2.168,-0.346902735009987,-0.342924479981413
2.176,-0.356006833254888,-0.330048302950747
2.184,-0.364372996750958,-0.316950347113914
2.192,-0.371985560792959,-0.303676769845369
2.2,-0.378833406835763,-0.290278105948782
2.208,-0.384911074706614,-0.276808305660288
2.216,-0.390219587670713,-0.263323539204141
2.224,-0.394766955639175,-0.249880857576591
2.232,-0.398568348770555,-0.236536797182623
2.24,-0.40164595555701,-0.223346006557234
2.248,-0.40402855463382,-0.210359959823095
2.256,-0.405742446475087,-0.197629010091507
2.264,-0.406835273537204,-0.185197570479437
2.272,-0.407355597445834,-0.173099972248598
2.28,-0.407351423274604,-0.16136367901365
2.288,-0.406871712643752,-0.150008757008387
2.296,-0.405964917644482,-0.139047999871784
2.304,-0.4046775558887,-0.128487381931429
2.312,-0.403052903348887,-0.118326843713639
2.32,-0.401129891912206,-0.108561394174803
2.328,-0.398942302985209,-0.0991824878624616
2.336,-0.396518343482174,-0.0901796041301877
2.344,-0.393880673375807,-0.081541923598081
2.352,-0.391046923949713,-0.0732599692880885
2.36,-0.388030704156787,-0.0653270617360517
2.368,-0.384843042659048,-0.057740433650179
2.376,-0.381494160640348,-0.0505018638105275
2.384,-0.377995422130801,-0.0436177229641446
2.392,-0.37436127149519,-0.0370983750419692
2.4,-0.370610948384016,-0.030956940812587
2.408,-0.366769773514464,-0.0252075015120952
2.416,-0.3628698263675,-0.0198628887885146
2.424,-0.358949887164462,-0.01493226559404
2.432,-0.35505458612738,-0.0104187421961741
2.44,-0.351232785949896,-0.00631728580314311
2.448,-0.347535309162449,-0.00261316768037591
2.456,-0.344012200551353,0.00071885195080761
2.464,-0.340709775876072,0.00371447016981627
2.472,-0.337667743551733,0.00641887535208712
2.48,-0.334916690231609,0.00888492204718068
2.488,-0.332476192500098,0.0111705940869106
2.496,-0.330353757473322,0.0133359837163222
2.504,-0.328553883602842,0.0154394730052862
2.512,-0.32705948600656,0.0175432236801604
2.52,-0.325832211655135,0.0196968875528905
2.528,-0.324836248487281,0.021936709712788
2.536,-0.324032801881054,0.0242879087731554
2.544,-0.323383362864985,0.0267649865107301
2.552,-0.322852611760222,0.0293729996715551
2.56,-0.322410681266692,0.0321096033595632
2.568,-0.322034586814703,0.0349676002431474
2.576,-0.321708734439888,0.0379376885938109
2.584,-0.321424524354292,0.0410110987362697
2.592,-0.321179168387547,0.0441818405724467
2.6,-0.320973919632384,0.0474483487290198
2.608,-0.320811964081247,0.0508143970710747
2.616,-0.320696241876823,0.0542892490399978
2.624,-0.320627449819821,0.0578871020154416
2.632,-0.320602778872102,0.0616211200588688
2.64,-0.320616008699813,0.0655166976820357
2.648,-0.320653078354351,0.0695960586906872
2.656,-0.320694405380777,0.0738794169556683
2.664,-0.320715638884579,0.0783843452047638
2.672,-0.32068858676103,0.0831247857303466
2.68,-0.320582272519396,0.0881104604751554
2.688,-0.320363969790616,0.0933466543995856
2.696,-0.32000009471959,0.0988342956598461
2.704,-0.319456882953034,0.104570224045348
2.712,-0.318700830410425,0.110547528561819
2.72,-0.317698926745707,0.116755845799408
2.728,-0.316418749622343,0.123181539310305
2.736,-0.314828511006512,0.129807720645791
2.744,-0.312897150860318,0.136614117435138
2.752,-0.310594868221136,0.143578672810145
2.76,-0.307891282563934,0.150677442516972
2.768,-0.304757304498803,0.157872132805847
2.776,-0.301169197296641,0.165125403965579
2.784,-0.29710723729192,0.172396115220732
2.792,-0.292556501641362,0.17963993040527
2.8,-0.287507498128392,0.186810158409081
2.808,-0.281956554351482,0.193858765048889
2.816,-0.275905913115004,0.200737464249986
2.824,-0.269363519362828,0.207398781399494
2.832,-0.262342525430276,0.213796982761918
2.84,-0.25486057929498,0.219888781690156
2.848,-0.246938989117319,0.225633762318947
2.856,-0.238601872458352,0.230994499814084
2.864,-0.229875398111774,0.235936397206734
2.872,-0.220787212886263,0.240427296257769
2.88,-0.21136611760696,0.244436948270954
2.888,-0.201642020582008,0.247936446434823
2.896,-0.191646158368201,0.250897722340415
2.904,-0.181411538577223,0.253293196303284
2.912,-0.170973532664167,0.255095646677069
2.92,-0.160370531589511,0.25627833179153
2.928,-0.149644575382693,0.25681536469255
2.936,-0.138841878240233,0.256682310764403
2.944,-0.128013191140578,0.255856956005336
2.952,-0.117213969865397,0.254320182106105
2.96,-0.106504342868886,0.252056884489532
2.968,-0.0959488958364891,0.249056879950326
2.976,-0.0856163041870816,0.245315768514093
2.984,-0.0755788489595542,0.240835735330609
2.992,-0.0659118452550599,0.23562629803458
3,-0.0566929974743194,0.22970501857541
3.008,-0.0479829934959395,0.223098559011854
3.016,-0.0398810869769333,0.215833056686215
3.024,-0.0324708175790891,0.207954657165768
3.032,-0.0258343426930765,0.199521537271959
3.04,-0.0200506193903938,0.19060451331262
3.048,-0.0151933086977507,0.181287352468087
3.056,-0.0113284587104913,0.171666681417821
3.064,-0.00851206477658321,0.161851400899486
3.072,-0.00678764110424855,0.151961546269626
3.08,-0.00618396203153777,0.142126579568345
3.088,-0.00671313753397138,0.132483152815938
3.096,-0.00836917341204526,0.123172438122755
3.104,-0.0111271319765395,0.114337169665414
3.112,-0.0149429570972214,0.106118578001901
3.12,-0.0197539641729494,0.0986534124628491
3.128,-0.0254791610737895,0.0920808736762601
3.136,-0.0320127174426288,0.086525280331433
3.144,-0.0392431738814444,0.0820744613452911
3.152,-0.0470516753383495,0.078820833688144
3.16,-0.0553103374165714,0.0768453917492714
3.168,-0.0638831972784837,0.0762178173930548
3.176,-0.0726267120423113,0.0769965918276815
3.184,-0.0813898546030552,0.0792289064382444
3.192,-0.0900139300041158,0.0829502001601144
3.2,-0.0983322934977528,0.0881832058509152
3.208,-0.10617018657463,0.094936460493724
3.216,-0.11334491472171,0.103202314638943
3.224,-0.1196665694349,0.112954554902492
3.232,-0.124939449845463,0.12414581958295
3.24,-0.128964272355548,0.136705033285953
3.248,-0.131541178592581,0.150535106434972
3.256,-0.13248808487375,0.165517843891406
3.264,-0.131600568579833,0.181501778965216
3.272,-0.128694274595786,0.198300129316065
3.28,-0.123608381322277,0.215698574887256
3.288,-0.116204868373256,0.233456146743841
3.296,-0.106372892267872,0.251307966717824
3.304,-0.0940327132173756,0.26896868502029
3.312,-0.0791390847789075,0.286136507968495
3.32,-0.0616840493998805,0.302497710494045
3.328,-0.041699105271527,0.317731539496082
3.336,-0.0192567213164336,0.331515429257724
3.344,0.00552882226373998,0.343530463643428
3.352,0.0325012982557967,0.353467026872045
3.36,0.0614631439523783,0.361030582006362
3.368,0.0921768734547793,0.365947502647566
3.376,0.124367162454083,0.367968669173663
3.384,0.157718676427277,0.366867068443922
3.392,0.191889557842522,0.36248365330531
3.4,0.226515867063878,0.354686566919439
3.408,0.261215323750608,0.343389928448366
3.416,0.295593937540177,0.328556570014275
3.424,0.329253119719129,0.310199674887319
3.432,0.361797062784595,0.288383214101788
3.44,0.392840149238074,0.263221128104307
3.448,0.422014139012124,0.234875256207461
3.456,0.448974888337283,0.203552075278094
3.464,0.473408371910665,0.16949836559796
3.472,0.495035813746868,0.132995971643655
3.48,0.513617777517955,0.0943558647078586
3.488,0.528957120890442,0.0539117398722482
3.496,0.540900775999162,0.0120133902075113
3.504,0.549347478598017,-0.0309832075442271
3.512,0.554229825163719,-0.0747205433811648
3.52,0.55551647566154,-0.118835696791928
3.528,0.553225207369795,-0.162974756412828
3.536,0.547412432087644,-0.206796398898665
3.544,0.538169870213892,-0.249976218732076
3.552,0.52562079314178,-0.292210312064896
3.56,0.509915994082686,-0.333218097958504
3.568,0.491229636400825,-0.372744394201902
3.576,0.469755110576729,-0.410560792848916
3.584,0.445701008235053,-0.446466401438857
3.592,0.419287296656616,-0.480288029009034
3.6,0.390741752164573,-0.511879901666663
3.608,0.360296687764555,-0.54112299154324
3.616,0.328185990975351,-0.567924036755229
3.624,0.294642472904691,-0.592214320243325
3.632,0.259896823406548,-0.613944830842834
3.64,0.224173367934414,-0.633095304340427
3.648,0.187688358366499,-0.649662725327447
3.656,0.150649180188065,-0.663661684357955
3.664,0.11325301327749,-0.675123071059878
3.672,0.0756858197131034,-0.684092209634526
3.68,0.0381215803904918,-0.690626978811867
3.688,0.000721777484916528,-0.694795941709207
3.696,-0.0363648826997925,-0.696676514025214
3.704,-0.0730025166409134,-0.696353201039331
3.712,-0.109067896643273,-0.693915934059518
3.72,-0.144450093241942,-0.689458534700549
3.728,-0.179049956544502,-0.683077330541258
3.736,-0.212779470937911,-0.674869938618469
3.744,-0.24556102006829,-0.664934224554306
3.752,-0.277327870797096,-0.653367662615739
3.76,-0.308023458063658,-0.640265271925373
3.768,-0.337592331512177,-0.625719618116458
3.776,-0.365989875489579,-0.609822585062753
3.784,-0.393177999046292,-0.592663573923647
3.792,-0.419124469613837,-0.574329252239929
3.8,-0.443802288137721,-0.554903358665471
3.808,-0.467189095549192,-0.534466546557292
3.816,-0.489266595993391,-0.51309625710395
3.824,-0.510019980983056,-0.490866621199616
3.832,-0.529437340792967,-0.467848397590227
3.84,-0.547509054668039,-0.444108961680419
3.848,-0.564227159033202,-0.419712363719885
3.856,-0.579584701770622,-0.394719476165369
3.864,-0.593575099468594,-0.369188247585189
3.872,-0.6061915220503,-0.343174074769457
3.88,-0.617424817143686,-0.316731289285556
3.888,-0.627267252074852,-0.289912096956892
3.896,-0.635709504315219,-0.262767050588577
3.904,-0.64273937666642,-0.235347129254907
3.912,-0.648342763114936,-0.207704138723654
3.92,-0.652503751155486,-0.179891524572352
3.928,-0.655204870026526,-0.151965162030044
3.936,-0.656427474676232,-0.123984099760132
3.944,-0.656152252005478,-0.0960112397855502
3.952,-0.654359834858695,-0.0681139409868963
3.96,-0.651031510208687,-0.0403645382132537
3.968,-0.646150010541642,-0.0128407722918571
3.976,-0.639700380883265,0.0143738724025986
3.984,-0.631670917381287,0.0411899268379753
3.992,-0.622054176014933,0.0675117993075482
4,-0.610848051102275,0.0932377512323275
4.008,-0.598052771742696,0.11827022244392
4.016,-0.583679607231678,0.142483080552917
4.024,-0.567750585853399,0.165755606724109
4.032,-0.550298568020661,0.187962728144822
4.04,-0.531368425256462,0.208976043003966
4.048,-0.511018147711905,0.228665053915597
4.056,-0.489319848375576,0.246898617605956
4.064,-0.466360438135346,0.263545646326124
4.072,-0.442243618765388,0.278475355659061
4.08,-0.417090356277274,0.291570251331502
4.088,-0.391035764836914,0.302716541961955
4.096,-0.364230603716975,0.311810123959968
4.104,-0.336840711685808,0.318758908099489
4.112,-0.309046094182604,0.323485168349752
4.12,-0.281039638952593,0.325927865734883
4.128,-0.253031909987047,0.326044824700562
4.136,-0.225240045908964,0.323820982608452
4.144,-0.197870312437362,0.319260635304023
4.152,-0.171143196389401,0.312388647176885
4.16,-0.145280205681361,0.303254470638841
4.168,-0.120500630084423,0.291932957176813
4.176,-0.0970180546694273,0.278524677211421
4.184,-0.0750367126773832,0.263155684037389
4.192,-0.0547363126020638,0.245976395057162
4.2,-0.0362948767345335,0.227152194342516
4.208,-0.0198796269515043,0.206876685659117
4.216,-0.00562538283766838,0.185365566751703
4.224,0.00636020812761055,0.162851010100358
4.232,0.0159994029259728,0.139577506077171
4.24,0.0232463500793837,0.115797140186177
4.248,0.0280881992869296,0.0917644514520759
4.256,0.0305307208801512,0.067717578609356
4.264,0.0306283995500718,0.0439190164387933
4.272,0.028472502662407,0.0206073743918599
4.28,0.0241792070762392,-0.00200471106806801
4.288,0.0178882730218805,-0.0237294533753333
4.296,0.0097574176031752,-0.0444071980435075
4.304,-4.38911345601515E-05,-0.0639083046314369
4.312,-0.0113408349266234,-0.0821335022338416
4.32,-0.0239116032118853,-0.0990051190645775
4.328,-0.0376351682576594,-0.114514464060398
4.336,-0.0523695037711051,-0.128638614212364
4.344,-0.0679813013731872,-0.141367325324312
4.352,-0.0843495131789303,-0.1527006502835
4.36,-0.1013650136415,-0.162645509560954
4.368,-0.118929558704736,-0.171212801278612
4.376,-0.136955014312576,-0.17841340521452
4.384,-0.155359685431898,-0.184249009019994
4.392,-0.174059394567878,-0.188746406485006
4.4,-0.192984519315835,-0.191920202247519
4.408,-0.212069402526597,-0.193783070270069
4.416,-0.231250796663781,-0.194345774663329
4.424,-0.250466563557142,-0.193617550315851
4.432,-0.269654689566537,-0.191606730505909
4.44,-0.288754619933451,-0.188319888231406
4.448,-0.307702971738341,-0.183762147929394
4.456,-0.326429314215131,-0.177947651176579
4.464,-0.344868564373934,-0.170890232253599
4.472,-0.362955920392717,-0.162605708716519
4.48,-0.380627002650545,-0.153111712174591
4.488,-0.397817814349671,-0.142427414889563
4.496,-0.414464484482731,-0.130573247129646
4.504,-0.430500326311889,-0.117571595379105
4.512,-0.445861256323615,-0.103446423363375
4.52,-0.460483468399643,-0.0882205688627235
4.528,-0.474297604954675,-0.0719190823460248
4.536,-0.48723090680124,-0.0545699124131126
4.544,-0.49920685916148,-0.0362051455091073
4.552,-0.510145150506544,-0.0168624274742263
4.56,-0.519961994348824,0.003413519117935
4.568,-0.528570836867096,0.0245693770792306
4.576,-0.535883446159806,0.0465418113821503
4.584,-0.541811355144352,0.0692562277888524
4.592,-0.546267611918597,0.0926257868869508
4.6,-0.549168779833562,0.116550730724275
4.608,-0.550437124345215,0.140918063078054
4.616,-0.550002923431466,0.165601610900029
4.624,-0.54780684064419,0.19046248503172
4.632,-0.543802078934285,0.215346570176922
4.64,-0.537959731456648,0.240094799990549
4.648,-0.530266273099061,0.264538832970354
4.656,-0.520726642508432,0.288503514729093
4.664,-0.509366051804756,0.311809550716163
4.672,-0.496231411570513,0.334276180761087
4.68,-0.481392418719658,0.355724262902411
4.688,-0.464940212521458,0.375979831700391
4.696,-0.446962565417242,0.394869316551368
4.704,-0.427632959182748,0.412229538802905
4.712,-0.407120867680171,0.427926399080418
4.72,-0.385617326347012,0.441854615400174
4.728,-0.363329018054938,0.453957974598218
4.736,-0.340435396222596,0.464162084461431
4.744,-0.317144212460434,0.472435378737915
4.752,-0.29366356577257,0.478773618524993
4.76,-0.270198504679821,0.483198935061553
4.768,-0.246948473178054,0.485764691892605
4.776,-0.224098203212507,0.486547410967614
4.784,-0.201816207042043,0.485645578218822
4.792,-0.180251791118974,0.483176227785965
4.8,-0.159532833060888,0.479271097554466
4.808,-0.139764377146618,0.474072535309412
4.816,-0.121028924845579,0.467728653067263
4.824,-0.103385668218624,0.460391373415435
4.832,-0.0868694344510354,0.45221189212501
4.84,-0.0714952335442802,0.44333520998719
4.848,-0.0572596600966963,0.433898452136545
4.856,-0.0441434789151568,0.424028634902965
4.864,-0.0321144157875558,0.413841083618943
4.872,-0.0211299997272658,0.403438490754663
4.88,-0.0111399043383858,0.392914033326272
4.888,-0.00208720146956265,0.382342354149646
4.896,0.00608515442544642,0.371784982313995
4.904,0.0134342683107243,0.361294664131144
4.912,0.0200162488582168,0.350914437021835
4.92,0.0258851794104942,0.340678885769445
4.928,0.0310924039189052,0.330615381212958
4.936,0.0356860724307461,0.320745253803423
4.944,0.0397156451548529,0.311075001783435
4.952,0.0432127030680145,0.301623653210231
4.96,0.0462136272860779,0.292404976525278
4.968,0.0487538529409313,0.283428002779236
4.976,0.0508240665010899,0.274762406279485
4.984,0.0525230060671968,0.266374380333337
4.992,0.0538897967680704,0.258251816634102
5,0.054952577854569,0.250385817687542
5.008,0.0557752439987503,0.242575539411227
5.016,0.056230409394034,0.23500537846985
5.024,0.0563338933933085,0.227785231351109
5.032,0.0561725163335962,0.220853001693669
5.04,0.0557899935154261,0.214219485133105
5.048,0.055201494617099,0.207873193129549
5.056,0.0544348618878267,0.201813526587511
5.064,0.0535192534998426,0.196035572963884
5.072,0.052484675265327,0.19052636097715
5.08,0.0513464756505742,0.185278673156919
5.088,0.0501250461274174,0.180280834557518
5.096,0.048836321824235,0.175515773839265
5.104,0.0474885094228279,0.170966277911904
5.112,0.0460978922144455,0.166631197472684
5.12,0.0446768443203217,0.162497433124916
5.128,0.0432425365476583,0.158557320040585
5.136,0.0418118586354456,0.154794321034986
5.144,0.0403779508367172,0.15118061869106
5.152,0.0389405083778585,0.147702591825288
5.16,0.0374972829053329,0.144348752692981
5.168,0.0360446654200994,0.141109995202821
5.176,0.0345782979808614,0.137979701857435
5.184,0.0330936806063129,0.134953708827981
5.192,0.0315866502835546,0.132035069764476
5.2,0.0300572863664709,0.129222584000461
5.208,0.0285046026469341,0.126512882366437
5.216,0.0269279066369982,0.123907485016382
5.224,0.0253279432311725,0.121408695468795
5.232,0.0237069867079956,0.119019172861611
5.24,0.0220688327895274,0.116741508187392
5.248,0.0204186977595138,0.114577825363995
5.256,0.0187597990140097,0.112535487206622
5.264,0.0171051139343003,0.110612235611678
5.272,0.0154649030678614,0.108803865188089
5.28,0.0138478685986226,0.107106124257159
5.288,0.0122621874956598,0.105513049248836
5.296,0.0107150776636108,0.104017109578533
5.304,0.00921241266625939,0.102609456830066
5.312,0.00775840884583505,0.101280262972813
5.32,0.00635540399792986,0.100019127207051
5.328,0.0050037411386996,0.0988155273418557
5.336,0.00370176478781319,0.097659289449914
5.344,0.00244593097738942,0.0965410488644501
5.352,0.00123102622353586,0.0954526762259823
5.36,5.04851530176784E-05,0.094387644052851
5.368,-0.0011032085200649,0.0933413120019525
5.376,-0.00223836804089278,0.0923099138569272
5.384,-0.00336752407969075,0.0912868700934476
5.392,-0.00449739179703291,0.0902843052636201
5.4,-0.00563300964292699,0.0893072874736066
5.408,-0.00677744943784725,0.0883619699429991
5.416,-0.00793162783148856,0.087455036133817
5.424,-0.00909426436698665,0.0865931151902006
5.432,-0.0102619899738272,0.0857822049497773
5.44,-0.0114246383283098,0.085042292352422
5.448,-0.0125559877201055,0.0843856596420285
5.456,-0.0136578788083913,0.0837707225604663
5.464,-0.0147308087600539,0.0831930625868285
5.472,-0.0157758359064908,0.0826493795663892
5.48,-0.0167940111491786,0.0821374119237097
5.488,-0.017785936817628,0.0816556299123822
5.496,-0.018751532190529,0.0812027799741468
5.504,-0.0197466503468126,0.0807000726190235
5.512,-0.020856100245238,0.0801306787006444
5.52,-0.0219667518163573,0.0798659463822516
5.528,-0.022839710723337,0.0798734255123408
5.536,-0.0235163823185723,0.0797361311331701
5.544,-0.0241381194033447,0.0794558329611864
5.552,-0.0247447045979437,0.0791212902436218
5.56,-0.0253584381557583,0.0787406779371117
5.568,-0.0260066995838593,0.0783645251662352
5.576,-0.0266695347942623,0.0779905205746947
5.584,-0.0273448682967657,0.077610768485981
5.592,-0.0280370419598451,0.0772341519909923
5.6,-0.0287473041691587,0.0768700163810932
5.608,-0.0294739515533347,0.0765271802661634
5.616,-0.0302127797755777,0.0762130881260396
5.624,-0.0309577643037443,0.0759331976369834
5.632,-0.0317084180975273,0.0757147748033327
5.64,-0.0324407246217777,0.0755376670157603
5.648,-0.033147510163447,0.075394215321157
5.656,-0.0338246877864427,0.0752790534116306
