"Freq [GHz]","re(S(Antenna1_1_1,Antenna1_1_1)) []","im(S(Antenna1_1_1,Antenna1_1_1)) []"
2,-0.0131914114591189,-0.506503631981548
2.008,-0.0338729597152378,-0.504448312733796
2.016,-0.0539120833996979,-0.501747933701018
2.024,-0.0733597816532822,-0.498482798939986
2.032,-0.0922755669444682,-0.494712560361778
2.04,-0.11072248810838,-0.490475352908336
2.048,-0.128762071354658,-0.48578807638745
2.056,-0.146449450746575,-0.480647825398379
2.064,-0.163828955432356,-0.475034402771764
2.072,-0.180930400594459,-0.468913788270203
2.08,-0.197766293522774,-0.462242376994049
2.088,-0.214330117319835,-0.454971754364701
2.096,-0.23059579527502,-0.447053740032287
2.104,-0.246518372111962,-0.438445413695887
2.112,-0.262035878257224,-0.429113833249967
2.12,-0.277072273945956,-0.419040170303454
2.128,-0.291548288277886,-0.408224216132229
2.136,-0.305376813463411,-0.396679040861586
2.144,-0.318451261523565,-0.384439347692384
2.152,-0.330680612315532,-0.371566151526566
2.16,-0.341983678343404,-0.358140660874213
2.168,-0.352293788155387,-0.344261606693813
2.176,-0.361562681508988,-0.330041514837547
2.184,-0.369763383324458,-0.315602148434814
2.192,-0.376891886637459,-0.301069397001769
2.2,-0.382967548696863,-0.286567922214982
2.208,-0.388032184275214,-0.272215883845068
2.216,-0.392147921047813,-0.258120062389641
2.224,-0.395393958246375,-0.244371667942891
2.232,-0.397862436782005,-0.231043079438423
2.24,-0.39965368217861,-0.218185697818734
2.248,-0.40087111767272,-0.205829024726895
2.256,-0.401593105916317,-0.194022096514507
2.264,-0.401953175228204,-0.182734518650437
2.272,-0.402047870031834,-0.171915563341398
2.28,-0.401945573630204,-0.16151213042695
2.288,-0.401694902791652,-0.151462169319687
2.296,-0.401323770628482,-0.141700061627484
2.304,-0.4008398196437,-0.132161965549339
2.312,-0.400232149078887,-0.122790785572939
2.32,-0.399474180743206,-0.113540466764003
2.328,-0.398527440729909,-0.104379366972262
2.336,-0.397345984885074,-0.0952925282641877
2.344,-0.395881166129707,-0.086282745599081
2.352,-0.394086432919583,-0.0773704106040886
2.36,-0.391921859782587,-0.0685921857300517
2.368,-0.389358141142648,-0.059998633982179
2.376,-0.386379825403547,-0.0516509875489275
2.384,-0.382987623545801,-0.0436172817888446
2.392,-0.37919969065619,-0.0359681073217692
2.4,-0.375051845112016,-0.028772241748487
2.408,-0.370596754025464,-0.0220924146664952
2.416,-0.3659021709505,-0.0159814368721146
2.424,-0.361048359643062,-0.01047888990504
2.432,-0.35612487352738,-0.0056085286361741
2.44,-0.351226883434626,-0.00137650126514311
2.448,-0.346451256069649,0.00222955856362409
2.456,-0.341892583456753,0.00524056051280761
2.464,-0.337639351042072,0.00770514303081627
2.472,-0.333770411414733,0.00968808771668712
2.48,-0.330351904300609,0.0112680630779807
2.488,-0.327434734070098,0.0125348184581106
2.496,-0.325052685741322,0.0135859613505222
2.504,-0.323251519509842,0.0145015780070862
2.512,-0.32204034668826,0.0154056141471604
2.52,-0.321363089595835,0.0164305431608905
2.528,-0.321169681357281,0.017671695863788
2.536,-0.321393672106954,0.0192116638631554
2.544,-0.321955210300285,0.0211173474847301
2.552,-0.322764556728922,0.0234376573114551
2.56,-0.323726001831692,0.0262019629091632
2.568,-0.324742040492703,0.0294193612410474
2.576,-0.325717643963888,0.0330788130475809
2.584,-0.326564456628292,0.0371501673899697
2.592,-0.327204737307347,0.0415860625333467
2.6,-0.327574862338384,0.0463246555062198
2.608,-0.327628212294547,0.0512930939797747
2.616,-0.327337277527823,0.0564116040579978
2.624,-0.326694840776771,0.0615980283004416
2.632,-0.325678840844402,0.0667579699273688
2.64,-0.324360511321514,0.0718148908485357
2.648,-0.322801134539251,0.0767122141359872
2.656,-0.321069910712577,0.0814099937980683
2.664,-0.319244753486079,0.0858888358430638
2.672,-0.31740706011913,0.0901518149117366
2.68,-0.315636047290996,0.0942251271727554
2.688,-0.314002955174216,0.0981573751426856
2.696,-0.31256544913249,0.102017453613746
2.704,-0.311362556770234,0.105891086632348
2.712,-0.310410465964725,0.109876148564919
2.72,-0.309699476344407,0.114076982475708
2.728,-0.309192343258463,0.118598000697805
2.736,-0.308824181872812,0.123536910385791
2.744,-0.308504013308518,0.128977946401438
2.752,-0.308139160632636,0.134992413116245
2.76,-0.307630022772234,0.141657183910172
2.768,-0.306752880668203,0.148970313023647
2.776,-0.305347049532441,0.156898621283929
2.784,-0.30325753160002,0.165371747989332
2.792,-0.300343781196462,0.17428377083477
2.8,-0.296487948705692,0.183496922339581
2.808,-0.291602098091982,0.192847238472689
2.816,-0.285633942804704,0.202151852951386
2.824,-0.278570724646358,0.211217543499394
2.832,-0.270440964967376,0.219850051346318
2.84,-0.26131394123438,0.227863638048356
2.848,-0.251296877274619,0.235090318531347
2.856,-0.240529973962552,0.241388218061584
2.864,-0.229179540354374,0.246648543783334
2.872,-0.217429604968463,0.250800736075969
2.88,-0.20547248551516,0.253815467682154
2.888,-0.193498866662908,0.255705282898323
2.896,-0.181687974577001,0.256522808155915
2.904,-0.170198441302623,0.256356611187484
2.912,-0.159160420833367,0.255324929201869
2.92,-0.148669452956211,0.25356761945083
2.928,-0.138782474803393,0.25123679952575
2.936,-0.129516257704033,0.248486733001503
2.944,-0.120848406103278,0.245463572959436
2.952,-0.112720903221697,0.242295597579805
2.96,-0.105046034020486,0.239084556502132
2.968,-0.0977143682883891,0.235898694333826
2.976,-0.0906043543962816,0.232767930689803
2.984,-0.0835929652085542,0.229681558635409
2.992,-0.0765667586715599,0.22658868210488
3,-0.0694326720295194,0.22340145432341
3.008,-0.0620168458976395,0.220264335715054
3.016,-0.0542856910325333,0.216708779455015
3.024,-0.0462857623813591,0.212540342950968
3.032,-0.0381236006043765,0.207573584575259
3.04,-0.0299630629404938,0.20164797268552
3.048,-0.0220186635473507,0.194642885575087
3.056,-0.0145452258831913,0.186490727341521
3.064,-0.00782438444588321,0.177187280132986
3.072,-0.00214867883004855,0.166798563995816
3.08,0.00219585244486223,0.155463674349745
3.088,0.00494755899762862,0.143393301785838
3.096,0.00588647561145474,0.130863896525755
3.104,0.00484997132186048,0.118207704823514
3.112,0.00174577124137863,0.105799160457901
3.12,-0.00343848848304942,0.0940383458108491
3.128,-0.0107670350375895,0.0833619974783601
3.136,-0.0201327185025288,0.074302618388433
3.144,-0.0310000913666444,0.0672058082379911
3.152,-0.0430027230906495,0.062341935366944
3.16,-0.0557274187065714,0.0599009608283214
3.168,-0.0687339028580837,0.0599849205710548
3.176,-0.0815755086696113,0.0626054089072815
3.184,-0.0938195980483552,0.0676861205843444
3.192,-0.105066470368816,0.0750701879075144
3.2,-0.114965626677353,0.0845317463097152
3.208,-0.12322843973031,0.095790896689624
3.216,-0.12963652411571,0.108531022688043
3.224,-0.1340453904486,0.122417279688292
3.232,-0.136383282798263,0.13711500907995
3.24,-0.136645420382748,0.152306850480953
3.248,-0.134884170107781,0.167707424784572
3.256,-0.13129052643035,0.182759436899606
3.264,-0.126095503460233,0.197558319894716
3.272,-0.119391672382186,0.212141147779865
3.28,-0.111253865349077,0.226470857457256
3.288,-0.101724188012656,0.240534829043041
3.296,-0.0908061093888718,0.254331301031424
3.304,-0.0784626942329956,0.26785466095699
3.312,-0.0646191251924075,0.281080751354395
3.32,-0.0491693643927805,0.293953327725445
3.328,-0.031986518208627,0.306372727292482
3.336,-0.0129362127393336,0.318187660020824
3.344,0.00810792247743998,0.329190826887328
3.352,0.0312477160359967,0.339118817915995
3.36,0.0565439972885783,0.347656461105962
3.368,0.0840013649454793,0.354445500608266
3.376,0.113603498177083,0.359089278706963
3.384,0.145463082894177,0.361037757448722
3.392,0.178947148450222,0.35989122165431
3.4,0.213693291420398,0.355316840086139
3.408,0.249273061058308,0.347037799935166
3.416,0.285203379669177,0.334846801734475
3.424,0.320960730210829,0.318616794693919
3.432,0.355997399333395,0.298308400355088
3.44,0.389758959910074,0.273973658003507
3.448,0.421702121592124,0.245755928527781
3.456,0.451312071820283,0.213886001515244
3.464,0.478118473512265,0.17867465252446
3.472,0.501709375096368,0.140502080115455
3.48,0.521742417575055,0.0998048072179586
3.488,0.537952883341942,0.0570607490516482
3.496,0.550158312404402,0.0127732248237113
3.504,0.558297122068427,-0.0324190720802271
3.512,0.562432599980219,-0.0780508242567648
3.52,0.56259121560524,-0.123804914830128
3.528,0.558865353891595,-0.169255505667228
3.536,0.551398400680444,-0.214009251716065
3.544,0.540376434868992,-0.257711433203236
3.552,0.52601932038361,-0.300050158698936
3.56,0.508571625754586,-0.340758638467904
3.568,0.488293773012025,-0.379615618937402
3.576,0.465453772981529,-0.416444149186216
3.584,0.440319844421653,-0.451108915558857
3.592,0.413154144254816,-0.483512428375434
3.6,0.384207759958604,-0.513590374006263
3.608,0.353717037571715,-0.54130645611864
3.616,0.321901244078551,-0.566647042695329
3.624,0.288961494945491,-0.589615912271125
3.632,0.254975545144748,-0.610222434376434
3.64,0.220211133462614,-0.628448682819027
3.648,0.184850179392299,-0.644328078095397
3.656,0.149043790978665,-0.657902516963056
3.664,0.11292893320056,-0.669217116735577
3.672,0.0766304005723034,-0.678317957053326
3.68,0.0402630160420918,-0.685250479652467
3.688,0.00393390182211653,-0.690058540333707
3.696,-0.0322553209755425,-0.692784076189514
3.704,-0.0682065302596834,-0.693467324027431
3.712,-0.103823403484163,-0.692147503700518
3.72,-0.139010101275052,-0.688863863384749
3.728,-0.173670387987102,-0.683656972967558
3.736,-0.207707215552711,-0.676570146909069
3.744,-0.24102276991139,-0.667650878946906
3.752,-0.273504743363796,-0.656971812354549
3.76,-0.305050283997358,-0.644644671975773
3.768,-0.335624020147577,-0.630675814193488
3.776,-0.365135454292879,-0.615126795622693
3.784,-0.393494853619092,-0.598067179226147
3.792,-0.420614945669237,-0.579575325871529
3.8,-0.446412828945121,-0.559738721992171
3.808,-0.470811978664992,-0.538653802155792
3.816,-0.493744221275371,-0.51642525416945
3.824,-0.515151551362236,-0.493164824061016
3.832,-0.534987671351687,-0.468989667326227
3.84,-0.553219147632039,-0.444020319829819
3.848,-0.569826095782302,-0.418378385110185
3.856,-0.584802331630522,-0.392184053503069
3.864,-0.598154952634594,-0.365553581277389
3.872,-0.6099033442511,-0.338596864277317
3.88,-0.620072075507286,-0.311353935341716
3.888,-0.628667170725752,-0.283946221792292
3.896,-0.635732106580719,-0.256503426423677
3.904,-0.64132279787012,-0.229105005697107
3.912,-0.645499427595036,-0.201815203844354
3.92,-0.648322748046626,-0.174682544533452
3.928,-0.649850251298343,-0.147740208025744
3.936,-0.650132418829932,-0.121007326479132
3.944,-0.649209266843678,-0.0944911809864502
3.952,-0.647107399247795,-0.0681902336559963
3.96,-0.643837764241687,-0.0420978793312537
3.968,-0.639394283390942,-0.0162067569066571
3.976,-0.633753485141565,0.00948657787521858
3.984,-0.626875229543587,0.0349768456904953
3.992,-0.618704559559933,0.0602453495408482
4,-0.609174659157375,0.0852556472935275
4.008,-0.598327684654496,0.10990049958272
4.016,-0.585987765327078,0.134201164532517
4.024,-0.572061131165399,0.158054278570909
4.032,-0.556461658036031,0.181324022181022
4.04,-0.539118826612262,0.203842673662966
4.048,-0.519985638773705,0.225412992539497
4.056,-0.499046077260976,0.245812423970056
4.064,-0.476314044633146,0.264826371975224
4.072,-0.451788816159388,0.282278221275461
4.08,-0.425594659751474,0.297766203123933
4.088,-0.397906465709214,0.311019572537755
4.096,-0.368953313961375,0.321789165497468
4.104,-0.339014462660708,0.32985909771929
4.112,-0.308412730228504,0.335057518119752
4.12,-0.277505509917593,0.337265828313683
4.128,-0.246648028204867,0.336383865247062
4.136,-0.216252794184464,0.332371533919852
4.144,-0.186775856229162,0.325379588730323
4.152,-0.158593656716701,0.315568831724785
4.16,-0.132046945025861,0.303161799282041
4.168,-0.107428841641423,0.288433812782613
4.176,-0.0849752047313273,0.271701533451121
4.184,-0.0648578429133832,0.253309609692989
4.192,-0.0473116205721638,0.233654064791262
4.2,-0.0323115815573335,0.213167185525116
4.208,-0.0196877884354343,0.192168113607117
4.216,-0.00932401243659838,0.170940218660703
4.224,-0.00106549719188945,0.149717439752358
4.232,0.00526673856697279,0.128678758825271
4.24,0.00986087829198369,0.107946457294477
4.248,0.0128995339559296,0.0875882095004759
4.256,0.0147640000581512,0.067641766396016
4.264,0.0154394866250718,0.0479518388452933
4.272,0.014901808848207,0.0284509308083599
4.28,0.0131544307196392,0.00909473623843199
4.288,0.0101623124950805,-0.0101483682003333
4.296,0.0058579552527752,-0.0292858765475075
4.304,0.000150309479429848,-0.0482917996204369
4.312,-0.00706409494002336,-0.0671000741218416
4.32,-0.0159732569308853,-0.0855347392994775
4.328,-0.0265496371589594,-0.103468487401698
4.336,-0.0388396527891051,-0.120728189587764
4.344,-0.0528646594521872,-0.137107838941532
4.352,-0.0686055192174303,-0.1523796387552
4.36,-0.0859960182659001,-0.166304387381354
4.368,-0.104919106347836,-0.178643502820512
4.376,-0.125237697348376,-0.18915244944392
4.384,-0.146871397889898,-0.197454163757094
4.392,-0.169276680088578,-0.203504340268206
4.4,-0.192137287398435,-0.207237655970519
4.408,-0.215131359528297,-0.208650959973969
4.416,-0.237945983700081,-0.207803033123729
4.424,-0.260291282974542,-0.204810787318651
4.432,-0.281913177319537,-0.199842127047739
4.44,-0.302560939426151,-0.193137497141606
4.448,-0.322066424417141,-0.185009856228694
4.456,-0.340462649407631,-0.175644353243779
4.464,-0.357726305998934,-0.165267319036299
4.472,-0.373883362684617,-0.154088318252919
4.48,-0.389002752177455,-0.142289160642391
4.488,-0.403187617764731,-0.130014769911863
4.496,-0.416564632008231,-0.117366439848246
4.504,-0.429337662185489,-0.104399469661805
4.512,-0.441638681214415,-0.0910736638122754
4.52,-0.453506925224843,-0.0773353660413235
4.528,-0.465022584997375,-0.0631124280695248
4.536,-0.47623451502204,-0.0483043310333126
4.544,-0.48715363108518,-0.0327909175018373
4.552,-0.497748518746344,-0.0164424876053263
4.56,-0.507943512602124,0.000869281721135
4.568,-0.517619376608296,0.0192601796122306
4.576,-0.526616580601006,0.0388226654906502
4.584,-0.534741033144752,0.0596160172970524
4.592,-0.541772004622187,0.0816579607223508
4.6,-0.547471860790562,0.104918244282975
4.608,-0.551597132827215,0.129314530340054
4.616,-0.553910377941766,0.154710859578729
4.624,-0.55419223856759,0.18091882067962
4.632,-0.552123023359785,0.207674249091722
4.64,-0.547686823273448,0.234660897899939
4.648,-0.540823425189161,0.261576491349054
4.656,-0.531505910684732,0.288102027462993
4.664,-0.519762886884456,0.313912118159463
4.672,-0.505679260380713,0.338686244275587
4.68,-0.489394570826258,0.362119997443611
4.688,-0.471111839616181,0.383959771446891
4.696,-0.451148872724542,0.404345888017168
4.704,-0.429477601751948,0.422716302681405
4.712,-0.406383442582671,0.438852754945518
4.72,-0.382209105100012,0.452531934544874
4.728,-0.357487138587638,0.463438619464818
4.736,-0.332532349712796,0.471905264389231
4.744,-0.307669316532534,0.478008727114145
4.752,-0.28318736392597,0.481884932542193
4.76,-0.259324239520721,0.483712774250953
4.768,-0.236307349517654,0.483672138143805
4.776,-0.214302316815407,0.481989974376514
4.784,-0.193423416495813,0.478905429591722
4.792,-0.173734197909874,0.474658419107465
4.8,-0.155250641013488,0.469478946664966
4.808,-0.137946543248418,0.463577724075512
4.816,-0.121767799194379,0.457138310050863
4.824,-0.106628342217124,0.450317083471335
4.832,-0.0924121697686354,0.44323152858156
4.84,-0.0790045588712802,0.43595946793339
4.848,-0.0662925139531963,0.428542707912145
4.856,-0.0541731771604568,0.420990469554065
4.864,-0.0425609334766558,0.413284593083243
4.872,-0.0313928662143658,0.405386123933563
4.88,-0.0205999542760458,0.397248597865072
4.888,-0.0101855594754626,0.388792850584646
4.896,-0.000194405626353576,0.379956729192195
4.904,0.00932261066632426,0.370698166579244
4.912,0.0182948719979168,0.360993582949735
4.92,0.0266380629958942,0.350842627952045
4.928,0.0342611174071052,0.340271215577938
4.936,0.0410736470943461,0.329332700564523
4.944,0.0468973057006529,0.318019240366135
4.952,0.0517030625278145,0.306557477069231
4.96,0.0554843644872779,0.295106557951478
4.968,0.0582453660991313,0.283807944618136
4.976,0.0606632420640099,0.273504482728485
4.984,0.0624978030864268,0.263421101963137
4.992,0.0637016862910704,0.253516373348202
5,0.064282097172469,0.243833566181042
5.008,0.0621857438517503,0.233019773880827
5.016,0.058908134845934,0.22361237738405
5.024,0.0558896016745085,0.216397015106649
5.032,0.0528024979484962,0.210254534819069
5.04,0.0500320775810261,0.204933244991405
5.048,0.047477565463499,0.200415336767949
5.056,0.0452735177255267,0.196577133799111
5.064,0.0435182912054426,0.193239333586284
5.072,0.042224293166167,0.19014084928785
5.08,0.0413960519531742,0.187269423763519
5.088,0.0410228572251174,0.184481459126918
5.096,0.040955705543035,0.181634853240765
5.104,0.0409537699441279,0.178710317782604
5.112,0.0412356317924455,0.175705934941984
5.12,0.0417509318373217,0.172545836592146
5.128,0.0426479484726583,0.169068208784625
5.136,0.0438949282884456,0.164987849716786
5.144,0.0449461006480172,0.16040203405996
5.152,0.0456472962542585,0.155371310244888
5.16,0.0458665778697329,0.149993050894781
5.168,0.0455022877799994,0.144394525726121
5.176,0.0444891271547913,0.138724317309535
5.184,0.0428019498823129,0.133142607403681
5.192,0.0405604561432546,0.127879309019376
5.2,0.0378344522367709,0.122998891486561
5.208,0.0346172811360341,0.118551712517637
5.216,0.0309964170555982,0.114643247380862
5.224,0.0270834891572725,0.111356914977995
5.232,0.0230086070781956,0.108748751695611
5.24,0.0189135377945274,0.106843513160592
5.248,0.0149440860097138,0.105632449941395
5.256,0.0112908191670097,0.105180824110422
5.264,0.00810650625002034,0.105309023757678
5.272,0.00547923746265137,0.105853591441689
5.28,0.00347280613272261,0.10667112941156
5.288,0.00211572049315979,0.107607649688736
5.296,0.00139969069931081,0.108507202767433
5.304,0.00128019147645939,0.109220623957466
5.312,0.00167907207743505,0.109613907499143
5.32,0.00248907188982986,0.109575737780821
5.328,0.0035799935123996,0.109023752057256
5.336,0.00480619192131319,0.107909177853114
5.344,0.00601496326088942,0.10621957696365
5.352,0.00705536425423586,0.103979532419882
5.36,0.00778696624298768,0.101249228486351
5.368,0.0080880481997051,0.0981209919329525
5.376,0.00784342354310722,0.0947011590436272
5.384,0.00685109900760925,0.0910956656602476
5.392,0.00522109788206709,0.08758640076892
5.4,0.00299239418687301,0.0843303568312066
5.408,0.000241044928552745,0.0814691378123491
5.416,-0.00292487816738856,0.079120533017757
5.424,-0.00637221351128665,0.0773715999862006
5.432,-0.00995106858612717,0.0762736530644773
5.44,-0.0133576422335098,0.076006309300422
5.448,-0.0161329035240055,0.0765743585415285
5.456,-0.0184656651913613,0.0774210009233663
5.464,-0.0203404531184939,0.0784283368950285
5.472,-0.0217700567813008,0.0794853827969892
5.48,-0.0227914769106486,0.0804941847827097
5.488,-0.023460713960968,0.0813744516862822
5.496,-0.023846852721229,0.0820665321193468
5.504,-0.0254847374921126,0.0819249930879235
5.512,-0.028984823960038,0.0814102497528444
5.52,-0.0310357741384573,0.0839609336482516
5.528,-0.029772181783637,0.0885036908361408
5.536,-0.0269751347207723,0.0905322838184701
5.544,-0.0241166793169447,0.0903257325330864
5.552,-0.0214727679002737,0.0890554730972218
5.56,-0.0193371909568583,0.0868553574533117
5.568,-0.0181029322339593,0.0845289477753352
5.576,-0.0174741299373623,0.0820556360551947
5.584,-0.0174011349515657,0.079318274795581
5.592,-0.0179369171696451,0.0764630484021523
5.6,-0.0190974393681587,0.0736450413871932
5.608,-0.0208604864218347,0.0710190609798634
5.616,-0.0231667362430777,0.0687304175996396
5.624,-0.0259230242655443,0.0669062032067834
5.632,-0.0292691121023273,0.0662432951901327
5.64,-0.0325185389500877,0.0663764403184603
5.648,-0.035448365107257,0.067139937454957
5.656,-0.0379272227518226,0.0684076545026306
5.664,-0.0392270885548133,0.0698370596085358
