"Freq [GHz]","re(S(Antenna1_1_1,Antenna1_1_1)) []","im(S(Antenna1_1_1,Antenna1_1_1)) []"
2,-0.00801164263911894,-0.507549518101548
2.008,-0.0291182701692378,-0.506763659605796
2.016,-0.0498881773246979,-0.505185663784018
2.024,-0.0703256113837823,-0.502823638957986
2.032,-0.0904266610634682,-0.499679120907878
2.04,-0.11017835909238,-0.495749956292136
2.048,-0.129558517745658,-0.49103318555475
2.056,-0.148536254106575,-0.485527757174379
2.064,-0.167073124482356,-0.479236923615764
2.072,-0.185124756131459,-0.472170196101303
2.08,-0.202642841235174,-0.464344768495649
2.088,-0.219577343872035,-0.455786357846701
2.096,-0.23587876658472,-0.446529448085287
2.104,-0.251500328623962,-0.436616961387887
2.112,-0.266399922677224,-0.426099416396967
2.12,-0.280541739426956,-0.415033661689454
2.128,-0.293898452035486,-0.40348095477123
2.136,-0.30645042074641,-0.391505150673486
2.144,-0.318184323983565,-0.379172360321174
2.152,-0.329096877147532,-0.366547718469066
2.16,-0.339192491790404,-0.353694127035813
2.168,-0.348482321602388,-0.340670947478813
2.176,-0.356983074984988,-0.327533030003647
2.184,-0.364715699532958,-0.314330112765214
2.192,-0.371704044987759,-0.301106594025769
2.2,-0.377973604209913,-0.287901651682982
2.208,-0.383550417570314,-0.274749659647068
2.216,-0.388460206094213,-0.261680831147641
2.224,-0.392727774623375,-0.248722006312891
2.232,-0.396376700221555,-0.235897496109423
2.24,-0.39942929520761,-0.223229897090434
2.248,-0.40190681066172,-0.210740800832095
2.256,-0.403825939275317,-0.198460797152407
2.264,-0.405213546403204,-0.186406459654237
2.272,-0.406093007976834,-0.174594994183198
2.28,-0.406486719078204,-0.16304601711875
2.288,-0.406418188350652,-0.151778426461687
2.296,-0.405912186692482,-0.140809993711484
2.304,-0.4049947084943,-0.130156925590339
2.312,-0.403692749862887,-0.119833466326939
2.32,-0.402033931742006,-0.109851605371003
2.328,-0.400046016322109,-0.100220942441262
2.336,-0.397756380555674,-0.0909487428381877
2.344,-0.395191519339707,-0.082040192874081
2.352,-0.392376651949583,-0.0734988401090886
2.36,-0.389335498275587,-0.0653271784700517
2.368,-0.386090276657648,-0.057527316550279
2.376,-0.382661953815548,-0.0501016508271275
2.384,-0.3790707511648,-0.0430534560069046
2.392,-0.37533688305819,-0.0363873036023692
2.4,-0.371481473714016,-0.030109227708487
2.408,-0.367527573534464,-0.0242265736814952
2.416,-0.3635011747835,-0.0187474900551146
2.424,-0.359432113532062,-0.01368005483504
2.432,-0.35535474100808,-0.0090310620201741
2.44,-0.351308254188736,-0.00480452988114311
2.448,-0.347336592797549,-0.00100002624837591
2.456,-0.343487837075753,0.00238906537580761
2.464,-0.339813076340072,0.00537719445481627
2.472,-0.336364759968733,0.00798805209168712
2.48,-0.333194587089609,0.0102555867419807
2.488,-0.330351035477098,0.0122244884663106
2.496,-0.327876670285322,0.0139500303000222
2.504,-0.325822672437842,0.0154772233624862
2.512,-0.32422599654926,0.0168915787451604
2.52,-0.323078298307835,0.0183017942198905
2.528,-0.322365602553281,0.019794673759788
2.536,-0.322056114860954,0.0214537822311554
2.544,-0.322100923673285,0.0233551837647301
2.552,-0.322435802743622,0.0255633482114551
2.56,-0.322984068581692,0.0281275182741632
2.568,-0.323660368927703,0.0310788164410474
2.576,-0.324375203921888,0.0344283361015809
2.584,-0.325039917258292,0.0381664067219697
2.592,-0.325571845560347,0.0422631515833467
2.6,-0.325899284692384,0.0466703726901898
2.608,-0.325965925093547,0.0513247064167747
2.616,-0.325734425847823,0.0561519016399978
2.624,-0.325188839273771,0.0610719858424416
2.632,-0.324301376905402,0.0659909187393688
2.64,-0.323138175095514,0.0708293102115357
2.648,-0.321759518544451,0.0755292534109872
2.656,-0.320235711440677,0.0800511426220683
2.664,-0.318646757600079,0.0843782200240638
2.672,-0.31707597461913,0.0885188642097366
2.68,-0.315603091290996,0.0925071706907554
2.688,-0.314297280276216,0.0964017136406856
2.696,-0.31321059990249,0.100282497525446
2.704,-0.312372309311234,0.104246230448548
2.712,-0.311784479490725,0.108400169496919
2.72,-0.311419251029407,0.112854893935708
2.728,-0.311217991417463,0.117716447105805
2.736,-0.311092486533812,0.123078345874791
2.744,-0.310928169789518,0.129013982779438
2.752,-0.310608128725536,0.135584148434245
2.76,-0.310000800999634,0.142853185119172
2.768,-0.308872827812203,0.150761051938647
2.776,-0.307061903642441,0.159234570796929
2.784,-0.30442225797402,0.168162029105332
2.792,-0.300833952238462,0.17739781831777
2.8,-0.296210803879692,0.186769332415981
2.808,-0.290506389650982,0.196085721085189
2.816,-0.283717698154704,0.205147960781386
2.824,-0.275886150565358,0.213759609159394
2.832,-0.267095878997376,0.221737551532318
2.84,-0.25746933279138,0.228922036684356
2.848,-0.247160462272219,0.235185335041347
2.856,-0.236345894934552,0.240438433170584
2.864,-0.225214659415374,0.244635300132334
2.872,-0.213957118055463,0.247774415868969
2.88,-0.20275383180716,0.249897429555154
2.888,-0.191765096856908,0.251085005324323
2.896,-0.181121858817001,0.251450101287785
2.904,-0.170918629372623,0.251129102891484
2.912,-0.161208906303367,0.250271381426769
2.92,-0.152003438822211,0.24902796269583
2.928,-0.143271495961393,0.24754006132475
2.936,-0.134945098293033,0.245928257814503
2.944,-0.126925975397478,0.244283065909436
2.952,-0.119094826267697,0.242657558939805
2.96,-0.111322299554886,0.241062599232132
2.968,-0.103480986038389,0.239465053001826
2.976,-0.0954576354932816,0.237789183954803
2.984,-0.0871647800895542,0.235921213809409
2.992,-0.0785509688715599,0.23371683121088
3,-0.0696088922595194,0.23101123441541
3.008,-0.0601447574376395,0.227785165008054
3.016,-0.0504260436125333,0.223594138735015
3.024,-0.0406440440353591,0.218269965583968
3.032,-0.0310403073203765,0.211691534786259
3.04,-0.0218940136374938,0.20379738665552
3.048,-0.0135064524973507,0.194594789445087
3.056,-0.00618357203919126,0.184164692871521
3.064,-0.000217696631883209,0.172662195662986
3.072,0.00413043528595145,0.160312454169816
3.08,0.00664818120686223,0.147402251286745
3.088,0.00718501373762862,0.134267723110838
3.096,0.00566317053145474,0.121278984712755
3.104,0.00208427249186048,0.108822591866514
3.112,-0.00346849420862137,0.0972829094699008
3.12,-0.0108327548160494,0.0870235216958491
3.128,-0.0198554966775895,0.0784718934673601
3.136,-0.0301947566105288,0.072029255068433
3.144,-0.0413044278306444,0.0677147786579911
3.152,-0.0527997543576495,0.065599447936944
3.16,-0.0643024251215714,0.0656758737883214
3.168,-0.0754578956190837,0.0678646996460548
3.176,-0.0859501403066113,0.0720249066562815
3.184,-0.0955129768783552,0.0779671767299444
3.192,-0.103937354768816,0.0854692915685144
3.2,-0.111074286917353,0.0942924368657152
3.208,-0.11683340521031,0.104197248783624
3.216,-0.12117741721571,0.114958485140043
3.224,-0.1241130152496,0.126377322158292
3.232,-0.125679021297733,0.13829046023995
3.24,-0.125932728131748,0.150575456110953
3.248,-0.124935508214781,0.163151967794572
3.256,-0.12298082859035,0.175832210349606
3.264,-0.119998065545233,0.188852985982716
3.272,-0.115852948534186,0.202313036242865
3.28,-0.110436195019077,0.216232589710036
3.288,-0.103599753032656,0.230606700620041
3.296,-0.0951637901188719,0.245392398343424
3.304,-0.0849270519289956,0.26049795363299
3.312,-0.0726799512134075,0.275775057719395
3.32,-0.0582195741307805,0.291014524154445
3.328,-0.041365668315027,0.305945902052482
3.336,-0.0219766133493336,0.320241146580824
3.344,3.56285504399803E-05,0.333522244007328
3.352,0.0246925265479967,0.345372447982995
3.36,0.0519387917695783,0.355350565940962
3.368,0.0816356551074793,0.363007551511266
3.376,0.113582711157083,0.367873645573063
3.384,0.147543882474177,0.369312578440722
3.392,0.182887585314222,0.36718070822931
3.4,0.219150172467398,0.361229902305139
3.408,0.255827909598308,0.351287904564166
3.416,0.292391813327177,0.337264487170475
3.424,0.328303297094929,0.319154403102919
3.432,0.363029909377395,0.297037085468088
3.44,0.396060465980073,0.271073199780507
3.448,0.426918930604424,0.241498305155781
3.456,0.455176481792283,0.208614012025244
3.464,0.480461314441265,0.17277713115146
3.472,0.502465853578368,0.134387386364455
3.48,0.520951199457055,0.0938743084431586
3.488,0.535748768337942,0.0516839383936482
3.496,0.546759234355402,0.00826594581191127
3.504,0.554032212229427,-0.0358892572482271
3.512,0.557617484453219,-0.0804214567707648
3.52,0.55749379839524,-0.125009989540128
3.528,0.553754446287795,-0.169291138570228
3.536,0.546530016513444,-0.212930636306065
3.544,0.535981499604992,-0.255626942448236
3.552,0.52229334433378,-0.297113067380936
3.56,0.505666753082586,-0.337157034193904
3.568,0.486313467710025,-0.375561126619402
3.576,0.464450249596529,-0.412160113093216
3.584,0.440294203814653,-0.446818667141763
3.592,0.414059040446816,-0.479428220748434
3.6,0.385952309220604,-0.509903490518263
3.608,0.356173589707715,-0.53817890707714
3.616,0.324913570911551,-0.564205157637329
3.624,0.292353913187491,-0.587946022015125
3.632,0.258588791811748,-0.609325544357434
3.64,0.223880834926294,-0.628335829569027
3.648,0.188412158411299,-0.644982314084397
3.656,0.152343417602665,-0.659273848821056
3.664,0.11582747142879,-0.671225678976577
3.672,0.0790104807773034,-0.680858334014326
3.68,0.0420330419420918,-0.688196960926467
3.688,0.00503124874511653,-0.693271067003707
3.696,-0.0318624086735425,-0.696114616859314
3.704,-0.0685183820826834,-0.696766411144931
3.712,-0.104809692976163,-0.695270661975518
3.72,-0.140611879712052,-0.691677672815349
3.728,-0.175803270360102,-0.686044528777158
3.736,-0.210265564937711,-0.678435706670069
3.744,-0.24388468976939,-0.668923522559906
3.752,-0.276555176881296,-0.657606535816549
3.76,-0.308200584013158,-0.644603530684773
3.768,-0.338724835012577,-0.629945140572488
3.776,-0.368036130570679,-0.613725883234693
3.784,-0.396050714697092,-0.596048223694147
3.792,-0.422694487602237,-0.577021753669529
3.8,-0.447904474356121,-0.556761939696171
3.808,-0.471630039853992,-0.535388479470292
3.816,-0.493833752338371,-0.51302333175255
3.824,-0.514491815287236,-0.489788507612016
3.832,-0.533594009831687,-0.465803728607827
3.84,-0.55114311591904,-0.441184069778219
3.848,-0.567153808835302,-0.416037711193185
3.856,-0.581651056823522,-0.390463921069069
3.864,-0.594668073991594,-0.364551385893389
3.872,-0.6062439087762,-0.338376989114317
3.88,-0.616370797527287,-0.311962537062716
3.888,-0.625088969203752,-0.285408267435292
3.896,-0.632475493230519,-0.258793800340677
3.904,-0.63858104678812,-0.232152030648107
3.912,-0.643449568303036,-0.205501776169354
3.92,-0.647114818820626,-0.178849889897552
3.928,-0.649597440575343,-0.152194193820244
3.936,-0.650902705711932,-0.125527115839132
3.944,-0.651019118368678,-0.0988398668404502
3.952,-0.649917993609795,-0.0721269582485963
3.96,-0.647554088891687,-0.0453908336172537
3.968,-0.643867310524942,-0.0186463727076571
3.976,-0.638785461771065,0.00807497591821859
3.984,-0.632227943864587,0.0347216671894953
3.992,-0.624110269423933,0.0612193469548482
4,-0.614349202262375,0.0874691302285275
4.008,-0.602955495224396,0.11339323414972
4.016,-0.589753857035078,0.138834993507517
4.024,-0.574686069206399,0.163613822889909
4.032,-0.557720401221031,0.187525950718622
4.04,-0.538857131774262,0.210349546700966
4.048,-0.518132923533705,0.231851035000497
4.056,-0.495623807512976,0.251792319620356
4.064,-0.471422823894146,0.269954659932224
4.072,-0.445586777183388,0.286130696690461
4.08,-0.418417114121374,0.300013131558933
4.088,-0.390170381891214,0.311419739728755
4.096,-0.361133907981375,0.320209782120468
4.104,-0.331617016052708,0.326289516101289
4.112,-0.301941267798504,0.329615636630752
4.12,-0.272430229500593,0.330196488543683
4.128,-0.243431164874867,0.328055123427062
4.136,-0.215291168260464,0.323305174159852
4.144,-0.188226893326162,0.316179111625323
4.152,-0.162455221657701,0.306867954501785
4.16,-0.138152604124861,0.295582782700041
4.168,-0.115453875154423,0.282545419817613
4.176,-0.0944532354193273,0.267979358761121
4.184,-0.0752072572143832,0.252101424695989
4.192,-0.0577815233281638,0.235217178291262
4.2,-0.0420929010493335,0.217507825513116
4.208,-0.0280617307466043,0.199031335311117
4.216,-0.0156575859985984,0.179889472242703
4.224,-0.00485631155488945,0.160161689420358
4.232,0.00435386213697279,0.139910383813271
4.24,0.0119680112919837,0.119187548640477
4.248,0.0179623117909296,0.0980423019634759
4.256,0.0224030964961512,0.076348857701856
4.264,0.0250491352660718,0.0542471534282933
4.272,0.025765772810207,0.0319194914503599
4.28,0.0244778595586392,0.00952463283843199
4.288,0.0211271858670805,-0.0127537790673333
4.296,0.0156794926747752,-0.0347104274435075
4.304,0.00813058399763985,-0.0561233077304369
4.312,-0.00148887873202336,-0.0767602213598416
4.32,-0.0128935721398853,-0.0962749990234775
4.328,-0.0261417046289594,-0.114661202936698
4.336,-0.0411460016791051,-0.131721032702764
4.344,-0.0577705478211872,-0.147253131934532
4.352,-0.0758433549584303,-0.1610720140502
4.36,-0.0951587915649001,-0.173016644691354
4.368,-0.115482228226836,-0.182958494915512
4.376,-0.136569802374716,-0.19076086368492
4.384,-0.158121213005898,-0.196080792997094
4.392,-0.179687806946578,-0.199295292080206
4.4,-0.201020987621435,-0.200524442639519
4.408,-0.221910462359297,-0.199926170063969
4.416,-0.242191018512081,-0.197685983895729
4.424,-0.261746647582542,-0.194005470124251
4.432,-0.280511806359537,-0.189090210242739
4.44,-0.298474062154151,-0.183187349775606
4.448,-0.315714203027141,-0.176522652052694
4.456,-0.332304862884631,-0.169111673949779
4.464,-0.348323233145934,-0.161046983265299
4.472,-0.363858905522917,-0.152385505656919
4.48,-0.379004497563455,-0.143147286560391
4.488,-0.393846326398731,-0.133316454034863
4.496,-0.408455625764231,-0.122844296758246
4.504,-0.422909336183789,-0.111610480206805
4.512,-0.437193480544415,-0.0995024904832754
4.52,-0.451250067599843,-0.0864615407803235
4.528,-0.465027794434375,-0.0723885485079248
4.536,-0.47844307478804,-0.0571881857533126
4.544,-0.49138103979618,-0.0407765185088373
4.552,-0.503698181293344,-0.0230882676416263
4.56,-0.515226512169124,-0.004083355704865
4.568,-0.525779052744296,0.0162475588862306
4.576,-0.535156397060006,0.0378788093916503
4.584,-0.543154070432752,0.0607469006250524
4.592,-0.549570360599187,0.0847492673393508
4.6,-0.554214289670562,0.109744670096975
4.608,-0.556913392484815,0.135555220388054
4.616,-0.557520977735766,0.161969962092729
4.624,-0.55592257018159,0.18874987613162
4.632,-0.552024646634785,0.215506786417222
4.64,-0.545870174932448,0.242076160666939
4.648,-0.537470542869161,0.268216689547054
4.656,-0.526868617006732,0.293669189651793
4.664,-0.514145479822456,0.318180473563463
4.672,-0.499419350057713,0.341509967001587
4.68,-0.482843239755258,0.363436141321611
4.688,-0.464579995809881,0.383774538367891
4.696,-0.444511755258542,0.402438340552168
4.704,-0.423205433444948,0.419032130542405
4.712,-0.400964494685171,0.433469318769518
4.72,-0.378135210873012,0.445727272990874
4.728,-0.355170457538638,0.455925983756818
4.736,-0.332074376961796,0.464123730396931
4.744,-0.309065062793534,0.470404984618145
4.752,-0.28632712334997,0.474877327629193
4.76,-0.264013982632721,0.477658025944653
4.768,-0.242277241125654,0.478903591885805
4.776,-0.221213129528407,0.478768205020514
4.784,-0.200885423976813,0.477404360702722
4.792,-0.181328703676274,0.474956194022465
4.8,-0.162552980803488,0.471554015692966
4.808,-0.144549326685418,0.467310335370512
4.816,-0.127301802212779,0.462323547664863
4.824,-0.110778769199124,0.456670895712335
4.832,-0.0949410094206354,0.45039580984456
4.84,-0.0797641111322802,0.443529780210443
4.848,-0.0652338744651963,0.436090541373145
4.856,-0.0513493465044568,0.428086920132065
4.864,-0.0381243508726558,0.419524183039243
4.872,-0.0255874643913658,0.410409473431563
4.88,-0.0137541505170458,0.400740441970072
4.888,-0.00269881641596265,0.390534337344646
4.896,0.00749627117564642,0.379843086904195
4.904,0.0167667639163243,0.368731511716244
4.912,0.0250542809249168,0.357283474573735
4.92,0.0323119788217942,0.345600537481045
4.928,0.0385096203751052,0.333799143130938
4.936,0.0436377792423461,0.322006501006523
4.944,0.0475854831166529,0.310355959672235
4.952,0.0504969190648145,0.299044388721231
4.96,0.0524902340692779,0.288199188575478
4.968,0.0536770515821313,0.277921341183936
4.976,0.0551131910770099,0.268347974884185
4.984,0.0561258331314268,0.259040094531137
4.992,0.0566131580680704,0.249984426422202
5,0.056559652560469,0.241212044089042
5.008,0.0536135217667503,0.233499251968827
5.016,0.050629073327934,0.22732348922505
5.024,0.0490828056882085,0.222155514252649
5.032,0.0479271021744962,0.217556716892069
5.04,0.0472086559110261,0.213092434715405
5.048,0.046829289372499,0.208878710125949
5.056,0.0467786007845267,0.204783356125111
5.064,0.0469826371304426,0.200669463633284
5.072,0.047243824502167,0.19643084086485
5.08,0.0476270667481742,0.192113447730519
5.088,0.0480680584741174,0.187671966763918
5.096,0.048450122506335,0.183170720409765
5.104,0.0487303382071279,0.178780124694604
5.112,0.0490263042354455,0.174253876989984
5.12,0.0492738346053217,0.169558871632146
5.128,0.0494158350146583,0.164474074078625
5.136,0.0492107698934456,0.158872210155786
5.144,0.0484862416960172,0.15318944866496
5.152,0.0472054565172585,0.147550627317388
5.16,0.0453654387917329,0.142086364898781
5.168,0.0429971723479994,0.136924371669121
5.176,0.0401636026247914,0.132181049103535
5.184,0.0369556466843129,0.127953889161681
5.192,0.0335642302782546,0.124262774690376
5.2,0.0300591428645709,0.121115849683561
5.208,0.0264886771610341,0.118568848858637
5.216,0.0229759725145982,0.116623258070862
5.224,0.0196429748782725,0.115250811711995
5.232,0.0166030756499956,0.114394361524611
5.24,0.0139541273335274,0.113970549806592
5.248,0.0117722731937138,0.113874152906395
5.256,0.0102223115820097,0.113990076110422
5.264,0.00924175182002034,0.114119723818678
5.272,0.00875564783365137,0.114124730213689
5.28,0.00869719233972261,0.11389185642096
5.288,0.00897509502015979,0.113328325665736
5.296,0.00947935119931081,0.112367034873433
5.304,0.0100880777189594,0.110970198092466
5.312,0.0106750021874351,0.109131216504143
5.32,0.0111171561058299,0.106874676148821
5.328,0.0113023134823996,0.104254485941256
5.336,0.0111357346059132,0.101350278372114
5.344,0.0105458185348894,0.0982622972716501
5.352,0.00948833473623586,0.0951050850612523
5.36,0.00794899017098768,0.092000351079351
5.368,0.0059441877567051,0.0890694489229525
5.376,0.00350408922910722,0.0864362923216272
5.384,0.000633189437609252,0.0842921050667476
5.392,-0.00243003411793291,0.0826518197079201
5.4,-0.00556294916082699,0.0815449659502066
5.408,-0.00864073487544726,0.0809697935033491
5.416,-0.0115441052253886,0.080894079817757
5.424,-0.0141665113602867,0.0812577768862006
5.432,-0.0164204003817272,0.0819772956294773
5.44,-0.0180760303975098,0.082893070562422
5.448,-0.0189878341560055,0.0836790598045285
5.456,-0.0196103447413613,0.0843193736069663
5.464,-0.0200095149364939,0.0847757054360285
5.472,-0.0202523179993008,0.0850284316369892
5.48,-0.0204022602436486,0.0850748474987097
5.488,-0.020515782337968,0.0849264765685822
5.496,-0.020639702524229,0.0846057658028468
5.504,-0.0216596080141126,0.0850010573773235
5.512,-0.023392883706038,0.0866906317709444
5.52,-0.0224280208314573,0.0881997844322516
5.528,-0.019107770732637,0.0878458275861408
5.536,-0.0171572591117723,0.0857470659094701
5.544,-0.0167343383908447,0.0830314125580864
5.552,-0.0170759374572737,0.0801830113322218
5.56,-0.0181664993718583,0.0774327963904117
5.568,-0.0195665612239593,0.0752494500783352
5.576,-0.0212212962083623,0.0734186508571947
5.584,-0.0232045701995657,0.071874317526581
5.592,-0.0254393953366451,0.0706902024410523
5.6,-0.0278334397431587,0.0699189603721932
5.608,-0.0302846087951347,0.0695891707788634
5.616,-0.0326871520000777,0.0697037928746396
5.624,-0.0349379370865443,0.0702401310217834
5.632,-0.0366539003043273,0.0714298763751327
5.64,-0.0378964275423977,0.0727960375034603
5.648,-0.038705573565257,0.074177376638957
5.656,-0.0391159744498226,0.0754728056043806
5.664,-0.0391083424678133,0.0761225053918358
