"Freq [GHz]","re(S(Antenna1_1_1,Antenna1_1_1)) []","im(S(Antenna1_1_1,Antenna1_1_1)) []"
2,-0.00944309260696894,-0.509979924273248
2.008,-0.0310484866202978,-0.508762508712896
2.016,-0.0521978510380979,-0.506658797077918
2.024,-0.0728800042223822,-0.503707248946286
2.032,-0.0930825527434682,-0.499941617216478
2.04,-0.11279104048928,-0.495392508323436
2.048,-0.131988684455058,-0.49008898587436
2.056,-0.150656653841575,-0.484060015192369
2.064,-0.168774778481156,-0.477335578989964
2.072,-0.186322520105259,-0.469947351476203
2.08,-0.203280013545174,-0.461928890663649
2.088,-0.219628988447535,-0.453315385170001
2.096,-0.23535341465987,-0.444143060501987
2.104,-0.250439770702022,-0.434448400071787
2.112,-0.264876905632297,-0.424267360350867
2.12,-0.278655538855366,-0.413634754055254
2.128,-0.291767691246976,-0.40258435170623
2.136,-0.30420622301691,-0.391148217942586
2.144,-0.315962590379365,-0.379356249171284
2.152,-0.327026998826232,-0.367239041288166
2.16,-0.337388317583204,-0.354828395296613
2.168,-0.347034529208087,-0.342158486902523
2.176,-0.355953664676188,-0.329266832751317
2.184,-0.364135120447058,-0.316194867767944
2.192,-0.371571187348559,-0.302988000510669
2.2,-0.378258579635763,-0.289695088095982
2.208,-0.384199742929914,-0.276367357687668
2.216,-0.389403743671113,-0.263056884713141
2.224,-0.393886596829782,-0.249814806163891
2.232,-0.397670964932755,-0.236689490137523
2.24,-0.40078524862721,-0.223724893649534
2.248,-0.40326217408402,-0.210959317950195
2.256,-0.405137195359917,-0.198430990584807
2.264,-0.406450635174804,-0.186160649397807
2.272,-0.407237529136234,-0.174163765534198
2.28,-0.407529086845504,-0.16245349546265
2.288,-0.407352645262752,-0.151040505056887
2.296,-0.406731766410482,-0.139934812666584
2.304,-0.4056869987435,-0.129147405500039
2.312,-0.404237162185607,-0.118691410296339
2.32,-0.402400950397306,-0.108582669576903
2.328,-0.400198609332909,-0.0988396627086616
2.336,-0.397653451999174,-0.0894828030408877
2.344,-0.394793003536207,-0.080533225019181
2.352,-0.391649631465983,-0.0720112370535536
2.36,-0.388260592749387,-0.0639346493697517
2.368,-0.384667509957748,-0.056317188185479
2.376,-0.380915361352048,-0.0491671803016275
2.384,-0.377051124005401,-0.0424866419173446
2.392,-0.37312223881282,-0.0362708415702692
2.4,-0.369175069149666,-0.030508340391487
2.408,-0.365253503291164,-0.0251814537688952
2.416,-0.3613978104765,-0.0202670353470146
2.424,-0.357643810206862,-0.01573746208944
2.432,-0.35402236345088,-0.0115616989375741
2.44,-0.350559151599036,-0.00770634062107311
2.448,-0.347274680769549,-0.00413656044587591
2.456,-0.344184438680753,-0.00081693355429239
2.464,-0.341299138392572,0.00228786301051627
2.472,-0.338625004012633,0.00521244614458712
2.48,-0.336164081628109,0.00799018065348068
2.488,-0.333914586721068,0.0106526589013106
2.496,-0.331871319848722,0.0132291926873222
2.504,-0.330027071637342,0.0157501620181862
2.512,-0.32836843043716,0.0182392798552603
2.52,-0.326881690064935,0.0207113689008905
2.528,-0.325555084404681,0.023181159895588
2.536,-0.324377960927654,0.0256602653144654
2.544,-0.323341651728785,0.0281579572053301
2.552,-0.322440073676722,0.0306822483695551
2.56,-0.321669936706892,0.0332411815528632
2.568,-0.321030477581203,0.0358441812329474
2.576,-0.320522695073038,0.0385032897329809
2.584,-0.320148133378192,0.0412341016246697
2.592,-0.319907332625247,0.0440562317547467
2.6,-0.319798126618284,0.0469932019676198
2.608,-0.319814007301047,0.0500717040849747
2.616,-0.319942784699623,0.0533202820503978
2.624,-0.320165746533071,0.0567675617314816
2.632,-0.320460572517502,0.0604415351696688
2.64,-0.320791510463214,0.0643655220633357
2.648,-0.321120760683551,0.0685554860916872
2.656,-0.321408289734707,0.0730202334626683
2.664,-0.321613456227939,0.0777610047974638
2.672,-0.32169710861503,0.0827718583627366
2.68,-0.321623382108296,0.0880407406013554
2.688,-0.321360963791116,0.0935510838018856
2.696,-0.32088367065679,0.0992836948369761
2.704,-0.320170284771234,0.105218656734378
2.712,-0.319203698517925,0.111336963247219
2.72,-0.317969524820307,0.117621646367008
2.728,-0.316454407030063,0.124058232438905
2.736,-0.314644308653912,0.130634463258991
2.744,-0.312523067115328,0.137339329435178
2.752,-0.310071727936706,0.144161993311485
2.76,-0.307267464688874,0.151090802397372
2.768,-0.304082978484043,0.158107128053017
2.776,-0.300490846269581,0.165187155617119
2.784,-0.29646440517927,0.172300426885952
2.792,-0.291979875942062,0.17940980986947
2.8,-0.287018386196972,0.186472238729281
2.808,-0.281567612702052,0.193440127064389
2.816,-0.275622820477744,0.200263259024286
2.824,-0.269187168675358,0.206890894231894
2.832,-0.262271263393276,0.213273794162618
2.84,-0.25489205010318,0.219365893344156
2.848,-0.247071235994119,0.225125395750627
2.856,-0.238833500969452,0.230515166221124
2.864,-0.230204785335374,0.235502395015234
2.872,-0.221210928428063,0.240057624499869
2.88,-0.21187687799226,0.244153324018854
2.888,-0.202226603523508,0.247762268079423
2.896,-0.192283741069961,0.250856004294815
2.904,-0.182072887865923,0.253403686957684
2.912,-0.171621368534367,0.255371501836269
2.92,-0.160961224228011,0.25672282571763
2.928,-0.150131141611393,0.25741916277675
2.936,-0.139178044174833,0.257421794007603
2.944,-0.128158112221978,0.256693980918636
2.952,-0.117137072646697,0.255203493695105
2.96,-0.106189693701086,0.252925196364132
2.968,-0.0953985192912891,0.249843421285426
2.976,-0.0848519676207416,0.245953901024503
2.984,-0.0746419878096542,0.241265090616109
2.992,-0.0648615067225599,0.23579879667058
3,-0.0556019027647194,0.22959011870681
3.008,-0.0469528928543395,0.222673225077654
3.016,-0.0390009143010333,0.215123469647415
3.024,-0.0318189909678591,0.207012640588858
3.032,-0.0254713784804765,0.198420425152659
3.04,-0.0200133530774938,0.18943292633792
3.048,-0.0154912890520507,0.180141499651787
3.056,-0.0119428492288913,0.170641943008621
3.064,-0.00939712783718321,0.161034002680586
3.072,-0.00787462419133855,0.151421103532416
3.08,-0.00738697965673777,0.141910179727545
3.088,-0.00793646865777138,0.132611475385438
3.096,-0.00951528650334526,0.123638201440455
3.104,-0.0121047141476395,0.115105969383514
3.112,-0.0156742576745214,0.107131966244251
3.12,-0.0201808573739494,0.0998338786753491
3.128,-0.0255634631104895,0.0933275128315601
3.136,-0.0317505954843288,0.087722614273733
3.144,-0.0386687876387444,0.0831309901518911
3.152,-0.0462219019752495,0.079660080416244
3.16,-0.0542991817672124,0.0774110588158214
3.168,-0.0627752055524837,0.0764770602183548
3.176,-0.0715099747088113,0.0769412845276815
3.184,-0.0803491700979552,0.0788749424369444
3.192,-0.0891246432348158,0.0823350204490144
3.2,-0.0976552305618528,0.0873618696133152
3.208,-0.10574798979601,0.093976660338164
3.216,-0.11319995090161,0.102178788169943
3.224,-0.1198004499938,0.111943355077692
3.232,-0.125334074620963,0.12321888020025
3.24,-0.129584198520848,0.135925407383253
3.248,-0.132337030244531,0.149953170914472
3.256,-0.13338138497588,0.165169353438906
3.264,-0.132522344246833,0.181394840793316
3.272,-0.129584827755186,0.198425955855865
3.28,-0.124414118878677,0.216035140096456
3.288,-0.116880776142556,0.233970556579241
3.296,-0.106884272108072,0.251959131601174
3.304,-0.0943562134632956,0.26971010000557
3.312,-0.0792630963506075,0.286918986480595
3.32,-0.0616085625521805,0.303271963911645
3.328,-0.041435125195427,0.318450539780882
3.336,-0.0188253277816336,0.332136528330224
3.344,0.00609770987105998,0.344017266065628
3.352,0.0331704167965267,0.353791018950595
3.36,0.0621896335275783,0.361172510996962
3.368,0.0929142791331793,0.365898477691766
3.376,0.125066725162883,0.367733199584663
3.384,0.158331772153077,0.366476466519522
3.392,0.192382633170822,0.3619639127049
3.4,0.226862368378598,0.354070973707439
3.408,0.261397371924808,0.342717299106666
3.416,0.295603571187077,0.327869059455275
3.424,0.329092981160029,0.309540263279019
3.432,0.361480431290195,0.287793021681288
3.44,0.392390269839664,0.262736737686307
3.448,0.421462848664424,0.234526239468881
3.456,0.448360599541383,0.203358918178044
3.464,0.472773531356965,0.16947096929246
3.472,0.494424004235568,0.133132868715355
3.48,0.513070669954355,0.0946442390936586
3.488,0.528511505191042,0.0543282768148482
3.496,0.540585902490202,0.0125259153510713
3.504,0.549173664219127,-0.0304137023845271
3.512,0.554197033564519,-0.0741297808916648
3.52,0.55562540998604,-0.118258077908428
3.528,0.553468233863895,-0.162443975643328
3.536,0.547773896748644,-0.206343414420165
3.544,0.538626920670392,-0.249627311349836
3.552,0.526144689505531,-0.291985365055036
3.56,0.510473855003886,-0.333129230083504
3.568,0.491786526950525,-0.372795066511602
3.576,0.470276341160929,-0.410745484932316
3.584,0.446154483398753,-0.446770914941767
3.592,0.419645734162316,-0.480690427741894
3.6,0.390984590065804,-0.512352042631213
3.608,0.360411512696015,-0.54163254530184
3.616,0.328169354772851,-0.568436845190629
3.624,0.294500014783021,-0.592696901317725
3.632,0.259646646785808,-0.614372516659135
3.64,0.223834266405334,-0.633445696008127
3.648,0.187283096912619,-0.649918470130897
3.656,0.150203476121265,-0.663811975966556
3.664,0.11279367496099,-0.675163966348377
3.672,0.0752389440017034,-0.684026419930006
3.68,0.0377109555846918,-0.690463198363207
3.688,0.000367605388216528,-0.694547816103612
3.696,-0.0366468754363425,-0.696361376410144
3.704,-0.0732015552006834,-0.695990712115351
3.712,-0.109178245270463,-0.693526753068218
3.72,-0.144470812694152,-0.689063125525749
3.728,-0.178984416271922,-0.682694973935858
3.736,-0.212634710672491,-0.674517983986769
3.744,-0.245347051037586,-0.664627578518206
3.752,-0.277055321573046,-0.653117581709249
3.76,-0.307700430445198,-0.640080244191773
3.768,-0.337233316712277,-0.625609324517488
3.776,-0.365611134484179,-0.609793877949793
3.784,-0.392797175430492,-0.592720142677768
3.792,-0.418760116695437,-0.574471265084589
3.8,-0.443473261336221,-0.555127116725898
3.808,-0.466913780184692,-0.534764212895822
3.816,-0.489061970712471,-0.5134557401555
3.824,-0.509900553471736,-0.491271694752216
3.832,-0.529414028926487,-0.468279126451227
3.84,-0.547588116410739,-0.444542474254119
3.848,-0.564409292550992,-0.420123973213385
3.856,-0.579864439347612,-0.395084106375769
3.864,-0.593940603259784,-0.369482073753889
3.872,-0.6066248574184,-0.343376251622417
3.88,-0.617908125178686,-0.316825413774816
3.888,-0.627776306188352,-0.289884592813192
3.896,-0.636213126533019,-0.262610858320907
3.904,-0.64320446176872,-0.235063377147109
3.912,-0.648736497295537,-0.207302658467914
3.92,-0.652795961345826,-0.179390742111652
3.928,-0.655370320151442,-0.151391334790344
3.936,-0.656447921197832,-0.123369927867332
3.944,-0.656018085166338,-0.0953939342725502
3.952,-0.65407116278145,-0.0675328805399963
3.96,-0.650598587215837,-0.0398586826292537
3.968,-0.645592964012842,-0.0124460219243571
3.976,-0.639048247073965,0.0146271780509186
3.984,-0.630960050165787,0.0412791912656953
3.992,-0.621326138385533,0.0674238795307682
4,-0.610147133568375,0.0929700829934875
4.008,-0.597427016760996,0.11781816125418
4.016,-0.583176985730378,0.141868085740817
4.024,-0.567412900035199,0.165011401093309
4.032,-0.550158403036031,0.187133533956322
4.04,-0.531446594502632,0.208114094818266
4.048,-0.511321789523144,0.227827519955297
4.056,-0.489841300114186,0.246144090147756
4.064,-0.467078826287046,0.262932202425824
4.072,-0.443126545092288,0.278063824832161
4.08,-0.418081151566174,0.291404011470933
4.088,-0.392066522324314,0.302823171601455
4.096,-0.365226525264375,0.312198540815028
4.104,-0.337725172191508,0.31941767589219
4.112,-0.309746122077804,0.324382151474952
4.12,-0.281491464687693,0.327011338248983
4.128,-0.253178112545567,0.327243943305662
4.136,-0.225039214333564,0.325042937327752
4.144,-0.197321370550862,0.320406129183723
4.152,-0.170273242285101,0.313359476412485
4.16,-0.144143893611361,0.303961488958941
4.168,-0.119177292620223,0.292303817555113
4.176,-0.0956066263010273,0.278510700122521
4.184,-0.0736487091636832,0.262737212944549
4.192,-0.0535033949767638,0.245163899742662
4.2,-0.0353401327166335,0.226001899615716
4.208,-0.0192934497116043,0.205480521901417
4.216,-0.00546855802949838,0.183839168634603
4.224,0.00606262081881055,0.161324345087558
4.232,0.0152612485047828,0.138183939217871
4.24,0.0221202186084837,0.114661857199277
4.248,0.0266618211038296,0.0909932641525759
4.256,0.0289477105320512,0.067403769542356
4.264,0.0290410921682718,0.0440893701272933
4.272,0.027023952828907,0.0212368940912809
4.28,0.0229973986732392,-0.000982162650268011
4.288,0.0170745461344805,-0.0224144317600333
4.296,0.0093775746924752,-0.0429247646847075
4.304,3.50582531398485E-05,-0.0623959390829369
4.312,-0.0108204156164734,-0.0807280748474416
4.32,-0.0230542289590953,-0.0978105044940775
4.328,-0.0365160142560594,-0.113604444612798
4.336,-0.0510754509772051,-0.128065263258164
4.344,-0.0666081416963872,-0.141157789241532
4.352,-0.0829951324044303,-0.1528559974367
4.36,-0.1001225064829,-0.163141390622454
4.368,-0.117880762855636,-0.172001918946422
4.376,-0.136167719761376,-0.17943084265282
4.384,-0.154898563326398,-0.185416757217894
4.392,-0.173944021658578,-0.189966059845406
4.4,-0.193206294970695,-0.193094753334019
4.408,-0.212593972563117,-0.194824575301969
4.416,-0.232022444924681,-0.195181754048029
4.424,-0.251414050586442,-0.194195657121951
4.432,-0.270697920588837,-0.191897412358539
4.44,-0.289807809315651,-0.188320207456006
4.448,-0.308684641120541,-0.183498098103924
4.456,-0.327279078384931,-0.177456486490979
4.464,-0.345540261511234,-0.170221042415299
4.472,-0.363419199969017,-0.161814721794619
4.48,-0.380867510825455,-0.152257710848991
4.488,-0.397836183345871,-0.141567646864163
4.496,-0.414274423804131,-0.129760099090446
4.504,-0.430130800711069,-0.116848937178905
4.512,-0.445347594523915,-0.102846423767075
4.52,-0.459860258364543,-0.0877670307574235
4.528,-0.473601674777775,-0.0716274783257248
4.536,-0.48649976328194,-0.0544478636574626
4.544,-0.49847751276798,-0.0362530135227773
4.552,-0.509453237057844,-0.0170738619376963
4.56,-0.519341054406224,0.003051165333155
4.568,-0.528051597991796,0.0240747745137306
4.576,-0.535492972822106,0.0459394526841502
4.584,-0.541571982547852,0.0685761664490524
4.592,-0.546195654628067,0.0919031487933508
4.6,-0.549273091289009,0.115824830952975
4.608,-0.550717664422255,0.140230996907854
4.616,-0.550449553564066,0.164996257848229
4.624,-0.54839859727499,0.18997995864792
4.632,-0.544500056487485,0.215019936367622
4.64,-0.538723269986348,0.239949306282349
4.648,-0.531048470428361,0.264589959476994
4.656,-0.521475883547832,0.288754210919088
4.664,-0.510029597841156,0.312248495851323
4.672,-0.496759676929513,0.334877178863787
4.68,-0.481743537946158,0.356447042576211
4.688,-0.465085316977781,0.376773939648491
4.696,-0.446895882162312,0.395702182496168
4.704,-0.427345737019938,0.413043695057605
4.712,-0.406619818489171,0.428663062371818
4.72,-0.384925586394512,0.442453596036874
4.728,-0.362496479467838,0.454349392481518
4.736,-0.339524082210996,0.464313218357821
4.744,-0.316223575940934,0.472332216477175
4.752,-0.29280469038887,0.478422982411143
4.76,-0.269467270044321,0.482628863893453
4.768,-0.246400262318954,0.485019220219605
4.776,-0.223773539617707,0.485684241903314
4.784,-0.201737540633723,0.484731101179022
4.792,-0.180421954505424,0.482279863078265
4.8,-0.159935266003158,0.478459527508766
4.808,-0.140365030698718,0.473404371540612
4.816,-0.121778858370079,0.467250740258763
4.824,-0.104225416753924,0.460134216853055
4.832,-0.0877359659539354,0.45218726525259
4.84,-0.0723263578859802,0.4435375278902
4.848,-0.0579985609059963,0.434306305730305
4.856,-0.0447424076083568,0.424607400314565
4.864,-0.0325373432439558,0.414546246028743
4.872,-0.0213541592589658,0.404219309007363
4.88,-0.0111565769876958,0.393713719899772
4.888,-0.00190308018220765,0.383107356050146
4.896,0.00645164128077642,0.372468609767695
4.904,0.0139551511209643,0.361856866134844
4.912,0.0206558920419168,0.351323253910535
4.92,0.0266021703811942,0.340911534400845
4.928,0.0318414619156052,0.330659084664708
4.936,0.0364200436904461,0.320597870004183
4.944,0.0403821391399529,0.310753689378775
4.952,0.0437705152479145,0.301151523401931
4.96,0.0466282506361779,0.291813019450078
4.968,0.0489985636783313,0.282756072824536
4.976,0.0509375632356199,0.274003822872285
4.984,0.0524830592286468,0.265545953505637
4.992,0.0536690882468404,0.257383869124202
5,0.054529077827559,0.249519409696242
5.008,0.0550784495436503,0.241963760496027
5.016,0.055366244466234,0.23470755460855
5.024,0.0554491829901085,0.227752797151099
5.032,0.0553442121646962,0.221075326917439
5.04,0.0550749051456261,0.214650081562305
5.048,0.054650663661999,0.208466573032449
5.056,0.0540822949278267,0.202512124763311
5.064,0.0533764603557826,0.196776523383684
5.072,0.052535094557097,0.19125463266775
5.08,0.0515720572894141,0.185946867095819
5.088,0.0504973097573174,0.180850646180318
5.096,0.049322316481235,0.175967084433175
5.104,0.0480634079282279,0.171296892888674
5.112,0.0467322520504455,0.166825362412474
5.12,0.0453392109832217,0.162546418556356
5.128,0.0438909814137583,0.158449914696655
5.136,0.0423920997185456,0.154529651949786
5.144,0.0408559971416072,0.15078568670599
5.152,0.0392911273197185,0.147210351005408
5.16,0.0377045045573929,0.143795677854531
5.168,0.0361017349699694,0.140533865004421
5.176,0.0344872397343694,0.137417672175235
5.184,0.0328646199019929,0.134440678163481
5.192,0.0312365068955646,0.131596891844056
5.2,0.0296064884441909,0.128882605148271
5.208,0.0279792682463541,0.126293674545437
5.216,0.0263592193904982,0.123825041922462
5.224,0.0247505809862725,0.121471226770055
5.232,0.0231572188249956,0.119226261722362
5.24,0.0215823740986274,0.117083741474622
5.248,0.0200284480461138,0.115036979502335
5.256,0.0184960506037597,0.113078505978522
5.264,0.0169857394397303,0.111203241519078
5.272,0.0154978121161614,0.109405692274589
5.28,0.0140316162605186,0.10768042788486
5.288,0.0125857950115598,0.106022639477636
5.296,0.0111584414863308,0.104428326911633
5.304,0.00974731883295939,0.102894436489366
5.312,0.00835012693693505,0.101418926516103
5.32,0.00696478940582986,0.100000745706081
5.328,0.0055897300948996,0.0986397193813051
5.336,0.00422410783191319,0.097336349432734
5.344,0.00286798132528942,0.0960915447292501
5.352,0.00152238318153586,0.0949063076773823
5.36,0.000189291713647678,0.093781408769351
5.368,-0.0011284993857749,0.0927170833723525
5.376,-0.00242780045989278,0.0917130966245272
5.384,-0.00370527315612075,0.0907702929187476
5.392,-0.00495497597173291,0.08988383271112
5.4,-0.00617350431792699,0.0890494466331166
5.408,-0.00735843373784725,0.0882620306661391
5.416,-0.00850854110168856,0.087516006803936
5.424,-0.00962388891208665,0.0868057288595106
5.432,-0.0107057693854272,0.0861258828261373
5.44,-0.0117554126512098,0.085469072298622
5.448,-0.0127780967509355,0.0848276748067285
5.456,-0.0137815189124513,0.0842066674860663
5.464,-0.0147684056256679,0.0836066468236285
5.472,-0.0157405651917308,0.0830286438966892
5.48,-0.0166989447676686,0.0824737780383797
5.488,-0.017643786585168,0.0819429988024722
5.496,-0.018574830961519,0.0814369330360968
5.504,-0.0194823073106526,0.0809763107892435
5.512,-0.020348536365738,0.0805571036249344
5.52,-0.0211899597839573,0.0801051671950616
5.528,-0.022047794815437,0.0796293434550108
5.536,-0.0229218691389723,0.0791992601892701
5.544,-0.0237897180346647,0.0788159216123864
5.552,-0.0246426037531737,0.0784656114132218
5.56,-0.0254764795910353,0.0781464899919117
5.568,-0.0262848678862793,0.0778512971242352
5.576,-0.0270706176201023,0.0775779598027947
5.584,-0.0278346472473257,0.077325987789121
5.592,-0.0285762830636451,0.0770930841536123
5.6,-0.0292953012365587,0.0768769366796032
5.608,-0.0299918621422347,0.0766753173565448
5.616,-0.0306664336985777,0.0764861377470496
5.624,-0.0313197243990543,0.0763074662224334
5.632,-0.0319459276461973,0.0761329653477127
5.64,-0.0325549990214077,0.0759618751376803
5.648,-0.033150362667637,0.075794532284697
5.656,-0.0337340085239006,0.0756313520462206
5.664,-0.0343195351318473,0.0754720622402758
