"Freq [GHz]","re(S(Antenna1_1_1,Antenna1_1_1)) []","im(S(Antenna1_1_1,Antenna1_1_1)) []"
5,-0.0146645825500792,0.151211595584258
5.003,-0.0129140946346739,0.150265888117157
5.006,-0.0112078746903288,0.149265814358768
5.009,-0.00954898682672542,0.148214459796093
5.012,-0.00794025455984916,0.147115110351727
5.015,-0.00638424772683724,0.145971233359824
5.018,-0.0048832709079713,0.14478645772296
5.021,-0.00343935338581833,0.143564553370893
5.024,-0.0020542407075128,0.142309410142218
5.027,-0.000729387847187048,0.141025016210927
5.03,0.000534045990455659,0.13971543617986
5.033,0.00173520092442543,0.13838478896706
5.036,0.00287351830658554,0.137037225596522
5.039,0.00394874100364791,0.135676907034024
5.042,0.0049609120480283,0.134307982167976
5.045,0.00591037171555561,0.132934566062663
5.048,0.00679775303004105,0.1315607185908
5.051,0.0076239757617028,0.130190423565666
5.054,0.00839023896544731,0.12882756845908
5.057,0.00909801209801069,0.127475924826233
5.06,0.0097490248049525,0.126139129518138
5.063,0.010345255425511,0.124820666777968
5.066,0.0108889183003108,0.123523851299296
5.069,0.0113824499599285,0.122251812329234
5.072,0.0118284942803148,0.121007478885472
5.075,0.012229886696069,0.119793566138212
5.078,0.0125896375535718,0.118612563036008
5.081,0.01291091471897,0.117466721207497
5.084,0.0131970255190141,0.116358045179032
5.087,0.0134513981227525,0.115288283954218
5.09,0.0136775624710734,0.11425892397834
5.093,0.0138791308411008,0.113271183497696
5.096,0.0140579758354411,0.112339296154823
5.099,0.0142211835231783,0.111455254013628
5.102,0.0143734106993192,0.110614812364413
5.105,0.0145183855806859,0.109817832994806
5.108,0.0146597966480545,0.109063905341584
5.111,0.0148012735571414,0.1083523511824
5.114,0.0149463685240331,0.107682230637407
5.117,0.015098538275859,0.107052349413788
5.12,0.0152611266457087,0.106461267246179
5.123,0.0154373478854879,0.105907307488994
5.126,0.0156302707626162,0.105388567786659
5.129,0.0158428035175628,0.104902931764732
5.132,0.0160776797392184,0.104448081676942
5.135,0.0163374452071058,0.104021511933115
5.138,0.016624445758421,0.103620543434013
5.141,0.016940816221911,0.10324233864007
5.144,0.0172884704645816,0.102883917301034
5.147,0.0176690925692335,0.102542172755514
5.15,0.0180841291878315,0.102213888728428
5.153,0.018534783093695,0.101895756543363
5.156,0.0190220079285188,0.101584392663833
5.159,0.0195465041872145,0.101276356493449
5.162,0.0201087164265748,0.100968168330401
5.165,0.02070883170076,0.100656327420937
5.168,0.0213467792336003,0.100337330009862
5.171,0.0220222313017182,0.100007687320842
5.174,0.0227346053304641,0.0996639433821237
5.177,0.023483067176667,0.0993026926222615
5.18,0.024266535572197,0.0989205971616638
5.183,0.0250836877173376,0.0985144037279493
5.186,0.0259329659729666,0.0980809601153238
5.189,0.0268225949555449,0.097609489431871
5.192,0.0277488867979094,0.0970950944317636
5.195,0.0286988420128687,0.0965422967043947
5.198,0.0296698106006021,0.0959487615824285
5.201,0.0306589805098565,0.0953123492467792
5.204,0.0316633917229434,0.0946311251095072
5.207,0.0326799509585303,0.0939033692176483
5.21,0.0337054469392279,0.093127584639966
5.213,0.0347365661609704,0.0923025048056355
5.216,0.0357699090851858,0.0914270997648587
5.219,0.0368020066897564,0.0905005813524122
5.222,0.0378293373067678,0.0895224072361291
5.225,0.0388483436848421,0.0884922838293203
5.228,0.0398554501795579,0.0874101680671309
5.231,0.040847080031451,0.0862762680258416
5.234,0.0418196726318972,0.0850910423991096
5.237,0.0427697007217754,0.0838551988261553
5.24,0.0436936874366068,0.082569691070899
5.243,0.0445882231366727,0.0812357150790416
5.246,0.0454499819476055,0.0798547039111036
5.249,0.0462757379381537,0.0784283215884111
5.252,0.0470623808597198,0.0769584558550448
5.255,0.0478069313996663,0.0754472098977429
5.258,0.0485065558543939,0.0738968930587677
5.261,0.0491585801791841,0.0723100105587357
5.264,0.0497605033318112,0.0706892522874133
5.267,0.0503100098739172,0.0690374806994818
5.27,0.0508049817381513,0.0673577178612749
5.273,0.0512435091370716,0.0656531317044892
5.276,0.0516239005408092,0.0639270215358717
5.279,0.0519446916754905,0.0621828028688887
5.282,0.0522046535024207,0.0604239916333749
5.285,0.052402799131024,0.0586541878341707
5.288,0.0525383896215408,0.0568770587223452
5.291,0.0526109386524818,0.0550963215544316
5.294,0.0526202160088361,0.0533157260118381
5.297,0.0525662498770343,0.0515390363581528
5.3,0.0524493279176645,0.0497700134145533
5.303,0.0522699970969412,0.0480123964309147
5.306,0.0520290622759252,0.0462698849413076
5.309,0.0517275835384958,0.0445461206797252
5.312,0.0513668722670731,0.04284466965272
5.315,0.0509484859640897,0.0411690044420603
5.318,0.050474221836212,0.0395224868304047
5.321,0.0499461091553108,0.0379083508459959
5.324,0.0493664004131807,0.0363296862863848
5.327,0.0487375613070062,0.034789422835179
5.33,0.0480622595905769,0.0332903148338262
5.333,0.0473433528212501,0.0318349268074324
5.336,0.0465838750616605,0.0304256198076174
5.339,0.0457870225811768,0.0290645386634149
5.342,0.0449561386181064,0.027753600211215
5.345,0.0440946972666465,0.0264944825657571
5.348,0.0432062865625826,0.0252886155131776
5.351,0.0422945908263338,0.0241371720791062
5.354,0.0413633723712168,0.0230410613288289
5.357,0.0404164526320361,0.0220009224595082
5.36,0.0394576928234726,0.021017120225471
5.363,0.0384909742148213,0.0200897417325661
5.366,0.0375201781109258,0.019218594652593
5.369,0.0365491656570437,0.0184032068628076
5.372,0.0355817575495307,0.0176428275525089
5.375,0.034621713771275,0.0169364297917038
5.378,0.0336909208578824,0.0163105991038648
5.381,0.0327785920486133,0.0157332662167728
5.384,0.0318879068800709,0.0152022093204537
5.387,0.0310218689566447,0.0147149813942149
5.39,0.0301832896347049,0.0142689232297753
5.393,0.0293747726265539,0.0138611776515075
5.396,0.0285986996421327,0.0134887048897784
5.399,0.027857217139485,0.0131482990114052
5.402,0.0271522242679779,0.0128366053382236
5.405,0.026485362086283,0.0125501387757719
5.408,0.0258580041161172,0.0122853029390962
5.411,0.0252712483087456,0.0120384100046805
5.414,0.0247259104622471,0.0118057011588994
5.417,0.0242225191545441,0.0115833675600071
5.42,0.0237613122241986,0.0113675716820535
5.423,0.0233422348359753,0.0111544689393419
5.426,0.0229649391491734,0.0109402294660237
5.429,0.0226287856117289,0.0107210599334365
5.432,0.02233284587609,0.0104932252821906
5.435,0.0220759073468646,0.0102530702476011
5.438,0.0218564793312439,0.00999704055487587
5.441,0.0216728007852058,0.00972170366245789
5.444,0.0215228496084925,0.00942376892852482
5.447,0.0214043534603756,0.00910010709365337
5.45,0.0213148020421987,0.00874776894664517
5.453,0.0212514607817087,0.00836400307652168
5.456,0.0212113858531727,0.00794627259869103
5.459,0.0211914404622852,0.00749227074028526
5.462,0.0211883123078659,0.00699993521267658
5.465,0.0211985321153518,0.00646746125517218
5.468,0.0212184931710839,0.00589331327988926
5.471,0.0212444717173956,0.00527623504381839
5.474,0.0212726481194965,0.00461525826307116
5.477,0.0212991286773628,0.00390970964231855
5.48,0.0213199679626322,0.00315921622842452
5.483,0.0213311915489059,0.00236370908327146
5.486,0.0213288190108614,0.00152342522678723
5.489,0.0213088870611769,0.00063890783216917
5.492,0.0212674726810725,-0.000288995331685771
5.495,0.0212007161184688,-0.00125913522054643
5.498,0.0211048436253655,-0.0022700665680056
5.501,0.0209761897740428,-0.00332005467842823
5.504,0.02081121925709,-0.0044070838976844
5.507,0.0206065480042624,-0.00552886773867068
5.51,0.0203589635151677,-0.00668286060761208
5.513,0.0200654442777887,-0.00786627106014626
5.516,0.0197231781498423,-0.00907607651718556
5.519,0.0193295796009774,-0.0103090393695537
5.522,0.0188823056978159,-0.0115617243714018
5.525,0.0183792707518408,-0.0128305172213902
5.528,0.0178186595201293,-0.0141116442416467
5.531,0.0171989388909401,-0.0154011930234893
5.534,0.0165188679781549,-0.0166951339349168
5.537,0.0157775065555752,-0.017989342356665
5.54,0.014974221785082,-0.0192796215253238
5.543,0.0141086931876558,-0.0205617258417183
5.546,0.0131809158352662,-0.0218313845159474
5.549,0.0121912017326298,-0.0230843254046799
5.552,0.0111401793748384,-0.0243162989089087
5.555,0.0100287914938663,-0.0255231017791593
5.558,0.00885829099695455,-0.0267006006989499
5.561,0.00763023511187674,-0.027844755504105
5.564,0.006332361480091,-0.0289432368208189
5.567,0.00496871256077887,-0.0299893410554675
5.57,0.00355678976177604,-0.0309871122771684
5.573,0.00209964991039841,-0.0319334212520875
5.576,0.000600568062164515,-0.0328253719464901
5.579,-0.000936980903581137,-0.0336603168535361
5.582,-0.0025093417671388,-0.0344358708578178
5.585,-0.00411269940602008,-0.0351499235626405
5.588,-0.00574310006060036,-0.0358006500030421
5.591,-0.0073964733158615,-0.0363865197015536
5.594,-0.00906865464921392,-0.0369063040156966
5.597,-0.0107554084194002,-0.0373590817442211
5.6,-0.0124524511677758,-0.0377442429660776
5.603,-0.0141554750788218,-0.038061491097126
5.606,-0.0158601714758694,-0.0383108431785808
5.609,-0.0175622542108886,-0.0384926283711889
5.612,-0.0192574828176432,-0.0386074847131427
5.615,-0.0209416852815054,-0.0386563541437251
5.618,-0.0226107803278652,-0.0386404758386878
5.621,-0.0242607990581585,-0.0385613779123603
5.624,-0.0258879058623394,-0.038420867535492
5.627,-0.0274884184534064,-0.0382210195448233
5.63,-0.0290588269329676,-0.0379641636113881
5.633,-0.0305958117888493,-0.0376528700585452
5.636,-0.032096260711742,-0.0372899344117412
5.639,-0.0335572841688798,-0.0368783607839995
5.642,-0.0349762296227514,-0.0364213442041412
5.645,-0.0363506943598402,-0.0359222519807328
5.648,-0.0376785368373864,-0.0353846042317628
5.651,-0.0389578865111733,-0.034812053686046
5.654,-0.0401871521033306,-0.0342083648813571
5.657,-0.0413650282541515,-0.0335773928802901
5.66,-0.0424905005739248,-0.0329230616248477
5.663,-0.0435628490287723,-0.0322493420589564
5.666,-0.0445816497054931,-0.0315602301383113
5.669,-0.0455467749254106,-0.0308597248566471
5.672,-0.0464583917332178,-0.0301518064047376
5.675,-0.0473169587858179,-0.0294404145876229
5.678,-0.0481232216691598,-0.028729427612365
5.681,-0.0488782066840605,-0.0280226413604308
5.684,-0.0495832131510151,-0.0273237492656043
5.687,-0.0502398042859906,-0.0266363228751271
5.69,-0.0508497967161989,-0.0259637932305674
5.693,-0.0514152486988481,-0.0253094331264181
5.696,-0.0519384471318647,-0.024676340358426
5.699,-0.0524218934225901,-0.0240674220326478
5.702,-0.0528682883104436,-0.0234853800102387
5.705,-0.0532805157435482,-0.0229326975539712
5.708,-0.0536616258813205,-0.0224116272414841
5.711,-0.0540148173520164,-0.0219241801882635
5.714,-0.0543434188432356,-0.0214721166303558
5.717,-0.0546508701413751,-0.0210569378988142
5.72,-0.0549407027210322,-0.0206798798208758
5.723,-0.0552165199953572,-0.0203419075578752
5.726,-0.055481977323344,-0.0200437118948911
5.729,-0.0557407618969658,-0.0197857069971273
5.732,-0.0559965725949449,-0.0195680296070309
5.735,-0.0562530999203567,-0.0193905397001459
5.738,-0.0565140061196672,-0.0192528225507035
5.741,-0.0567829055771958,-0.0191541922069512
5.744,-0.057063345593605,-0.0190936963322204
5.747,-0.0573587876256127,-0.0190701223687329
5.75,-0.0576725890937215,-0.019082004994148
5.753,-0.0580222559498675,-0.0191541973758509
5.756,-0.0584001738689783,-0.019256066454984
5.759,-0.0588090502464482,-0.0193850939332186
5.762,-0.0592513926805123,-0.0195385733052742
5.765,-0.0597294968305316,-0.0197136252371797
5.768,-0.0602454354451795,-0.0199072136752823
5.771,-0.0608010485885222,-0.0201161626000034
5.774,-0.0613979351050014,-0.0203371733343407
5.777,-0.0620374453483045,-0.0205668423271229
5.78,-0.0627206751891318,-0.02080167930201
5.783,-0.0634484613278424,-0.0210381256992505
5.786,-0.0642213779009914,-0.0212725733131867
5.789,-0.065039734410748,-0.0215013830351152
5.792,-0.0659035749381883,-0.0217209036138844
5.795,-0.0668126786654686,-0.0219274903450656
5.798,-0.0677665616688719,-0.0221175236067816
5.801,-0.0687644799677196,-0.0222874271521979
5.804,-0.0698054338051586,-0.0224336860868691
5.807,-0.0708881731338074,-0.0225528644354702
5.81,-0.072011204254267,-0.0226416222410698
5.813,-0.0731727975914898,-0.0226967321064686
5.816,-0.074370996538007,-0.0227150951233015
5.819,-0.0756036273390092,-0.022693756105909
5.822,-0.0768683099502767,-0.0226299180809775
5.825,-0.0781624698189595,-0.0225209559639489
5.828,-0.0794833505392051,-0.0223644293772014
5.831,-0.080828027298625,-0.0221580945490071
5.834,-0.0821934210706046,-0.0218999152492607
5.837,-0.0835763134814518,-0.0215880727249866
5.84,-0.0849733622753769,-0.0212209745916265
5.843,-0.0863811173203087,-0.020797262648103
5.846,-0.0877960370665378,-0.0203158195836687
5.849,-0.0892145054011902,-0.0197757745635359
5.852,-0.0906328488122202,-0.0191765076492952
5.855,-0.0920473537890609,-0.0185176530741184
5.858,-0.0934542843887114,-0.0177991013187508
5.861,-0.0948498998862902,-0.0170210000292963
5.864,-0.0962304724328038,-0.0161837537257942
5.867,-0.0975923046529786,-0.0152880223535894
5.87,-0.0989317470929175,-0.0143347186425029
5.873,-0.100245215454798,-0.0133250043167978
5.876,-0.101529207540673,-0.012260285149947
5.879,-0.102780319830069,-0.0111422049062058
5.882,-0.103995263620392,-0.00997263817798611
5.885,-0.105170880668122,-0.00875368215004138
5.888,-0.106304158243807,-0.00748764733945645
5.891,-0.107392243554843,-0.00617704732545436
5.894,-0.108432457465054,-0.00482458754001288
5.897,-0.109422307441048,-0.00343315313129621
5.9,-0.110359499678363,-0.00200579598391009
5.903,-0.111241950349393,-0.000545720924972514
5.906,-0.1120677959121,0.000943728820992295
5.909,-0.112835402443497,0.00245908685532997
5.912,-0.113543373938906,0.00399677946570936
5.915,-0.114190559548996,0.00555314203874525
5.918,-0.114776059705588,0.00712443596128431
5.921,-0.115299231104224,0.00870686594096023
5.924,-0.115759690526511,0.0102965976718086
5.927,-0.116157317457227,0.011889775762544
5.93,-0.116492255496181,0.0134825418574905
5.933,-0.116764912536845,0.0150710528621689
5.936,-0.116975959710739,0.0166514991979371
5.939,-0.117111099612565,0.0182160469268752
5.942,-0.117172425553107,0.0197578747668206
5.945,-0.117177265904878,0.0212765224725462
5.948,-0.117127725372507,0.0227686586750769
5.951,-0.117026132981894,0.0242311119031458
5.954,-0.116875030512087,0.0256608859937868
5.957,-0.116677159864927,0.0270551747090548
5.96,-0.116435449430415,0.0284113754588796
5.963,-0.116152999505829,0.0297271020850425
5.966,-0.115833066833581,0.0310001966232809
5.969,-0.115479048321805,0.0322287399895054
5.972,-0.115094464028681,0.0334110615371409
5.975,-0.114682939480497,0.0345457474185797
5.978,-0.114248187406436,0.035631647720742
5.981,-0.113793988976398,0.0366678823237495
5.984,-0.113324174624944,0.0376538454427002
5.987,-0.112842604559178,0.0385892088335448
5.99,-0.112353149033937,0.0394739236290611
5.993,-0.111859668497723,0.040308220787926
5.996,-0.111365993698544,0.0410926101548738
5.999,-0.11087590585008,0.0418278781159476
6.002,-0.11039311696237,0.042515083850832
6.005,-0.109921250417118,0.0431555542062713
6.008,-0.109463821913708,0.0437508771845602
6.011,-0.109024220850942,0.0443028940911137
6.014,-0.108605692266494,0.0448136903511081
6.017,-0.108211319414067,0.0452855850471855
6.02,-0.107844007075272,0.0457211192132271
6.023,-0.107506465688215,0.046123042938186
6.026,-0.10720119639679,0.0464943013309755
6.029,-0.106930477072686,0.0468380194134124
6.032,-0.1066963494161,0.0471574860102106
6.035,-0.106500607197157,0.0474561367070215
6.038,-0.106344785696035,0.0477375359555148
6.041,-0.106230152423799,0.0480053584195004
6.044,-0.106157699173936,0.0482633696358882
6.047,-0.106128135429597,0.0485154060964735
6.05,-0.106141883222542,0.048765354845656
6.053,-0.106199073414782,0.0490171326911831
6.056,-0.106299543515933,0.04927466513441
6.059,-0.106442836955267,0.0495418651247804
6.062,-0.10662820392646,0.0498226117530207
6.065,-0.106854603731052,0.0501207289749409
6.068,-0.107120708668595,0.0504399645017437
6.071,-0.107424909448509,0.0507839689413355
6.074,-0.107765322099638,0.0511562753196356
6.077,-0.108139796365505,0.0515602790738778
6.08,-0.108545925546264,0.0519992186459066
6.083,-0.108981057748355,0.0524761567574582
6.086,-0.10944230849386,0.0529939624854231
6.089,-0.109926574629554,0.0535552942310912
6.092,-0.110430549482659,0.0541625836773722
6.095,-0.110950739182303,0.0548180208269842
6.098,-0.111483480081668,0.0555235402006138
6.101,-0.112024957182846,0.0562808083000412
6.104,-0.112571223496399,0.0570912123492219
6.107,-0.113118220216111,0.057955850492327
6.11,-0.11366179763845,0.0588755233507381
6.113,-0.114197736694629,0.0598507271669894
6.116,-0.114721771006967,0.0608816484786536
6.119,-0.11522960935046,0.0619681603421733
6.122,-0.115716958406047,0.0631098201866276
6.125,-0.116179545687092,0.064305869407433
6.128,-0.116605816504161,0.0655911870229738
6.131,-0.11699393313691,0.0669273077351639
6.134,-0.117339951040682,0.0683120191119242
6.137,-0.117640085310806,0.0697428200295847
6.14,-0.117890731509611,0.0712169325522018
6.143,-0.11808848563115,0.0727313153057844
6.146,-0.118230163064626,0.074282678293431
6.149,-0.118312816476544,0.0758674990583712
6.152,-0.118333752508568,0.0774820401379094
6.155,-0.118290547186089,0.0791223677032611
6.158,-0.11818105998252,0.0807843713122905
6.161,-0.118003446403301,0.0824637846501336
6.164,-0.117756169135622,0.0841562071787094
6.167,-0.117438007499866,0.0858571265661147
6.17,-0.117048065379782,0.0875619417965014
6.173,-0.116585777441368,0.0892659868295259
6.176,-0.116050913551485,0.0909645546938756
6.179,-0.115443581596203,0.0926529218891644
6.182,-0.11476422837886,0.0943263729766934
6.185,-0.114013638827867,0.0959802252119771
6.188,-0.113192933394232,0.0976098531129277
6.191,-0.112303563632819,0.0992107128231991
6.194,-0.111347306074353,0.10077836613438
6.197,-0.110326254320142,0.102308504062042
6.2,-0.109242809439556,0.103796969823632
6.203,-0.108099668701235,0.105239781115212
6.206,-0.106899812693044,0.106633151558036
6.209,-0.10564649089577,0.107973511199968
6.212,-0.10434320576157,0.109257525959735
6.215,-0.10299369539616,0.110482115905011
6.218,-0.101601914914764,0.111644472270332
6.221,-0.100172016565805,0.112742073119834
6.224,-0.0987083287263603,0.113772697530822
6.227,-0.0972153338673677,0.11473443828815
6.23,-0.095697645604594,0.115625712943428
6.233,-0.0941599849470641,0.116445273204037
6.236,-0.0926071558704538,0.117192212631966
6.239,-0.0910440203323469,0.117865972472447
6.242,-0.0894754728642644,0.118466345802408
6.245,-0.087906414869961,0.118993479658726
6.248,-0.0863417287632952,0.119447875456284
6.251,-0.0847862520831761,0.119830387425825
6.254,-0.0832447517186861,0.12014221918161
6.257,-0.0817218983869854,0.120384918438866
6.26,-0.0802222414909966,0.120560369828025
6.263,-0.0787501845028773,0.120670785921762
6.266,-0.0773099609992779,0.120718696433811
6.269,-0.0759056114753883,0.120706935676575
6.272,-0.0745409610777805,0.120638628326516
6.275,-0.0732195983710427,0.120517173561329
6.278,-0.0719448552472098,0.120346227643894
6.281,-0.0707197881339981,0.120129685029002
6.284,-0.0695471605028375,0.119871658098868
6.287,-0.068429426971709,0.119576455611403
6.29,-0.067368718861793,0.11924855997527
6.293,-0.0663668314669225,0.1188926034707
6.296,-0.0654252130728504,0.118513343513384
6.299,-0.0645449557263313,0.118115637122424
6.302,-0.0637267879240206,0.117704414686955
6.305,-0.0629710691811932,0.117284653192022
6.308,-0.0622777865802813,0.116861349030724
6.311,-0.0616465532992417,0.116439490552811
6.314,-0.0610983813597465,0.116026706109748
6.317,-0.0606314792252022,0.11563246366762
6.32,-0.0602218251486048,0.115260325221806
6.323,-0.0598669331182261,0.114914815372391
6.326,-0.0595639815341352,0.114600256261346
6.329,-0.059309828747564,0.114320742987439
6.332,-0.0591010304561096,0.114080120189903
6.335,-0.0589338587937836,0.113881959945855
6.338,-0.0588043230299041,0.113729541096448
6.341,-0.0587081917818421,0.113625830120774
6.344,-0.0586410166106131,0.11357346365551
6.347,-0.0585981568963246,0.113574732786295
