"Freq [GHz]","re(S(Antenna1_1_p1,Antenna1_1_p1)) []","im(S(Antenna1_1_p1,Antenna1_1_p1)) []"
3,0.0717888967923872,-0.074364944816587
3.002,0.0712871646045748,-0.0751540359597952
3.004,0.0707754376678189,-0.075939776143127
3.006,0.0702537547626895,-0.0767220174898024
3.008,0.0697221570595011,-0.0775006131450589
3.01,0.0691806880635926,-0.0782754172292221
3.012,0.0686293936202831,-0.0790462849796549
3.014,0.0680683218395281,-0.0798130727115923
3.016,0.0674975230903098,-0.0805756378678672
3.018,0.06691704997479,-0.0813338390875284
3.02,0.0663269572722532,-0.0820875361733643
3.022,0.0657273019028709,-0.0828365901983319
3.024,0.0651181429313131,-0.0835808634909044
3.026,0.0644995415002341,-0.0843202196493437
3.028,0.0638715608036618,-0.0850545236249069
3.03,0.063234266044312,-0.085783641703998
3.032,0.0625877244138583,-0.0865074415592742
3.034,0.0619320050551778,-0.0872257922597186
3.036,0.0612671790195995,-0.0879385643096914
3.038,0.060593319236178,-0.0886456296669697
3.04,0.0599105004760149,-0.0893468617597914
3.042,0.0592187993176501,-0.0900421355329155
3.044,0.0585182941085446,-0.0907313274327109
3.046,0.0578090649346749,-0.0914143154612904
3.048,0.05709119357926,-0.0920909791797014
3.05,0.0563647634906383,-0.0927611997201917
3.052,0.0556298597463153,-0.0934248598475617
3.054,0.0548865690171981,-0.0940818438996213
3.056,0.0541349795320351,-0.0947320378867654
3.058,0.0533751810390758,-0.0953753294406856
3.06,0.0526072647779678,-0.0960116078922323
3.062,0.0518313234379063,-0.0966407642184452
3.064,0.0510474511230479,-0.0972626911087679
3.066,0.0502557433202059,-0.0978772829504631
3.068,0.0494562968628369,-0.0984844358732463
3.07,0.0486492098963338,-0.0990840477031524
3.072,0.047834581842634,-0.0996760180356552
3.074,0.0470125133653556,-0.100260248198055
3.076,0.0461831063370733,-0.100836641301149
3.078,0.0453464638042383,-0.101405102200208
3.08,0.044502689953758,-0.101965537565271
3.082,0.0436518900778397,-0.102517855810772
3.084,0.0427941705435072,-0.103061967174525
3.086,0.0419296387561979,-0.103597783686076
3.088,0.0410584031264461,-0.10412521918444
3.09,0.0401805730406617,-0.104644189315245
3.092,0.039296258825403,-0.105154611537291
3.094,0.0384055717160579,-0.105656405128547
3.096,0.0375086238239303,-0.106149491211597
3.098,0.0366055281067398,-0.106633792728557
3.1,0.0356963983315359,-0.107109234425474
3.102,0.0347813490530327,-0.107575742906221
3.104,0.033860495570362,-0.108033246615909
3.106,0.0329339539062533,-0.108481675823828
3.108,0.0320018407726343,-0.10892096262593
3.11,0.0310642735396617,-0.109351040966875
3.112,0.0301213702061759,-0.109771846631643
3.114,0.0291732493715851,-0.110183317246741
3.116,0.0282200302041762,-0.110585392251004
3.118,0.0272618324128522,-0.110978012936013
3.12,0.0262987762192978,-0.111361122436146
3.122,0.0253309823295688,-0.111734665698257
3.124,0.0243585718991074,-0.112098589501022
3.126,0.0233684044681795,-0.112493219793943
3.128,0.0223591246297332,-0.11291801431603
3.13,0.0213436345526756,-0.113332359784177
3.132,0.0203220695015672,-0.113736181681231
3.134,0.0192945653557303,-0.114129407493784
3.136,0.0182612585987653,-0.114511966759679
3.138,0.0172222862784803,-0.114883791005252
3.14,0.0161777859872207,-0.115244813762319
3.142,0.0151278958326039,-0.115594970604916
3.144,0.0140727543986483,-0.115934199075803
3.146,0.0130125007273004,-0.116262438752737
3.148,0.0119472742803493,-0.116579631184531
3.15,0.0108772149417277,-0.116885719936898
3.152,0.00980246294019676,-0.1171806505581
3.154,0.00872315886240733,-0.117464370574395
3.156,0.00763944359633593,-0.117736829515307
3.158,0.00655145833508974,-0.117997978858708
3.16,0.00545934454107603,-0.118247772075739
3.162,0.00436324390053225,-0.118486164585556
3.164,0.00326329829841353,-0.118713113779926
3.166,0.00215964984362849,-0.118928578997669
3.168,0.00105244076462401,-0.119132521528951
3.17,-5.81865446879978E-05,-0.119324904589441
3.172,-0.0011720896086676,-0.119505693344331
3.174,-0.00228912584334934,-0.119674854872229
3.176,-0.00340915261951831,-0.119832358198925
3.178,-0.0045320272754602,-0.119978174221039
3.18,-0.00565760710939451,-0.12011227576955
3.182,-0.00678574946159174,-0.120234637563219
3.184,-0.00791631170618092,-0.120345236201904
3.186,-0.00904915126265078,-0.120444050179765
3.188,-0.0101841256470506,-0.120531059848375
3.19,-0.0113210924628929,-0.120606247429738
3.192,-0.0124599094717635,-0.120669596999199
3.194,-0.0136004345436439,-0.12072109447828
3.196,-0.0147425257669475,-0.120760727637417
3.198,-0.0158860413882764,-0.120788486038615
3.2,-0.0170308399019008,-0.120804361098021
3.202,-0.0181767800289655,-0.12080834602841
3.204,-0.0193237207364276,-0.120800435831603
3.206,-0.0204715212957277,-0.120780627300794
3.208,-0.0216200412712011,-0.120748919012814
3.21,-0.0227691405482268,-0.12070531132031
3.212,-0.0239186793611252,-0.120649806306863
3.214,-0.0250685183107996,-0.120582407827023
3.216,-0.0262185183921314,-0.120503121460282
3.218,-0.027368540971128,-0.120411954511973
3.22,-0.0285184478818261,-0.120308916001106
3.222,-0.0296681013829571,-0.120194016652131
3.224,-0.0308173641943714,-0.120067268874637
3.226,-0.031966099523229,-0.119928686762987
3.228,-0.0331141710899553,-0.119778286073883
3.23,-0.0342614431239666,-0.119616084224871
3.232,-0.0354077803991669,-0.119442100272778
3.234,-0.036553048249217,-0.119256354906086
3.236,-0.0376971125825767,-0.119058870436245
3.238,-0.0388398399173281,-0.118849670774916
3.24,-0.0399810973757717,-0.118628781432159
3.242,-0.0411207526988051,-0.118396229496551
3.244,-0.0422586742900822,-0.118152043625246
3.246,-0.0433947312299538,-0.117896254030967
3.248,-0.0445287932591922,-0.117628892464945
3.25,-0.0456607308324992,-0.117349992209781
3.252,-0.0468683630118007,-0.117078291591262
3.254,-0.0480740625993259,-0.1167932564441
3.256,-0.0492776740304739,-0.116494919493319
3.258,-0.0504790425164671,-0.116183315276776
3.26,-0.0516780139767931,-0.11585848012925
3.262,-0.0528744351714336,-0.115520452167587
3.264,-0.0540681536228817,-0.115169271276041
3.266,-0.0552590176779493,-0.114804979091644
3.268,-0.0564468765193615,-0.114427618988768
3.27,-0.0576315801971399,-0.114037236063354
3.272,-0.0588129796197744,-0.113633877118795
3.274,-0.0599909265851841,-0.113217590650469
3.276,-0.0611652738014656,-0.112788426825814
3.278,-0.0623358749274283,-0.112346437476331
3.28,-0.0635025845129189,-0.111891676073541
3.282,-0.0646652581289315,-0.111424197716875
3.284,-0.0658237522575039,-0.110944059118509
3.286,-0.0669779244314006,-0.110451318583141
3.288,-0.0681276331535793,-0.109946035993708
3.29,-0.069272737966444,-0.10942827279605
3.292,-0.0704130994508795,-0.108898091977522
3.294,-0.0715485792450694,-0.108355558053538
3.296,-0.0726790400530973,-0.10780073705208
3.298,-0.0738043456833266,-0.107233696489136
3.3,-0.0749243610065629,-0.1066545053591
3.302,-0.076038952063993,-0.106063234115112
3.304,-0.0771479859749046,-0.105459954646355
3.306,-0.078251331024181,-0.104844740267301
3.308,-0.0793488566695724,-0.104217665694909
3.31,-0.0804404335087436,-0.10357880703678
3.312,-0.0815259333560936,-0.102928241759266
3.314,-0.0826052292093492,-0.102266048689538
3.316,-0.0836781952659303,-0.101592307969612
3.318,-0.0847447069590851,-0.100907101081338
3.32,-0.0858046409637966,-0.100210510765347
3.322,-0.0868578751824548,-0.0995026210799701
3.324,-0.0879042888103,-0.0987835173001142
3.326,-0.0889437622706287,-0.0980532859561155
3.328,-0.0899761773097676,-0.0973120148025573
3.33,-0.0910014169518108,-0.0965597927770623
3.332,-0.0920193655031196,-0.0957967100190608
3.334,-0.0930299086265866,-0.0950228578085328
3.336,-0.0940329332856579,-0.0942383285747337
3.338,-0.0950283277681199,-0.0934432158848975
3.34,-0.0960159817296418,-0.092637614372927
3.342,-0.0969957861770787,-0.0918216197880695
3.344,-0.0979676334715325,-0.0909953289435824
3.346,-0.0989314173411691,-0.0901588396653901
3.348,-0.0998870329237924,-0.0893122508307366
3.35,-0.100834376709175,-0.0884556623168331
3.352,-0.101773346611139,-0.0875891749795101
3.354,-0.102703841929402,-0.0867128906318676
3.356,-0.103625763401163,-0.0858269120529343
3.358,-0.104539013162452,-0.0849313429363357
3.36,-0.105443494789231,-0.0840262878589727
3.362,-0.106339113278243,-0.0831118523197166
3.364,-0.107225775087618,-0.0821881426481205
3.366,-0.10810338808723,-0.0812552660331548
3.368,-0.108971861638806,-0.0803133304919632
3.37,-0.109831106525784,-0.0793624448386493
3.372,-0.11068103503293,-0.0784027186630925
3.374,-0.111521560875699,-0.0774342623397992
3.376,-0.112380910059352,-0.0764301930167892
3.378,-0.113258020817825,-0.0753896172845248
3.38,-0.114124158452354,-0.0743393241548835
3.382,-0.114979223669841,-0.073279448150176
3.384,-0.11582311898099,-0.0722101246822174
3.386,-0.116655748668183,-0.0711314900214518
3.388,-0.117477018803118,-0.070043681246132
3.39,-0.118286837254197,-0.0689468362615639
3.392,-0.119085113683675,-0.0678410937494113
3.394,-0.119871759554561,-0.066726593137071
3.396,-0.120646688117279,-0.0656034746071168
3.398,-0.121409814466084,-0.0644718790368188
3.4,-0.122161055485242,-0.063331947997741
3.402,-0.122900329874967,-0.0621838237454183
3.404,-0.123627558158123,-0.0610276491391195
3.406,-0.124342662675681,-0.0598635676816965
3.408,-0.125045567591951,-0.0586917234695271
3.41,-0.125736198896573,-0.0575122611625482
3.412,-0.126414484405275,-0.0563253259843908
3.414,-0.127080353760402,-0.055131063652613
3.416,-0.127733738433213,-0.0539296204290389
3.418,-0.128374571723956,-0.0527211430202035
3.42,-0.129002788762706,-0.051505778607909
3.422,-0.129618326511987,-0.0502836747998942
3.424,-0.130221123760173,-0.0490549796106215
3.426,-0.130811121127658,-0.0478198414621821
3.428,-0.13138826106182,-0.0465784091153253
3.43,-0.13195248783976,-0.0453308316906132
3.432,-0.13250374756583,-0.0440772586197041
3.434,-0.13304198816495,-0.0428178396567668
3.436,-0.133567159391714,-0.0415527247900308
3.438,-0.13407921281729,-0.0402820642934724
3.44,-0.13457810183411,-0.0390060086686401
3.442,-0.135063781651369,-0.0377247086066244
3.444,-0.135536209290311,-0.036438315010172
3.446,-0.135995343585327,-0.0351469789359466
3.448,-0.136441145175552,-0.0338508515869414
3.45,-0.136873576506478,-0.0325500842850431
3.452,-0.13729260182217,-0.0312448284637533
3.454,-0.137698187163199,-0.0299352356210626
3.456,-0.138090300361792,-0.028621457342489
3.458,-0.138468911037099,-0.0273036452142755
3.46,-0.138833990592083,-0.0259819508567522
3.462,-0.139185512204938,-0.024656525907864
3.464,-0.13952345082743,-0.0233275219368663
3.466,-0.139847783179171,-0.0219950905081916
3.468,-0.140158487737729,-0.0206593831154849
3.47,-0.140455544740573,-0.0193205511358152
3.472,-0.140738936168857,-0.017978745874061
3.474,-0.141008645751052,-0.0166341185074719
3.476,-0.141264658950415,-0.0152868200404097
3.478,-0.141506962959321,-0.0139370013592679
3.48,-0.141735546693433,-0.0125848131175729
3.482,-0.141950400783739,-0.011230405811268
3.484,-0.142151517568443,-0.00987392967417957
3.486,-0.142338891087717,-0.00851553472367024
3.488,-0.14251251707532,-0.00715537071647597
3.49,-0.142672392948088,-0.00579358711473099
3.492,-0.142818517801289,-0.00443033310218176
3.494,-0.14295089239786,-0.00306575754058669
3.496,-0.143069519162518,-0.00170000895630977
3.498,-0.14317440217075,-0.000333235517100502
3.5,-0.143265547138695,0.00103441495093268
3.502,-0.143303212075905,0.00251517754615823
3.504,-0.143324596576001,0.00399537562406338
3.506,-0.143329734288225,0.00547482589970781
3.508,-0.14331866092288,0.00695334594997775
3.51,-0.143291414177682,0.00843075416565396
3.512,-0.143248033774008,0.00990686983327801
3.514,-0.143188561393046,0.0113815131268331
3.516,-0.143113040731868,0.0128545051392238
3.518,-0.143021517389399,0.0143256678735659
3.52,-0.142914038942312,0.0157948243142817
3.522,-0.14279065486084,0.017261798417998
3.524,-0.142651416534503,0.0187264151142565
3.526,-0.142496377237766,0.020188500356022
3.528,-0.142325592095619,0.0216478811300064
3.53,-0.142139118129091,0.0231043854667908
3.532,-0.141937014150692,0.0245578424807607
3.534,-0.141719340809791,0.0260080823698467
3.536,-0.141486160557937,0.0274549364150712
3.538,-0.141237537634115,0.0288982370399079
3.54,-0.140973538009947,0.0303378178094435
3.542,-0.140694229444837,0.0317735134493578
3.544,-0.140399681391071,0.0332051598447045
3.546,-0.14008996502886,0.0346325940785085
3.548,-0.13976515324134,0.036055654450176
3.55,-0.139425320549527,0.0374741804837089
3.552,-0.139070543147233,0.0388880129157433
3.554,-0.138700898875937,0.0402969937933888
3.556,-0.138316467159626,0.0417009663718966
3.558,-0.13791732904959,0.0430997752421298
3.56,-0.1375035671592,0.0444932662578585
3.562,-0.137075265648638,0.0458812866328709
3.564,-0.136632510249611,0.0472636848678981
3.566,-0.136175388170032,0.048640310847365
3.568,-0.135703988148681,0.0500110157659543
3.57,-0.135218400399837,0.0513756522349977
3.572,-0.134718716577895,0.0527340742386848
3.574,-0.134205029791959,0.0540861371400994
3.576,-0.133677434580424,0.055431697737075
3.578,-0.133136026845535,0.0567706142378808
3.58,-0.132580903907937,0.0581027462967314
3.582,-0.132012164431214,0.0594279550091234
3.584,-0.131429908416408,0.0607461029370036
3.586,-0.130834237176542,0.062057054093763
3.588,-0.130225253331126,0.0633606739990656
3.59,-0.129603060780656,0.0646568296635052
3.592,-0.128967764681119,0.0659453895830983
3.594,-0.128319471408476,0.0672262237836098
3.596,-0.127658288583162,0.0684992038247132
3.598,-0.12698432500457,0.0697642027839888
3.6,-0.126297690625546,0.0710210952897564
3.602,-0.125598496596871,0.07226975752875
3.604,-0.124886855161764,0.0735100672466279
3.606,-0.124162879700372,0.0747419037663261
3.608,-0.123426684664269,0.0759651479892533
3.61,-0.122678385590967,0.0771796824083241
3.612,-0.121918099058424,0.0783853911158421
3.614,-0.121145942679562,0.0795821598082209
3.616,-0.120362035046793,0.0807698757985552
3.618,-0.119566495776557,0.0819484280210352
3.62,-0.118759445423862,0.0831177070392084
3.622,-0.117941005486841,0.0842776050520922
3.624,-0.117111298401316,0.0854280159031293
3.626,-0.116270447485374,0.0865688350840003
3.628,-0.115418576943958,0.0876999597432785
3.63,-0.114555811833464,0.0888212886929435
3.632,-0.11368227806636,0.0899327224097395
3.634,-0.112798102345813,0.0910341630473919
3.636,-0.11190341217033,0.0921255144366742
3.638,-0.110998335828419,0.093206682094327
3.64,-0.110083002343262,0.0942775732228366
3.642,-0.109157541477402,0.0953380967210615
3.644,-0.10822208368745,0.0963881631867213
3.646,-0.10727676012881,0.0974276849171356
3.648,-0.106321702620417,0.0984565759184223
3.65,-0.105357043619491,0.0994747519053853
3.652,-0.104382916216321,0.100482130306764
3.654,-0.103399454069052,0.101478630268024
3.656,-0.102406791458504,0.10246417265426
3.658,-0.101405063203001,0.103438680053847
3.66,-0.100394404643227,0.104402076778444
3.662,-0.0993749516570947,0.105354288869698
3.664,-0.0983468406046441,0.106295244096104
3.666,-0.0973102083229546,0.107224871958922
3.668,-0.0962651920910804,0.108143103692953
3.67,-0.0952119296250117,0.109049872265178
3.672,-0.094150559032651,0.109945112379246
3.674,-0.0930812188388206,0.110828760474832
3.676,-0.0920040479002868,0.111700754729847
3.678,-0.0909191854308103,0.112561035056506
3.68,-0.0898267709762224,0.113409543107256
3.682,-0.0887269443595222,0.114246222269566
3.684,-0.0876198456960035,0.115071017671565
3.686,-0.0865056153684032,0.11588387617455
3.688,-0.0853843939820814,0.116684746378339
3.69,-0.0842563223502222,0.117473578614492
3.692,-0.0831215414990679,0.11825032495138
3.694,-0.0819801926231793,0.119014939187117
3.696,-0.080832417060723,0.119767376852344
3.698,-0.0796783562887937,0.12050759520387
3.7,-0.0785181518887605,0.121235553228167
3.702,-0.0773519455216519,0.12195121163072
3.704,-0.0761798789335656,0.122654532843235
3.706,-0.0750020939211177,0.123345481008693
3.708,-0.0738187322769224,0.124024021998263
3.71,-0.0726299358151063,0.124690123381066
3.712,-0.0714358463568626,0.125343754442791
3.714,-0.0702366056360361,0.125984886163161
3.716,-0.0690323553747538,0.126613491241253
3.718,-0.0678232371990866,0.127229544050665
3.72,-0.0666093926147592,0.127833020664533
3.722,-0.065390963052896,0.128423898850401
3.724,-0.0641680897758115,0.129002158044932
3.726,-0.0629409138828473,0.129567779368477
3.728,-0.0617095762962503,0.130120745609476
3.73,-0.0604742177471024,0.130661041218726
3.732,-0.0592349787312942,0.131188652313475
3.734,-0.0579919995155539,0.131703566641371
3.736,-0.056745420103523,0.13220577363426
3.738,-0.0554953802018875,0.132695264321815
3.74,-0.0542420192365638,0.133172031395021
3.742,-0.0529854762889404,0.133636069159496
3.744,-0.0517258901221805,0.134087373528657
3.746,-0.0504633991275796,0.134525942036726
3.748,-0.0491981413209922,0.134951773821579
3.75,-0.047930254299317,0.135364869607433
3.752,-0.0465556495070486,0.135673107477379
3.754,-0.0451808791329028,0.135966696315746
3.756,-0.0438060960465031,0.136245678510315
3.758,-0.0424314520851489,0.136510097984361
3.76,-0.0410570980306498,0.136760000148542
3.762,-0.0396831836162448,0.136995431972623
3.764,-0.0383098574835936,0.137216441887039
3.766,-0.0369372671998521,0.137423079774293
3.768,-0.0355655592148343,0.137615396990194
3.77,-0.034194878878255,0.137793446324936
3.772,-0.0328253703970677,0.137957281974004
3.774,-0.0314571768128869,0.138106959508929
3.776,-0.0300904400495115,0.138242535917872
3.778,-0.0287253008305383,0.138364069516051
3.78,-0.0273618987070784,0.138471619965997
3.782,-0.0260003720155759,0.138565248267659
3.784,-0.0246408578957272,0.138645016678338
3.786,-0.0232834922785144,0.13871098878246
3.788,-0.0219284098343411,0.138763229391191
3.79,-0.0205757440012879,0.13880180458189
3.792,-0.0192256269834817,0.138826781647396
3.794,-0.0178781896695802,0.138838229065159
3.796,-0.0165335617113863,0.138836216526217
3.798,-0.0151918714625781,0.138820814853997
3.8,-0.0138532459775756,0.138792096022979
3.802,-0.0125178109905306,0.138750133147182
3.804,-0.0111856909344558,0.138695000418513
3.806,-0.00985700890048879,0.138626773104944
3.808,-0.00853188666029465,0.13854552756854
3.81,-0.00721044463261646,0.138451341173342
3.812,-0.00589280187996556,0.138344292323084
3.814,-0.00457907610846703,0.138224460408766
3.816,-0.00326938365185364,0.138091925796079
3.818,-0.00196383946761824,0.137946769812679
3.82,-0.000662557131321648,0.137789074725314
3.822,0.000634351174933915,0.137618923696807
3.824,0.00192677466686856,0.137436400802898
3.826,0.00321460396222176,0.137241590958939
3.828,0.00449773109177371,0.137034579956457
3.83,0.00577604949919855,0.136815454389572
3.832,0.00704945405273323,0.136584301691281
3.834,0.00831784104567336,0.136341210049617
3.836,0.0095811082016793,0.136086268423664
3.838,0.0108391546838986,0.135819566499451
3.84,0.0120918810919014,0.135541194715718
3.842,0.0133391894724172,0.135251244169559
3.844,0.0145809833178833,0.134949806651942
3.846,0.0158171675727885,0.134636974603111
3.848,0.0170476486348216,0.134312841097873
3.85,0.0182723343598116,0.133977499820769
3.852,0.0194911340614632,0.13363104502114
3.854,0.0207039585128837,0.133273571548082
3.856,0.0219107199528946,0.132905174775299
3.858,0.0231113320821329,0.13252595058585
3.86,0.02430571006593,0.132135995386812
3.862,0.0254937705360775,0.13173540605383
3.864,0.0266754315902627,0.131324279905595
3.866,0.0278506127916863,0.130902714708219
3.868,0.0290192351692498,0.130470808629539
3.87,0.0301812212169137,0.130028660233332
3.872,0.0313364948925261,0.129576368453459
3.874,0.032484981616615,0.129114032567938
3.876,0.0336266082710479,0.12864175217294
3.878,0.0347613031961517,0.128159627166732
3.88,0.0358889961901941,0.127667757743551
3.882,0.0370096185038249,0.127166244337426
3.884,0.0381231028401714,0.126655187625946
3.886,0.0392293833506924,0.126134688533981
3.888,0.0403283956287834,0.125604848117357
3.89,0.041420076710138,0.125065767676497
3.892,0.0425043650658547,0.12451754861002
3.894,0.0435812005992997,0.123960292488317
3.896,0.0446505246387148,0.123394100947091
3.898,0.0457122799335728,0.122819075770888
3.9,0.0467664106506828,0.122235318756602
3.902,0.0478128623640362,0.121642931786968
