"Freq [GHz]","re(S(Antenna1_1_p1,Antenna1_1_p1)) []","im(S(Antenna1_1_p1,Antenna1_1_p1)) []"
3,0.0828657647983872,-0.067860757656587
3.002,0.0824180233615749,-0.0688983694597952
3.004,0.0819557255768189,-0.069932192633127
3.006,0.0814789376136895,-0.0709620077398024
3.008,0.0809877290315011,-0.0719875969750589
3.01,0.0804821727295926,-0.0730087442492221
3.012,0.0799623449072831,-0.0740252352296549
3.014,0.0794283250155281,-0.0750368573515923
3.016,0.0788801957183098,-0.0760433999278672
3.018,0.07831804284059,-0.0770446541375284
3.02,0.0777419553261532,-0.0780404131233643
3.022,0.0771520251900709,-0.0790304719783319
3.024,0.0765483474719131,-0.0800146278409044
3.026,0.0759310201879341,-0.0809926799093437
3.028,0.0753001442836618,-0.0819644294649069
3.03,0.074655823587312,-0.082929679953998
3.032,0.0739981647578584,-0.0838882369892742
3.034,0.0733272772391778,-0.0848399084297186
3.036,0.0726432732105995,-0.0857845043396914
3.038,0.0719462675371779,-0.0867218371069697
3.04,0.0712363777200148,-0.0876517214397914
3.042,0.0705137238456501,-0.0885739743729155
3.044,0.0697784285405446,-0.0894884153527109
3.046,0.0690306169136749,-0.0903948662312904
3.048,0.06827041651526,-0.0912931512997014
3.05,0.0674979572766383,-0.0921830973401917
3.052,0.0667133714683153,-0.0930645336075617
3.054,0.0659167936451981,-0.0939372918896213
3.056,0.0651083605970351,-0.0948012065467654
3.058,0.0642882112980758,-0.0956561144906856
3.06,0.0634564868559678,-0.0965018552322323
3.062,0.0626133304619063,-0.0973382709184452
3.064,0.0617588873370479,-0.0981652063087679
3.066,0.0608933046892059,-0.0989825088504631
3.068,0.0600167316548369,-0.0997900286532463
3.07,0.0591293192513338,-0.100587618543152
3.072,0.058231220327634,-0.101375134035655
3.074,0.0573225895141556,-0.102152433408055
3.076,0.0564035831740733,-0.102919377661149
3.078,0.0554743593379383,-0.103675830580208
3.08,0.054535077686658,-0.104421658695271
3.082,0.0535858994698397,-0.105156731350772
3.084,0.0526269874705072,-0.105880920684525
3.086,0.0516585059641979,-0.106594101646076
3.088,0.0506806206284461,-0.10729615201444
3.09,0.0496934985726617,-0.107986952395245
3.092,0.048697308188403,-0.108666386227291
3.094,0.0476922192000579,-0.109334339818547
3.096,0.0466784025459303,-0.109990702321597
3.098,0.0456560303497398,-0.110635365738557
3.1,0.0446252758925359,-0.111268224985474
3.102,0.0435863135450327,-0.111889177796221
3.104,0.042539318730362,-0.112498124825909
3.106,0.0414844678472533,-0.113094969593828
3.108,0.0404219382736343,-0.11367961851593
3.11,0.0393519082806617,-0.114251980876875
3.112,0.0382745570071759,-0.114811968881643
3.114,0.0371900643945852,-0.115359497606741
3.116,0.0360986111721762,-0.115894485011004
3.118,0.0350003787728522,-0.116416851976013
3.12,0.0338955492992978,-0.116926522236146
3.122,0.0327843055205688,-0.117423422458257
3.124,0.0316668307591074,-0.117907482151022
3.126,0.0305209173881796,-0.118401860093943
3.128,0.0293461747597332,-0.11890578948603
3.13,0.0281649979226756,-0.119395746714177
3.132,0.0269775844215672,-0.119871671291231
3.134,0.0257841320057303,-0.120333505693784
3.136,0.0245848385787653,-0.120781195409679
3.138,0.0233799021584803,-0.121214688875252
3.14,0.0221695207972207,-0.121633937472319
3.142,0.0209538925926039,-0.122038895544916
3.144,0.0197332156286483,-0.122429520365803
3.146,0.0185076879073004,-0.122805772122737
3.148,0.0172775073403493,-0.123167613914531
3.15,0.0160428716917277,-0.123515011716898
3.152,0.0148039785501968,-0.1238479344081
3.154,0.0135610252724073,-0.124166353694395
3.156,0.0123142089463359,-0.124470244165307
3.158,0.0110637263750897,-0.124759583188708
3.16,0.00980977401107603,-0.125034351005739
3.162,0.00855254792053225,-0.125294530625556
3.164,0.00729224377841354,-0.125540107819926
3.166,0.00602905678362848,-0.125771071157669
3.168,0.00476318164462401,-0.125987411938951
3.17,0.003494812565312,-0.126189124179441
3.172,0.0022241431713324,-0.126376204614331
3.174,0.000951366476650655,-0.126548652670229
3.176,-0.000323325119518308,-0.126706470442925
3.178,-0.0015997398854602,-0.126849662673039
3.18,-0.00287768679939451,-0.12697823673455
3.182,-0.00415697557159174,-0.127092202613219
3.184,-0.00543741668618092,-0.127191572881904
3.186,-0.00671882142265078,-0.127276362682765
3.188,-0.00800100190705058,-0.127346589706375
3.19,-0.00928377113289293,-0.127402274168738
3.192,-0.0105669429717635,-0.127443438789199
3.194,-0.0118503322536439,-0.12747010876928
3.196,-0.0131337547469475,-0.127482311769417
3.198,-0.0144170272382764,-0.127480077886615
3.2,-0.0156999675219008,-0.127463439632021
3.202,-0.0169823944289655,-0.12743243190641
3.204,-0.0182641278964276,-0.127387091976603
3.206,-0.0195449889657277,-0.127327459453794
3.208,-0.0208247998112011,-0.127253576265814
3.21,-0.0221033837682268,-0.12716548663531
3.212,-0.0233805653911252,-0.127063237054863
3.214,-0.0246561704207996,-0.126946876262023
3.216,-0.0259300258821314,-0.126816455213282
3.218,-0.027201960051128,-0.126672027058973
3.22,-0.0284718025018261,-0.126513647119106
3.222,-0.0297393841529571,-0.126341372853131
3.224,-0.0310045372643714,-0.126155263841637
3.226,-0.032267095473229,-0.125955381752987
3.228,-0.0335268938199553,-0.125741790318083
3.23,-0.0347837687539666,-0.125514555307071
3.232,-0.0360375581991669,-0.125273744498878
3.234,-0.037288101519217,-0.125019427655586
3.236,-0.0385352396025767,-0.124751676494345
3.238,-0.0397788148373281,-0.124470564660416
3.24,-0.0410186711357717,-0.124176167699159
3.242,-0.0422546539988051,-0.123868563027551
3.244,-0.0434866104700822,-0.123547829906246
3.246,-0.0447143892399538,-0.123214049412967
3.248,-0.0459378405791922,-0.122867304409945
3.25,-0.0471568164124992,-0.122507679519781
3.252,-0.0484259982718007,-0.122137058261262
3.254,-0.0496905038893259,-0.1217528052121
3.256,-0.0509501852804739,-0.121355009349619
3.258,-0.0522048961564671,-0.120943761182376
3.26,-0.0534544919667931,-0.12051915272172
3.262,-0.0546988299014336,-0.120081277446287
3.264,-0.0559377689128817,-0.119630230280441
3.266,-0.0571711696979493,-0.119166107558644
3.268,-0.0583988947693615,-0.118689006998768
3.27,-0.0596208083971399,-0.118199027667354
3.272,-0.0608367766597744,-0.117696269956795
3.274,-0.062046667455184,-0.117180835550469
3.276,-0.0632503504914656,-0.116652827391814
3.278,-0.0644476973174283,-0.116112349658331
3.28,-0.0656385813029189,-0.115559507729541
3.282,-0.0668228776789315,-0.114994408154875
3.284,-0.0680004635375039,-0.114417158626509
3.286,-0.0691712178214006,-0.113827867948141
3.288,-0.0703350213335793,-0.113226646005708
3.29,-0.071491756796444,-0.11261360373505
3.292,-0.0726413087608796,-0.111988853094522
3.294,-0.0737835636950694,-0.111352507034538
3.296,-0.0749184099830973,-0.11070467945208
3.298,-0.0760457378633266,-0.110045485208136
3.3,-0.0771654395165629,-0.1093750400331
3.302,-0.078277409023993,-0.108693460544112
3.304,-0.0793815423549046,-0.108000864184355
3.306,-0.080477737434181,-0.107297369232301
3.308,-0.0815658940695724,-0.106583094720909
3.31,-0.0826459140287436,-0.10585816045678
3.312,-0.0837177009760936,-0.105122686959266
3.314,-0.0847811604993492,-0.104376795439538
3.316,-0.0858362001259303,-0.103620607759612
3.318,-0.0868827293290851,-0.102854246441338
3.32,-0.0879206594637966,-0.102077834575347
3.322,-0.0889499038624548,-0.10129149585997
3.324,-0.0899703777503,-0.100495354520114
3.326,-0.0909819983006287,-0.0996895352861155
3.328,-0.0919846845997676,-0.0988741634025573
3.33,-0.0929783576818108,-0.0980493645470623
3.332,-0.0939629404831197,-0.0972152648290608
3.334,-0.0949383578665866,-0.0963719907685328
3.336,-0.0959045366156579,-0.0955196692547337
3.338,-0.0968614054181199,-0.0946584274948975
3.34,-0.0978088948796418,-0.093788393042927
3.342,-0.0987469375270787,-0.0929096937280695
3.344,-0.0996754677715325,-0.0920224576135824
3.346,-0.100594421931169,-0.0911268130253901
3.348,-0.101503738213792,-0.0902228884807366
3.35,-0.102403356719175,-0.0893108126468331
3.352,-0.103293219411139,-0.0883907143695101
3.354,-0.104173270149402,-0.0874627225918676
3.356,-0.105043454661163,-0.0865269663629343
3.358,-0.105903720512452,-0.0855835747863357
3.36,-0.106754017159231,-0.0846326769989727
3.362,-0.107594295878243,-0.0836744021697166
3.364,-0.108424509767618,-0.0827088794381205
3.366,-0.10924461380723,-0.0817362378931548
3.368,-0.110054564738806,-0.0807566065619632
3.37,-0.110854321165784,-0.0797701143986493
3.372,-0.11164384344293,-0.0787768902030925
3.374,-0.112423093765699,-0.0777770626597992
3.376,-0.113214682439352,-0.0767531929867892
3.378,-0.114018223217825,-0.0757046571545248
3.38,-0.114810909422354,-0.0746488994448835
3.382,-0.115592697599841,-0.073586047470176
3.384,-0.11636354592099,-0.0725162287122174
3.386,-0.117123414098183,-0.0714395704514518
3.388,-0.117872263433118,-0.070356199796132
3.39,-0.118610056804197,-0.0692662436315639
3.392,-0.119336758593675,-0.0681698286194113
3.394,-0.120052334744561,-0.067067081167071
3.396,-0.120756752707279,-0.0659581274371168
3.398,-0.121449981456084,-0.0648430932868188
3.4,-0.122131991435242,-0.063722104257741
3.402,-0.122802754594967,-0.0625952855954183
3.404,-0.123462244337123,-0.0614627622091195
3.406,-0.124110435524681,-0.0603246586216965
3.408,-0.124747304455951,-0.0591810990195271
3.41,-0.125372828858573,-0.0580322071725482
3.412,-0.125986987873275,-0.0568781064743908
3.414,-0.126589762036402,-0.055718919862613
3.416,-0.127181133267213,-0.0545547698690389
3.418,-0.127761084853956,-0.0533857785502035
3.42,-0.128329601438706,-0.052212067527909
3.422,-0.128886669000987,-0.0510337578998942
3.424,-0.129432274845173,-0.0498509703006215
3.426,-0.129966407580658,-0.0486638248521821
3.428,-0.13048905711182,-0.0474724411253253
3.43,-0.13100021461676,-0.0462769381906133
3.432,-0.13149987253683,-0.0450774345397041
3.434,-0.13198802455595,-0.0438740481267668
3.436,-0.132464665589714,-0.0426668963000308
3.438,-0.13292979176529,-0.0414560958534724
3.44,-0.13338340040311,-0.0402417629486401
3.442,-0.133825490009369,-0.0390240131566244
3.444,-0.134256060249311,-0.037802961420172
3.446,-0.134675111936327,-0.0365787220559466
3.448,-0.135082647015852,-0.0353514087169414
3.45,-0.135478668545078,-0.0341211344350431
3.452,-0.13586318067947,-0.0328880115437533
3.454,-0.136236188653099,-0.0316521517210626
3.456,-0.136597698764492,-0.030413665972489
3.458,-0.136947718357599,-0.0291726645842755
3.46,-0.137286255805783,-0.0279292571567522
3.462,-0.137613320494338,-0.026683552597864
3.464,-0.13792892280343,-0.0254356590668663
3.466,-0.138233074092171,-0.0241856840281916
3.468,-0.138525786677729,-0.0229337341954849
3.47,-0.138807073823573,-0.0216799155458152
3.472,-0.139076949717857,-0.020424333334061
3.474,-0.139335429459052,-0.0191670920374719
3.476,-0.139582529035415,-0.0179082953904097
3.478,-0.139818265312321,-0.0166480463492679
3.48,-0.140042656010433,-0.0153864471175729
3.482,-0.140255719692739,-0.014123599131268
3.484,-0.140457475743443,-0.0128596030341796
3.486,-0.140647944355717,-0.0115945586836702
3.488,-0.14082714650732,-0.010328565166476
3.49,-0.140995103953088,-0.00906172076473099
3.492,-0.141151839197289,-0.00779412299218176
3.494,-0.141297375487861,-0.00652586854058668
3.496,-0.141431736788518,-0.00525705330630977
3.498,-0.14155494777075,-0.0039877723871005
3.5,-0.141667033791695,-0.00271812008906732
3.502,-0.141769271606905,-0.00133974283384177
3.504,-0.141858094321001,3.92216240633798E-05
3.506,-0.141933515291225,0.00141865088970781
3.508,-0.14199554879288,0.00279842303997775
3.51,-0.142044210017682,0.00417841663565396
3.512,-0.142079515064008,0.00555851070327801
3.514,-0.142101480923046,0.00693858479683307
3.516,-0.142110125471868,0.00831851891922383
3.518,-0.142105467449399,0.00969819358356593
3.52,-0.142087526482312,0.0110774898142817
3.522,-0.14205632304084,0.012456289107998
3.524,-0.142011878454503,0.0138344734642565
3.526,-0.141954214877766,0.015211925386022
3.528,-0.141883355315619,0.0165885278900064
3.53,-0.141799323559091,0.0179641644767908
3.532,-0.141702144260692,0.0193387191607607
3.534,-0.141591842839791,0.0207120764698467
3.536,-0.141468445517937,0.0220841214250712
3.538,-0.141331979324115,0.0234547395699079
3.54,-0.141182472039947,0.0248238169394435
3.542,-0.141019952244837,0.0261912400893578
3.544,-0.140844449271071,0.0275568961047045
3.546,-0.14065599318886,0.0289206725385085
3.548,-0.14045461485134,0.030282457480176
3.55,-0.140240345819527,0.0316421395437089
3.552,-0.140013218417233,0.0329996078357433
3.554,-0.139773265665937,0.0343547519733888
3.556,-0.139520521339626,0.0357074621018966
3.558,-0.13925501988959,0.0370576288721298
3.56,-0.1389767964892,0.0384051434278585
3.562,-0.138685887028638,0.0397498974528709
3.564,-0.138382328049611,0.0410917831378981
3.566,-0.138066156810032,0.042430693167365
3.568,-0.137737411238681,0.0437665207559543
3.57,-0.137396129939837,0.0450991596149977
3.572,-0.137042352167895,0.0464285039786848
3.574,-0.136676117871959,0.0477544485800994
3.576,-0.136297467620424,0.049076888677075
3.578,-0.135906442665535,0.0503957200078808
3.58,-0.135503084867937,0.0517108388467314
3.582,-0.135087436751214,0.0530221419591234
3.584,-0.134659541466408,0.0543295266370036
3.586,-0.134219442796542,0.055632890643763
3.588,-0.133767185151126,0.0569321322790656
3.59,-0.133302813530656,0.0582271503335052
3.592,-0.132826373591119,0.0595178441030983
3.594,-0.132337911578476,0.0608041133836098
3.596,-0.131837474323162,0.0620858584847132
3.598,-0.13132510929457,0.0633629802039888
3.6,-0.130800864525546,0.0646353798407564
3.602,-0.130264788676871,0.06590295919975
3.604,-0.129716930951764,0.0671656205846279
3.606,-0.129157341170372,0.0684232667813261
3.608,-0.128586069734269,0.0696758011012533
3.61,-0.128003167600967,0.0709231273243241
3.612,-0.127408686328424,0.0721651497518421
3.614,-0.126802678019562,0.0734017731492209
3.616,-0.126185195366793,0.0746329028085552
3.618,-0.125556291596557,0.0758584445010352
3.62,-0.124916020533862,0.0770783044792084
3.622,-0.124264436536841,0.0782923895090922
3.624,-0.123601594521316,0.0795006068221294
3.626,-0.122927549965374,0.0807028641770003
3.628,-0.122242358883958,0.0818990698032785
3.63,-0.121546077853464,0.0830891324089435
3.632,-0.12083876397636,0.0842729612117395
3.634,-0.120120474915813,0.0854504659103919
3.636,-0.11939126887033,0.0866215566956742
3.638,-0.118651204578419,0.087786144247327
3.64,-0.117900341293262,0.0889441397318366
3.642,-0.117138738837402,0.0900954548070615
3.644,-0.11636645754745,0.0912400016197213
3.646,-0.11558355827881,0.0923776928037356
3.648,-0.114790102430417,0.0935084414844223
3.65,-0.113986151929491,0.0946321612745533
3.652,-0.113171769216321,0.0957487662762641
3.654,-0.112347017269052,0.0968581710828236
3.656,-0.111511959568504,0.0979602907772603
3.658,-0.110666660143001,0.0990550409308474
3.66,-0.109811183523227,0.100142337608444
3.662,-0.108945594757095,0.101222097365698
3.664,-0.108069959404644,0.102294237251104
3.666,-0.107184343552955,0.103358674805122
3.668,-0.10628881380108,0.104415328062353
3.67,-0.105383437255012,0.105464115552278
3.672,-0.104468281532651,0.106504956300146
3.674,-0.103543414778821,0.107537769827832
3.676,-0.102608905620287,0.108562476154847
3.678,-0.10166482322081,0.109578995801506
3.68,-0.100711237226222,0.110587249785256
3.682,-0.0997482177995222,0.111587159627566
3.684,-0.0987758356260035,0.112578647353565
3.686,-0.0977941618584032,0.11356163549155
3.688,-0.0968032681920814,0.114536047077339
3.69,-0.0958032268002222,0.115501805655492
3.692,-0.0947941103690679,0.11645883527838
3.694,-0.0937759920831793,0.117407060511117
3.696,-0.0927489456107229,0.118346406433344
3.698,-0.0917130451487937,0.11927679863987
3.7,-0.0906683653787605,0.120198163243167
3.702,-0.0896149814716519,0.12111042687572
3.704,-0.0885529691035656,0.122013516694235
3.706,-0.0874824044411177,0.122907360376693
3.708,-0.0864033641469224,0.123791886128263
3.71,-0.0853159253851063,0.124667022691066
3.712,-0.0842201657868625,0.125532699332791
3.714,-0.0831161635160362,0.126388845843161
3.716,-0.0820039971747538,0.127235392581253
3.718,-0.0808837458990866,0.128072270430665
3.72,-0.0797554892947592,0.128899410794533
3.722,-0.078619307442896,0.129716745660401
3.724,-0.0774752809358115,0.130524207544932
3.726,-0.0763234908228473,0.131321729508477
3.728,-0.0751640186462502,0.132109245199476
3.73,-0.0739969464471024,0.132886688788726
3.732,-0.0728223567312942,0.133653995033475
3.734,-0.0716403324655539,0.134411099231371
3.736,-0.070450957123523,0.13515793728426
3.738,-0.0692543146418875,0.135894445631815
3.74,-0.0680504894265638,0.136620561295021
3.742,-0.0668395663689404,0.137336221899496
3.744,-0.0656216308321805,0.138041365618657
3.746,-0.0643967686175796,0.138735931246726
3.748,-0.0631650660209922,0.139419858121579
3.75,-0.061926609809317,0.140093086237433
3.752,-0.0604889006070486,0.140695755847379
3.754,-0.0590455107729028,0.141283091945746
3.756,-0.0575965981065031,0.141855041410315
3.758,-0.0561423209151488,0.142411552644361
3.76,-0.0546828380806498,0.142952575618542
3.762,-0.0532183089462448,0.143478061842623
3.764,-0.0517488933935936,0.143987964387039
3.766,-0.0502747517698521,0.144482237884293
3.768,-0.0487960448748343,0.144960838560194
3.77,-0.047312933988255,0.145423724204936
3.772,-0.0458255808170677,0.145870854184004
3.774,-0.0443341474828869,0.146302189488929
3.776,-0.0428387965295115,0.146717692677872
3.778,-0.0413396908705383,0.147117327926051
3.78,-0.0398369938270784,0.147501061035997
3.782,-0.0383308690455759,0.147868859397659
3.784,-0.0368214805457272,0.148220692048338
3.786,-0.0353089926685144,0.14855652964246
3.788,-0.0337935700443411,0.148876344461191
3.79,-0.0322753776212879,0.14918011044189
3.792,-0.0307545806434817,0.149467803147396
3.794,-0.0292313445695802,0.149739399785159
3.796,-0.0277058351613863,0.149994879246217
3.798,-0.0261782183625781,0.150234222033997
3.8,-0.0246486603575756,0.150457410352979
3.802,-0.0231173275205306,0.150664428027182
3.804,-0.0215843864044558,0.150855260608513
3.806,-0.0200500037204888,0.151029895254944
3.808,-0.0185143463272947,0.15118832084854
3.81,-0.0169775812106165,0.151330527933342
3.812,-0.0154398754829656,0.151456508713084
3.814,-0.013901396313467,0.151566257118766
3.816,-0.0123623109778536,0.151659768716079
3.818,-0.0108227867986182,0.151737040802679
3.82,-0.00928299114532165,0.151798072345314
3.822,-0.00774309139506608,0.151842864006807
3.824,-0.00620325494313144,0.151871418122898
3.826,-0.00466364917377824,0.151883738768939
3.828,-0.00312444142122629,0.151879831676457
3.83,-0.00158579899080145,0.151859704289572
3.832,-4.78891102667668E-05,0.151823365751281
3.834,0.00148912107867336,0.151770826899617
3.836,0.0030250645186793,0.151702100253664
3.838,0.00455977430489856,0.151617200069451
3.84,0.00609308364290141,0.151516142255718
3.842,0.0076248259054172,0.151398944459559
3.844,0.00915483465288332,0.151265625991942
3.846,0.0106829436247885,0.151116207883111
3.848,0.0122089867758216,0.150950712837873
3.85,0.0137327982928116,0.150769165270769
3.852,0.0152542126094632,0.15057159127114
3.854,0.0167730644258837,0.150358018638082
3.856,0.0182891887268946,0.150128476845299
3.858,0.0198024208021329,0.14988299704585
3.86,0.02131259625893,0.149621612076812
3.862,0.0228195510449775,0.14934435647383
3.864,0.0243231214677627,0.149051266415595
3.866,0.0258231442057863,0.148742379798219
3.868,0.0273194563345498,0.148417736129539
3.87,0.0288118953390137,0.148077376643332
3.872,0.0303002991341261,0.147721344183459
3.874,0.031784506082615,0.147349683287938
3.876,0.0332643550120479,0.14696244013294
3.878,0.0347396852331517,0.146559662536732
3.88,0.0362103365581941,0.146141399953551
3.882,0.0376761493168249,0.145707703517426
3.884,0.0391369643771714,0.145258625935946
3.886,0.0405926231576924,0.144794221593981
3.888,0.0420429676527834,0.144314546467357
3.89,0.043487840443138,0.143819658156497
3.892,0.0449270847148547,0.14330961587002
3.894,0.0463605442802997,0.142784480418317
3.896,0.0477880635897148,0.142244314197091
3.898,0.0492094877525728,0.141689181200888
3.9,0.0506246625546828,0.141119147016602
3.902,0.0520334344710362,0.140534278776968
