"Freq [GHz]","re(S(Antenna1_1_p1,Antenna1_1_p1)) []","im(S(Antenna1_1_p1,Antenna1_1_p1)) []"
3,0.0860867947303872,-0.080733759556587
3.002,0.0854236363775749,-0.0818319507097952
3.004,0.0847446528558189,-0.082923621103127
3.006,0.0840499343436895,-0.0840085236198024
3.008,0.0833395749773011,-0.0850864128550589
3.01,0.0826136728087926,-0.0861570451892221
3.012,0.0818723297649831,-0.0872201788496549
3.014,0.0811156516059282,-0.0882755739715923
3.016,0.0803437478819498,-0.0893229926378672
3.018,0.07955673189039,-0.0903621989575284
3.02,0.0787547206313532,-0.0913929591133642
3.022,0.0779378347630709,-0.0924150414083319
3.024,0.0771061985563131,-0.0934282163409044
3.026,0.0762599398483341,-0.0944322566393437
3.028,0.0753991899966618,-0.0954269373049069
3.03,0.074524083829312,-0.096412035703998
3.032,0.0736347596028584,-0.0973873315792742
3.034,0.0727313589471778,-0.0983526070997186
3.036,0.0718140268205995,-0.0993076469396914
3.038,0.0708829114601779,-0.10025223826697
3.04,0.0699381643310149,-0.101186170869791
3.042,0.0689799400766501,-0.102109237132915
3.044,0.0680083964685446,-0.103021232092711
3.046,0.0670236943556749,-0.10392195352129
3.048,0.06602599761226,-0.104811201929701
3.05,0.0650154730846383,-0.105688780580192
3.052,0.0639922905433153,-0.106554495617562
3.054,0.0629566226281981,-0.107408156019621
3.056,0.0619086447960351,-0.108249573656765
3.058,0.0608485352650758,-0.109078563360686
3.06,0.0597764749699678,-0.109894942932232
3.062,0.0586926474979063,-0.110698533168445
3.064,0.0575972390450479,-0.111489157908768
3.066,0.0564904383552059,-0.112266644075463
3.068,0.0553724366708369,-0.113030821685246
3.07,0.0542434276743338,-0.113781523895152
3.072,0.053103607441634,-0.114518587024655
3.074,0.0519531743771556,-0.115241850584055
3.076,0.0507923291700733,-0.115951157306149
3.078,0.0496212747329383,-0.116646353168208
3.08,0.048440216147658,-0.117327287421271
3.082,0.0472493606138397,-0.117993812614772
3.084,0.0460489173925072,-0.118645784618525
3.086,0.0448390977511979,-0.119283062645076
3.088,0.0436201149054461,-0.11990550927644
3.09,0.0423921839726617,-0.120512990481245
3.092,0.041155521908403,-0.121105375637291
3.094,0.0399103474560579,-0.121682537552547
3.096,0.0386568810889303,-0.122244352477597
3.098,0.0373953449587398,-0.122790700133557
3.1,0.0361259628395359,-0.123321463720474
3.102,0.0348489600700327,-0.123836529941221
3.104,0.033564563501362,-0.124335789008909
3.106,0.0322730014432533,-0.124819134668828
3.108,0.0309745036046343,-0.12528646421193
3.11,0.0296693010436617,-0.125737678481875
3.112,0.0283576261101759,-0.126172681895643
3.114,0.0270397123915852,-0.126591382448741
3.116,0.0257157946601762,-0.126993691732004
3.118,0.0243861088128522,-0.127379524938013
3.12,0.0230508918242978,-0.127748800872146
3.122,0.0217103816875688,-0.128101441960257
3.124,0.0203648173591074,-0.128437374258022
3.126,0.0190111855651795,-0.128762509500943
3.128,0.0176499032947332,-0.12907665773303
3.13,0.0162845283366756,-0.129373747570177
3.132,0.0149153077535672,-0.129653737497231
3.134,0.0135424887917303,-0.129916589786784
3.136,0.0121663188247653,-0.130162270495679
3.138,0.0107870452964803,-0.130390749452252
3.14,0.00940491566622073,-0.130602000249319
3.142,0.00802017734960387,-0.130796000236916
3.144,0.00663307766764835,-0.130972730510803
3.146,0.00524386378930036,-0.131132175902737
3.148,0.00385278267634931,-0.131274324965531
3.15,0.00246008103172772,-0.131399169967898
3.152,0.00106600524219676,-0.1315067068761
3.154,-0.000329198673592674,-0.131596935339395
3.156,-0.00172528511866408,-0.131669858684307
3.158,-0.00312200896791026,-0.131725483890708
3.16,-0.00451912562692397,-0.131763821580739
3.162,-0.00591639107846775,-0.131784886004556
3.164,-0.00731356193558646,-0.131788695019926
3.166,-0.00871039549537151,-0.131775270075669
3.168,-0.010106649786376,-0.131744636197951
3.17,-0.011502083621688,-0.131696821965441
3.172,-0.0128964566496676,-0.131631859496331
3.174,-0.0142895294013493,-0.131549784423229
3.176,-0.0156810633415183,-0.131450635878925
3.178,-0.0170708209194602,-0.131334456468039
3.18,-0.0184585656123945,-0.13120129225355
3.182,-0.0198440619795917,-0.131051192729219
3.184,-0.0212270757081809,-0.130884210797904
3.186,-0.0226073736576508,-0.130700402750765
3.188,-0.0239847239110506,-0.130499828241375
3.19,-0.0253588958198929,-0.130282550262738
3.192,-0.0267296600507635,-0.130048635120199
3.194,-0.0280967886286439,-0.12979815241028
3.196,-0.0294600549879475,-0.129531174990417
3.198,-0.0308192340112764,-0.129247778954615
3.2,-0.0321741020759008,-0.128948043605021
3.202,-0.0335244370999655,-0.12863205142841
3.204,-0.0348700185834276,-0.128299888063603
3.206,-0.0362106276547277,-0.127951642273794
3.208,-0.0375460471062011,-0.127587405919814
3.21,-0.0388760614462268,-0.12720727392831
3.212,-0.0402004569311252,-0.126811344261863
3.214,-0.0415190216157996,-0.126399717891023
3.216,-0.0428315453861314,-0.125972498759282
3.218,-0.044137820006128,-0.125529793754973
3.22,-0.0454376391518261,-0.125071712675106
3.222,-0.0467307984569571,-0.124598368198131
3.224,-0.0480170955463714,-0.124109875846637
3.226,-0.049296330077229,-0.123606353955987
3.228,-0.0505683037779553,-0.123087923640883
3.23,-0.0518328204819666,-0.122554708758871
3.232,-0.0530896861681669,-0.122006835876778
3.234,-0.054338708996217,-0.121444434234086
3.236,-0.0555796993425767,-0.120867635711245
3.238,-0.0568124698333281,-0.120276574787916
3.24,-0.0580368353827717,-0.119671388510159
3.242,-0.0592526132288051,-0.119052216452551
3.244,-0.0604596229600822,-0.118419200679246
3.246,-0.0616576865559538,-0.117772485707967
3.248,-0.0628466284151922,-0.117112218469945
3.25,-0.0640262753924992,-0.116438548275781
3.252,-0.0651993302178007,-0.115772021075262
3.254,-0.0663631193513259,-0.1150928404771
3.256,-0.0675174963804739,-0.114401162033619
3.258,-0.0686623175664671,-0.113697143027376
3.26,-0.0697974418677931,-0.11298094242272
3.262,-0.0709227309574336,-0.112252720827287
3.264,-0.0720380492388817,-0.111512640445441
3.266,-0.0731432638669493,-0.110760865032644
3.268,-0.0742382447613615,-0.109997559850768
3.27,-0.0753228646261399,-0.109222891627354
3.272,-0.0763969989607744,-0.108437028505795
3.274,-0.0774605260801841,-0.107640140001469
3.276,-0.0785133271224656,-0.106832396961814
3.278,-0.0795552860684283,-0.106013971512331
3.28,-0.0805862897519189,-0.105185037016541
3.282,-0.0816062278689315,-0.104345768032875
3.284,-0.0826149929945039,-0.103496340260509
3.286,-0.0836124805904006,-0.102636930504141
3.288,-0.0845985890145793,-0.101767716618708
3.29,-0.085573219532444,-0.10088887747005
3.292,-0.0865362763238796,-0.100000592886522
3.294,-0.0874876664950694,-0.0991030436125384
3.296,-0.0884273000780973,-0.0981964112640802
3.298,-0.0893550900483266,-0.0972808782811365
3.3,-0.0902709523205629,-0.0963566278821
3.302,-0.091174805760993,-0.095423844018112
3.304,-0.0920665721869046,-0.0944827113253552
3.306,-0.092946176378181,-0.0935334150823011
3.308,-0.0938135460705724,-0.0925761411589094
3.31,-0.0946686119667436,-0.0916110759727804
3.312,-0.0955113077340936,-0.0906384064452664
3.314,-0.0963415700083492,-0.0896583199515382
3.316,-0.0971593383909303,-0.0886710042756124
3.318,-0.0979645554520851,-0.0876766475663381
3.32,-0.0987571667287966,-0.0866754382883473
3.322,-0.0995371207244548,-0.0856675651779701
3.324,-0.1003043689053,-0.0846532171991142
3.326,-0.101058865697629,-0.0836325834931155
3.328,-0.101800568484768,-0.0826058533359573
3.33,-0.102529437601811,-0.0815732160935623
3.332,-0.10324543634312,-0.0805348611740608
3.334,-0.103948530936587,-0.0794909779837328
3.336,-0.104638690535658,-0.0784417558815337
3.338,-0.10531588723812,-0.0773873841343975
3.34,-0.105980096079642,-0.076328051871927
3.342,-0.106631294967079,-0.0752639480420695
3.344,-0.107269464761532,-0.0741952613660824
3.346,-0.107894589181169,-0.0731221802948901
3.348,-0.108506654853792,-0.0720448929640696
3.35,-0.109105651269175,-0.0709635871506331
3.352,-0.109691570801139,-0.0698784502289101
3.354,-0.110264408639402,-0.0687896691269676
3.356,-0.110824162851163,-0.0676974302834343
3.358,-0.111370834302452,-0.0666019196044356
3.36,-0.111904426689231,-0.0655033224209727
3.362,-0.112424946488243,-0.0644018234458166
3.364,-0.112932402967618,-0.0632976067319205
3.366,-0.11342680816723,-0.0621908556301548
3.368,-0.113908176848806,-0.0610817527469632
3.37,-0.114376526545784,-0.0599704799036493
3.372,-0.11483187747293,-0.0588572180960925
3.374,-0.115274252555699,-0.0577421474517992
3.376,-0.115722215179352,-0.0566361616027892
3.378,-0.116176508527825,-0.0555389618715248
3.38,-0.116618861812354,-0.0544398317768835
3.382,-0.117049305449841,-0.053338923036176
3.384,-0.11746787194099,-0.0522363862012174
3.386,-0.117874595848183,-0.0511323706284518
3.388,-0.118269513773118,-0.050027024449132
3.39,-0.118652664324197,-0.0489204945465639
3.392,-0.119024088073675,-0.0478129265204113
3.394,-0.119383827574561,-0.046704464666071
3.396,-0.119731927287279,-0.0455952519441168
3.398,-0.120068433566084,-0.0444854299538188
3.4,-0.120393394655242,-0.043375138911741
3.402,-0.120706860614967,-0.0422645176214183
3.404,-0.121008883337123,-0.0411537034501195
3.406,-0.121299516480681,-0.0400428323056965
3.408,-0.121578815466951,-0.0389320386125271
3.41,-0.121846837444573,-0.0378214552885482
3.412,-0.122103641234275,-0.0367112137213908
3.414,-0.122349287343402,-0.035601443744613
3.416,-0.122583837890213,-0.0344922736230389
3.418,-0.122807356587956,-0.0333838300242035
3.42,-0.123019908748706,-0.032276238000909
3.422,-0.123221561186987,-0.0311696209708942
3.424,-0.123412382243173,-0.0300641007006215
3.426,-0.123592441716658,-0.0289597972801821
3.428,-0.12376181083882,-0.0278568291103253
3.43,-0.12392056227576,-0.0267553128816132
3.432,-0.12406877004083,-0.0256553635607041
3.434,-0.12420650949695,-0.0245570943717668
3.436,-0.124333857318714,-0.0234606167780308
3.438,-0.12445089143429,-0.0223660404724724
3.44,-0.12455769103711,-0.0212734733576401
3.442,-0.124654336507369,-0.0201830215336244
3.444,-0.124740909403311,-0.019094789285172
3.446,-0.124817492422326,-0.0180088790669466
3.448,-0.124884169351852,-0.0169253914939414
3.45,-0.124941025070078,-0.0158444253260431
3.452,-0.12498814546647,-0.0147660774597533
3.454,-0.125025617442099,-0.0136904429160626
3.456,-0.125053528859792,-0.012617614832489
3.458,-0.125071968504099,-0.0115476844442755
3.46,-0.125081026061083,-0.0104807410967522
3.462,-0.125080792077938,-0.00941687221786396
3.464,-0.12507135790243,-0.00835616331686633
3.466,-0.125052815702171,-0.0072986979681916
3.468,-0.125025258383729,-0.00624455782548492
3.47,-0.124988779571573,-0.00519382260581519
3.472,-0.124943473566857,-0.00414657007406097
3.474,-0.124889435326052,-0.00310287604747189
3.476,-0.124826760409415,-0.00206281440040966
3.478,-0.124755544969321,-0.00102645704926788
3.48,-0.124675885678433,6.12604242712124E-06
3.482,-0.124587879727739,0.00103486689873205
3.484,-0.124491624784443,0.00205969945582043
3.486,-0.124387218939717,0.00308055966632976
3.488,-0.12427476068632,0.00409738540352403
3.49,-0.124154348886088,0.005110116525269
3.492,-0.124026082727289,0.00611869484781824
3.494,-0.12389006171186,0.00712306413941331
3.496,-0.123746385572518,0.00812317012369023
3.498,-0.12359515429275,0.0091189605028995
3.5,-0.123436468035695,0.0101103849109327
3.502,-0.123344847886905,0.0111618945061582
3.504,-0.123244842724001,0.0122111593840634
3.506,-0.123136508294225,0.0132581279897078
3.508,-0.12301990029188,0.0143027499099777
3.51,-0.122895074330682,0.015344975855654
3.512,-0.122762085931008,0.016384757633278
3.514,-0.122620990499046,0.0174220481868331
3.516,-0.122471843303868,0.0184568015092238
3.518,-0.122314699461399,0.0194889727035659
3.52,-0.122149613916312,0.0205185179142817
3.522,-0.12197664142084,0.021545394367998
3.524,-0.121795836520503,0.0225695602942565
3.526,-0.121607253533766,0.023590974986022
3.528,-0.121410946535619,0.0246095987300064
3.53,-0.121206969339091,0.0256253928167908
3.532,-0.120995375482692,0.0266383195007607
3.534,-0.120776218209791,0.0276483420498467
3.536,-0.120549550453937,0.0286554246450712
3.538,-0.120315424824115,0.0296595324399079
3.54,-0.120073893589947,0.0306606314994435
3.542,-0.119825008662837,0.0316586887993578
3.544,-0.119568821588071,0.0326536722047045
3.546,-0.11930538352386,0.0336455504785085
3.548,-0.11903474523434,0.034634293230176
3.55,-0.118756957068527,0.0356198709237089
3.552,-0.118472068954233,0.0366022548457433
3.554,-0.118180130381937,0.0375814171033888
3.556,-0.117881190392626,0.0385573306118966
3.558,-0.11757529756659,0.0395299690421298
3.56,-0.1172625000102,0.0404993068378585
3.562,-0.116942845349138,0.0414653192028709
3.564,-0.116616380712911,0.0424279820578981
3.566,-0.116283152726832,0.043387272037365
3.568,-0.115943207501681,0.0443431664559543
3.57,-0.115596590624237,0.0452956433149977
3.572,-0.115243347147795,0.0462446812886848
3.574,-0.114883521583959,0.0471902596700994
3.576,-0.114517157893424,0.048132358387075
3.578,-0.114144299479535,0.0490709579478808
3.58,-0.113764989178937,0.0500060394767314
3.582,-0.113379269255214,0.0509375846491234
3.584,-0.112987181392408,0.0518655756870036
3.586,-0.112588766687542,0.052789995353763
3.588,-0.112184065646126,0.0537108269090656
3.59,-0.111773118177656,0.0546280541135052
3.592,-0.111355963584119,0.0555416612230983
3.594,-0.110932640564476,0.0564516329036098
3.596,-0.110503187202162,0.0573579542947132
3.598,-0.11006764096757,0.0582606109539888
3.6,-0.109626038708546,0.0591595888207564
3.602,-0.109178416650871,0.06005487421975
3.604,-0.108724810395764,0.0609464538646279
3.606,-0.108265254915372,0.0618343147713261
3.608,-0.107799784550269,0.0627184443112533
3.61,-0.107328433010967,0.063598830164324
3.612,-0.106851233375424,0.0644754602718421
3.614,-0.106368218084562,0.0653483228792209
3.616,-0.105879418948793,0.0662174064685552
3.618,-0.105384867140557,0.0670826997510352
3.62,-0.104884593197862,0.0679441916492084
3.622,-0.104378627026841,0.0688018713090922
3.624,-0.103866997901316,0.0696557280321294
3.626,-0.103349734465374,0.0705057512870003
3.628,-0.102826864723958,0.0713519306812785
3.63,-0.102298416063464,0.0721942559629435
3.632,-0.10176441523636,0.0730327169717395
3.634,-0.101224888385813,0.0738673036503919
3.636,-0.10067986103033,0.0746980060056742
3.638,-0.100129358058419,0.075524814099327
3.64,-0.0995734037732619,0.0763477180488366
3.642,-0.0990120218474018,0.0771667079580615
3.644,-0.0984452353574503,0.0779817739777213
3.646,-0.0978730667788104,0.0787929062057356
3.648,-0.0972955380104168,0.0796000947574222
3.65,-0.0967126703394909,0.0804033296455533
3.652,-0.0961244844763206,0.0812026008802641
3.654,-0.095531000569052,0.0819978983588236
3.656,-0.0949322381785042,0.0827892118852603
3.658,-0.0943282163230014,0.0835765311798474
3.66,-0.0937189534432265,0.0843598457984444
3.662,-0.0931044674370947,0.0851391452016982
3.664,-0.0924847756846441,0.0859144186741042
3.666,-0.0918598949929546,0.0866856553129217
3.668,-0.0912298416710804,0.0874528440669533
3.67,-0.0905946315050117,0.0882159736551776
3.672,-0.089954279772651,0.0889750326152457
3.674,-0.0893088012588206,0.0897300092218321
3.676,-0.0886582102502868,0.090480891534847
3.678,-0.0880025205508103,0.0912276673575057
3.68,-0.0873417454962224,0.0919703242142561
3.682,-0.0866758979895222,0.092708849348566
3.684,-0.0860049904260035,0.0934432297305655
3.686,-0.0853290348184032,0.0941734519945503
3.688,-0.0846480427120814,0.0948995024863393
3.69,-0.0839620252502222,0.095621367200492
3.692,-0.0832709931790679,0.09633903179738
3.694,-0.0825749568131793,0.097052481580117
3.696,-0.0818739261307229,0.0977617014913441
3.698,-0.0811679106987938,0.0984666760998698
3.7,-0.0804569197387605,0.0991673895771666
3.702,-0.0797409621216519,0.09986382570372
3.704,-0.0790200463835656,0.100555967845235
3.706,-0.0782941807411177,0.101243798978693
3.708,-0.0775633730869224,0.101927301598263
3.71,-0.0768276310251063,0.102606457831066
3.712,-0.0760869618768625,0.103281249292791
3.714,-0.0753413726760362,0.103951657183161
3.716,-0.0745908702147537,0.104617662242253
3.718,-0.0738354610190866,0.105279244711665
3.72,-0.0730751514047592,0.105936384372533
3.722,-0.072309947462896,0.106589060514401
3.724,-0.0715398550758115,0.107237251931932
3.726,-0.0707648799228473,0.107880936921477
3.728,-0.0699850275262503,0.108520093265476
3.73,-0.0692003032371024,0.109154698236726
3.732,-0.0684107122512942,0.109784728582475
3.734,-0.0676162596555539,0.110410160527371
3.736,-0.066816950373523,0.11103096975926
3.738,-0.0660127892718875,0.111647131430815
3.74,-0.0652037810865638,0.112258620150021
3.742,-0.0643899304989404,0.112865409976496
3.744,-0.0635712421221805,0.113467474419657
3.746,-0.0627477205175796,0.114064786430726
3.748,-0.0619193702409922,0.114657318400579
3.75,-0.061086195779317,0.115245042157433
3.752,-0.0600640474770486,0.115882033996379
3.754,-0.0590351515329028,0.116509855943746
3.756,-0.0579995801765031,0.117128433884015
3.758,-0.0569574065551489,0.117737694067961
3.76,-0.0559087047106498,0.118337563121142
3.762,-0.0548535495862448,0.118927968060023
3.764,-0.0537920170435936,0.119508836305039
3.766,-0.0527241838698521,0.120080095694293
3.768,-0.0516501277448343,0.120641674498194
3.77,-0.050569927288255,0.121193501431936
3.772,-0.0494836620070677,0.121735505670004
3.774,-0.0483914123428869,0.122267616861929
3.776,-0.0472932596495115,0.122789765142872
3.778,-0.0461892861905383,0.123301881152051
3.78,-0.0450795751570784,0.123803896043997
3.782,-0.0439642106455759,0.124295741504659
3.784,-0.0428432776657272,0.124777349765338
3.786,-0.0417168621585144,0.12524865361446
3.788,-0.040585050944341,0.125709586418191
3.79,-0.0394479318012879,0.12616008212789
3.792,-0.0383055933634817,0.126600075299396
3.794,-0.0371581251995802,0.127029501107159
3.796,-0.0360056177913863,0.127448295356217
3.798,-0.0348481625025781,0.127856394503997
3.8,-0.0336858515875756,0.128253735652979
3.802,-0.0325187782305306,0.128640256597182
3.804,-0.0313470364844558,0.129015895818513
3.806,-0.0301707212804888,0.129380592504944
3.808,-0.0289899284472947,0.12973428655854
3.81,-0.0278047546906165,0.130076918623342
3.812,-0.0266152975929656,0.130408430073084
3.814,-0.025421655603467,0.130728763078766
3.816,-0.0242239280378536,0.131037860546079
3.818,-0.0230222150786182,0.131335666212679
3.82,-0.0218166177353217,0.131622124605314
3.822,-0.0206072379050661,0.131897181066807
3.824,-0.0193941783031314,0.132160781772898
3.826,-0.0181775424737782,0.132412873768939
3.828,-0.0169574348012263,0.132653404936457
3.83,-0.0157339605108015,0.132882324059572
3.832,-0.0145072256002668,0.133099580801281
3.834,-0.0132773369113266,0.133305125719618
3.836,-0.0120444020713207,0.133498910303664
3.838,-0.0108085294951014,0.133680886979451
3.84,-0.00956982839709859,0.133851009115718
3.842,-0.00832840874358279,0.134009231029559
3.844,-0.00708438130511668,0.134155508021942
3.846,-0.00583785755921154,0.134289796383111
3.848,-0.0045889497931784,0.134412053387873
3.85,-0.00333777097718835,0.134522237350769
3.852,-0.00208443485753677,0.13462030759114
3.854,-0.000829055860116255,0.134706224468082
3.856,0.000428250835894629,0.134779949385299
3.858,0.0016873693841329,0.13484144484585
3.86,0.00294818323693004,0.134890674386812
3.862,0.00421057515097749,0.13492760265383
3.864,0.00547442724276271,0.134952195395595
3.866,0.00673962095378631,0.134964419468219
3.868,0.00800603707554981,0.134964242849539
3.87,0.00927355577431373,0.134951634663332
3.872,0.0105420565856261,0.134926565183459
3.874,0.011811418438615,0.134889005827938
3.876,0.0130815196500479,0.13483892920294
3.878,0.0143522379781517,0.134776309086732
3.88,0.0156234505761941,0.134701120443551
3.882,0.0168950340358249,0.134613339467426
3.884,0.0181668644201714,0.134512943545946
3.886,0.0194388172466924,0.134399911293981
3.888,0.0207107674897834,0.134274222567357
3.89,0.021982589633138,0.134135858466497
3.892,0.0232541576718547,0.13398480135002
3.894,0.0245253450842997,0.133821034828317
3.896,0.0257960249037148,0.133644543807091
3.898,0.0270660697195728,0.133455314450888
3.9,0.0283353516386828,0.133253334246602
