"Freq [GHz]","re(S(Antenna1_1_p1,Antenna1_1_p1)) []","im(S(Antenna1_1_p1,Antenna1_1_p1)) []"
3,0.0830247612373872,-0.091784446015587
3.002,0.0821960139175749,-0.0927603407507952
3.004,0.0813548254998189,-0.093727604902127
3.006,0.0805013130006895,-0.0946860664868024
3.008,0.0796355959575011,-0.0956355556730589
3.01,0.0787577963715926,-0.0965759048172221
3.012,0.0778680386672831,-0.0975069484956549
3.014,0.0769664496365281,-0.0984285235435923
3.016,0.0760531583923098,-0.0993404690808672
3.018,0.07512829631479,-0.100242626549528
3.02,0.0741919970062532,-0.101134839737364
3.022,0.0732443962338709,-0.102016954814332
3.024,0.0722856318833131,-0.102888820350904
3.026,0.0713158439052341,-0.103750287353344
3.028,0.0703351742666618,-0.104601209280907
3.03,0.069343766895312,-0.105441442075998
3.032,0.0683417676308583,-0.106270844181274
3.034,0.0673293241761778,-0.107089276567719
3.036,0.0663065860385995,-0.107896602747691
3.038,0.0652737044841779,-0.10869268880097
3.04,0.0642308324830149,-0.109477403387791
3.042,0.0631781246606501,-0.110250617767915
3.044,0.0621157372435446,-0.111012205816711
3.046,0.0610438280096749,-0.11176204404029
3.048,0.05996255623526,-0.112500011586701
3.05,0.0588720826466383,-0.113225990261192
3.052,0.0577725693673153,-0.113939864538562
3.054,0.0566641798651981,-0.114641521569621
3.056,0.0555470789070351,-0.115330851193765
3.058,0.0544214325040758,-0.116007745947686
3.06,0.0532874078629678,-0.116672101072232
3.062,0.0521451733359063,-0.117323814518445
3.064,0.0509948983720479,-0.117962786953768
3.066,0.0498367534672059,-0.118588921767463
3.068,0.0486709101138369,-0.119202125070246
3.07,0.0474975407543338,-0.119802305706152
3.072,0.046316818730634,-0.120389375243655
3.074,0.0451289182401556,-0.120963247984055
3.076,0.0439340142830733,-0.121523840960149
3.078,0.0427322826179383,-0.122071073934208
3.08,0.041523899713658,-0.122604869398271
3.082,0.0403090427048397,-0.123125152569772
3.084,0.0390878893445072,-0.123631851392525
3.086,0.0378606179581979,-0.124124896529076
3.088,0.0366274073994461,-0.12460422135644
3.09,0.0353884370026617,-0.125069761964245
3.092,0.034143886543403,-0.125521457146291
3.094,0.0328939361910579,-0.125959248394547
3.096,0.0316387664669303,-0.126383079890597
3.098,0.0303785581987398,-0.126792898500557
3.1,0.0291134924825359,-0.127188653762474
3.102,0.0278437506370327,-0.127570297883221
3.104,0.026569514163362,-0.127937785720909
3.106,0.0252909647052533,-0.128291074781828
3.108,0.0240082840066343,-0.12863012520493
3.11,0.0227216538726617,-0.128954899750875
3.112,0.0214312561301759,-0.129265363792643
3.114,0.0201372725885852,-0.129561485299741
3.116,0.0188398850006762,-0.129843234826004
3.118,0.0175392750270522,-0.130110585498013
3.12,0.0162356241959978,-0.130363512998146
3.122,0.0149291138676688,-0.130601995551257
3.124,0.0136199251977074,-0.130826013911022
3.126,0.0123057772025795,-0.131043036767943
3.128,0.0109865830948332,-0.13125294530203
3.13,0.00966489734087556,-0.131448203703177
3.132,0.00834090159906724,-0.131628798142231
3.134,0.00701477716913026,-0.131794717224784
3.136,0.00568670496076528,-0.131945951969679
3.138,0.00435686546174032,-0.132082495790252
3.14,0.00302543870718473,-0.132204344475319
3.142,0.00169260424930387,-0.132311496173916
3.144,0.000358541127448345,-0.132403951368803
3.146,-0.000976572160899639,-0.132481712865737
3.148,-0.00231255768935069,-0.132544785765531
3.15,-0.00364923813037228,-0.132593177450898
3.152,-0.00498643678310324,-0.1326268975601
3.154,-0.00632397760059267,-0.132645957970395
3.156,-0.00766168521656407,-0.132650372776307
3.158,-0.00899938497111026,-0.132640158268708
3.16,-0.010336902937124,-0.132615332913739
3.162,-0.0116740659444677,-0.132575917330556
3.164,-0.0130107016053865,-0.132521934271926
3.166,-0.0143466383381715,-0.132453408599669
3.168,-0.015681705391376,-0.132370367267951
3.17,-0.017015732865688,-0.132272839294441
3.172,-0.0183485517386676,-0.132160855745331
3.174,-0.0196799938843493,-0.132034449707229
3.176,-0.0210098920985183,-0.131893656270925
3.178,-0.0223380801154602,-0.131738512502039
3.18,-0.0236643926323945,-0.13156905742655
3.182,-0.0249886653285917,-0.131385332000219
3.184,-0.0263107348851809,-0.131187379090904
3.186,-0.0276304390046508,-0.130975243457765
3.188,-0.0289476164300506,-0.130748971721375
3.19,-0.0302621069608929,-0.130508612346738
3.192,-0.0315737514777635,-0.130254215619199
3.194,-0.0328823919536439,-0.12998583362028
3.196,-0.0341878714739475,-0.129703520206417
3.198,-0.0354900342512764,-0.129407330983615
3.2,-0.0367887256459008,-0.129097323287021
3.202,-0.0380837921779655,-0.12877355615541
3.204,-0.0393750815454276,-0.128436090310603
3.206,-0.0406624426367277,-0.128084988129794
3.208,-0.0419457255492011,-0.127720313629814
3.21,-0.0432247815992268,-0.12734213243631
3.212,-0.0444994633411252,-0.126950511764863
3.214,-0.0457696245747996,-0.126545520398023
3.216,-0.0470351203661314,-0.126127228659282
3.218,-0.048295807053128,-0.125695708391973
3.22,-0.0495515422638261,-0.125251032936106
3.222,-0.0508021849229571,-0.124793277105131
3.224,-0.0520475952703714,-0.124322517160637
3.226,-0.053287634866229,-0.123838830792987
3.228,-0.0545221666069553,-0.123342297093883
3.23,-0.0557510547319666,-0.122832996539871
3.232,-0.0569741648361669,-0.122311010958778
3.234,-0.058191363881217,-0.121776423519086
3.236,-0.0594025202025767,-0.121229318697245
3.238,-0.0606075035183281,-0.120669782258916
3.24,-0.0618061849427717,-0.120097901235159
3.242,-0.0629984369918051,-0.119513763900551
3.244,-0.0641841335890822,-0.118917459749246
3.246,-0.0653631500789538,-0.118309079471967
3.248,-0.0665353632311922,-0.117688714933945
3.25,-0.0677006512494992,-0.117056459152781
3.252,-0.0688728899678007,-0.116413850398262
3.254,-0.0700380065253259,-0.1157591930121
3.256,-0.0711958785534739,-0.115092581675619
3.258,-0.0723463850854671,-0.114414112167376
3.26,-0.0734894065577931,-0.11372388134572
3.262,-0.0746248248184336,-0.113021987124287
3.264,-0.0757525231288817,-0.112308528456441
3.266,-0.0768723861739493,-0.111583605310644
3.268,-0.0779843000593615,-0.110847318653768
3.27,-0.0790881523231399,-0.110099770426354
3.272,-0.0801838319337744,-0.109341063528795
3.274,-0.0812712292991841,-0.108571301796469
3.276,-0.0823502362654656,-0.107790589980814
3.278,-0.0834207461234283,-0.106999033731331
3.28,-0.0844826536129189,-0.106196739572541
3.282,-0.0855358549209315,-0.105383814889875
3.284,-0.0865802476885039,-0.104560367903509
3.286,-0.0876157310124006,-0.103726507655141
3.288,-0.0886422054455793,-0.102882343982707
3.29,-0.089659573002444,-0.10202798750605
3.292,-0.0906677371578796,-0.101163549607522
3.294,-0.0916666028490694,-0.100289142407438
3.296,-0.0926560764790973,-0.0994048787532802
3.298,-0.0936360659153266,-0.0985108721943365
3.3,-0.0946064804935629,-0.0976072369664
3.302,-0.095567231015993,-0.096694087971712
3.304,-0.0965182297539046,-0.0957715407612552
3.306,-0.097459390447181,-0.0948397115161012
3.308,-0.0983906283025724,-0.0938987170288094
3.31,-0.0993118599987436,-0.0929486746856804
3.312,-0.100223003682094,-0.0919897024483664
3.314,-0.101123978966349,-0.0910219188362382
3.316,-0.10201470693493,-0.0900454429080924
3.318,-0.102895110137085,-0.0890603942447581
3.32,-0.103765112588797,-0.0880668929312473
3.322,-0.104624639771455,-0.0870650595394701
3.324,-0.1054736186313,-0.0860550151104142
3.326,-0.106311977576629,-0.0850368811374155
3.328,-0.107139646474768,-0.0840107795483573
3.33,-0.107956556654811,-0.0829768326892623
3.332,-0.10876264090212,-0.0819351633066608
3.334,-0.109557833458587,-0.0808858945314328
3.336,-0.110342070015658,-0.0798291498615337
3.338,-0.11111528771812,-0.0787650531459975
3.34,-0.111877425158642,-0.077693728567927
3.342,-0.112628422373079,-0.0766153006280695
3.344,-0.113368220839532,-0.0755298941305824
3.346,-0.114096763477169,-0.0744376341623901
3.348,-0.114813994638792,-0.0733386460827366
3.35,-0.115519860111175,-0.0722330555048331
3.352,-0.116214307109139,-0.0711209882775101
3.354,-0.116897284271402,-0.0700025704748676
3.356,-0.117568741660163,-0.0688779283769343
3.358,-0.118228630753452,-0.0677471884573357
3.36,-0.118876904442231,-0.0666104773639727
3.362,-0.119513517028243,-0.0654679219077166
3.364,-0.120138424215618,-0.0643196490481205
3.366,-0.12075158310823,-0.0631657858741548
3.368,-0.121352952207806,-0.0620064595939632
3.37,-0.121942491403784,-0.0608417975176493
3.372,-0.12252016197093,-0.0596719270450925
3.374,-0.123085926567699,-0.0584969756517992
3.376,-0.123642802928352,-0.0573117709527892
3.378,-0.124190562264825,-0.0561163104945248
3.38,-0.124726049520354,-0.0549159813718835
3.382,-0.125249228774841,-0.053710914793176
3.384,-0.12576006548099,-0.0525012420692174
3.386,-0.126258526463183,-0.0512870945984518
3.388,-0.126744579912118,-0.050068603855132
3.39,-0.127218195383197,-0.0488459013785639
3.392,-0.127679343791675,-0.0476191187564113
3.394,-0.128127997407561,-0.046388387614071
3.396,-0.128564129852279,-0.0451538396061168
3.398,-0.128987716098084,-0.0439156063978188
3.4,-0.129398732457242,-0.042673819656741
3.402,-0.129797156584967,-0.0414286110404183
3.404,-0.130182967469123,-0.0401801121841195
3.406,-0.130556145427681,-0.0389284546876965
3.408,-0.130916672108951,-0.0376737701055271
3.41,-0.131264530480573,-0.0364161899365482
3.412,-0.131599704826275,-0.0351558456063908
3.414,-0.131922180744402,-0.033892868464613
3.416,-0.132231945141213,-0.0326273897660389
3.418,-0.132528986225956,-0.0313595406642035
3.42,-0.132813293505706,-0.030089452196909
3.422,-0.133084857781987,-0.0288172552798942
3.424,-0.133343671144173,-0.0275430806886215
3.426,-0.133589726965658,-0.0262670590571821
3.428,-0.13382301989782,-0.0249893208563253
3.43,-0.13404354586676,-0.0237099963946132
3.432,-0.13425130206683,-0.0224292157987041
3.434,-0.13444628695295,-0.0211471090067668
3.436,-0.134628500239714,-0.0198638057590308
3.438,-0.13479794289629,-0.0185794355854724
3.44,-0.13495461713611,-0.0172941277966401
3.442,-0.135098526414369,-0.0160080114766244
3.444,-0.135229675426311,-0.014721215467172
3.446,-0.135348070093327,-0.0134338683609466
3.448,-0.135453717566852,-0.0121460984949414
3.45,-0.135546626216078,-0.0108580339360431
3.452,-0.13562680562447,-0.00956980247475329
3.454,-0.135694266586099,-0.00828153161206255
3.456,-0.135749021095792,-0.00699334855648903
3.458,-0.135791082349099,-0.00570538020827552
3.46,-0.135820464733083,-0.00441775315475222
3.462,-0.135837183817938,-0.00313059365886395
3.464,-0.13584125635943,-0.00184402765086633
3.466,-0.135832700285971,-0.000558180722191603
3.468,-0.135811534694429,0.000726821888515082
3.47,-0.135777779846973,0.00201085529818481
3.472,-0.135731457162857,0.00329379499393903
3.474,-0.135672589213552,0.00457551683652811
3.476,-0.135601199717115,0.00585589707159034
3.478,-0.135517313531721,0.00713481233373212
3.48,-0.135420956650633,0.00841213966342712
3.482,-0.135312156195939,0.00968775650373205
3.484,-0.135190940412943,0.0109615407188204
3.486,-0.135057338664527,0.0122333705953298
3.488,-0.1349113814249,0.013503124850524
3.49,-0.134753100274188,0.014770682646269
3.492,-0.134582527892589,0.0160359235878182
3.494,-0.13439969805426,0.0172987277384133
3.496,-0.134204645622118,0.0185589756226902
3.498,-0.13399740654145,0.0198165482388995
3.5,-0.133778017834395,0.0210713270609327
3.502,-0.133536157341805,0.0223339825401582
3.504,-0.133281916103901,0.0235933645910634
3.506,-0.133015337404425,0.0248493490257078
3.508,-0.13273646574138,0.0261018121739778
3.51,-0.132445346821482,0.027350630895654
3.512,-0.132142027555008,0.028595682586278
3.514,-0.131826556051046,0.0298368451938331
3.516,-0.131498981612868,0.0310739972232238
3.518,-0.131159354728399,0.0323070177515659
3.52,-0.130807727072312,0.0335357864372817
3.522,-0.13044415149284,0.034760183529998
3.524,-0.130068682011503,0.0359800898812565
3.526,-0.129681373816766,0.037195386954022
3.528,-0.129282283253619,0.0384059568370064
3.53,-0.128871467825091,0.0396116822487908
3.532,-0.128448986182692,0.0408124465527607
3.534,-0.128014898117791,0.0420081337688466
3.536,-0.127569264562937,0.0431986285770712
3.538,-0.127112147577115,0.0443838163349079
3.54,-0.126643610347947,0.0455635830834435
3.542,-0.126163717179837,0.0467378155593578
3.544,-0.125672533489071,0.0479064012047045
3.546,-0.12517012580086,0.0490692281765085
3.548,-0.12465656173734,0.050226185357176
3.55,-0.124131910016527,0.0513771623667089
3.552,-0.123596240441233,0.0525220495677433
3.554,-0.123049623894937,0.0536607380823888
3.556,-0.122492132337626,0.0547931197958966
3.558,-0.12192383879359,0.0559190873711298
3.56,-0.1213448173472,0.0570385342558585
3.562,-0.120755143138638,0.0581513546968709
3.564,-0.120154892352611,0.0592574437428981
3.566,-0.119544142213032,0.060356697260365
3.568,-0.118922970977681,0.0614490119439543
3.57,-0.118291457928837,0.0625342853199977
3.572,-0.117649683366895,0.0636124157636848
3.574,-0.116997728602959,0.0646833025050994
3.576,-0.116335675950424,0.065746845639075
3.578,-0.115663608718535,0.0668029461348808
3.58,-0.114981611206937,0.0678515058497314
3.582,-0.114289768692214,0.0688924275341234
3.584,-0.113588167425408,0.0699256148410036
3.586,-0.112876894623542,0.070950972340763
3.588,-0.112156038458126,0.0719684055270656
3.59,-0.111425688051656,0.0729778208255052
3.592,-0.110685933465119,0.0739791256070983
3.594,-0.109936865694476,0.0749722281956098
3.596,-0.109178576658162,0.0759570378747132
3.598,-0.10841115919157,0.0769334649039888
3.6,-0.107634707036546,0.0779014205227564
3.602,-0.106849314832871,0.07886081696175
3.604,-0.106055078112764,0.0798115674516279
3.606,-0.105252093287372,0.0807535862353261
3.608,-0.104440457640269,0.0816867885732533
3.61,-0.103620269320967,0.0826110907563241
3.612,-0.102791627329424,0.0835264101128421
3.614,-0.101954631511562,0.0844326650202209
3.616,-0.101109382550793,0.0853297749105552
3.618,-0.100255981955557,0.0862176602860352
3.62,-0.0993945320488619,0.0870962427192084
3.622,-0.0985251359628407,0.0879654448720922
3.624,-0.0976478976263161,0.0888251904991293
3.626,-0.0967629217543744,0.0896754044570004
3.628,-0.0958703138409582,0.0905160127142785
3.63,-0.0949701801444641,0.0913469423619435
3.632,-0.0940626276823603,0.0921681216207395
3.634,-0.0931477642178131,0.0929794798503919
3.636,-0.0922256982483297,0.0937809475576742
3.638,-0.0912965389974194,0.094572456407727
3.64,-0.0903603964052619,0.0953539392302366
3.642,-0.0894173811114018,0.0961253300293615
3.644,-0.0884676044514503,0.0968865639924213
3.646,-0.0875111784398104,0.0976375774982356
3.648,-0.0865482157624168,0.0983783081256223
3.65,-0.0855788297644909,0.0991086946622533
3.652,-0.0846031344353206,0.0998286771128641
3.654,-0.083621244404052,0.100538196707324
3.656,-0.0826332749195042,0.10123719590951
3.658,-0.0816393418440014,0.10192561842506
3.66,-0.0806395616382265,0.102603409209654
3.662,-0.0796340513530947,0.103270514477098
3.664,-0.0786229286106441,0.103926881707204
3.666,-0.0776063115989546,0.104572459653822
3.668,-0.0765843190520804,0.105207198352653
3.67,-0.0755570702450117,0.105831049128578
3.672,-0.074524684974651,0.106443964603846
3.674,-0.0734872835498206,0.107045898705232
3.676,-0.0724449867762868,0.107636806671547
3.678,-0.0713979159448103,0.108216645061106
3.68,-0.0703461928172224,0.108785371758756
3.682,-0.0692899396125222,0.109342945982566
3.684,-0.0682292789940035,0.109889328292565
3.686,-0.0671643340534032,0.11042448059555
3.688,-0.0660952282990814,0.110948366151339
3.69,-0.0650220856412222,0.111460949584492
3.692,-0.0639450303740679,0.11196219688238
3.694,-0.0628641871691793,0.112452075410117
3.696,-0.061779681051723,0.112930553911344
3.698,-0.0606916373927937,0.11339760251587
3.7,-0.0596001818897605,0.113853192746167
3.702,-0.0585054405546519,0.11429729752272
3.704,-0.0574075396955656,0.114729891171235
3.706,-0.0563066059061177,0.115150949424693
3.708,-0.0552027660439224,0.115560449431263
3.71,-0.0540961472201063,0.115958369761066
3.712,-0.0529868767808625,0.116344690405791
3.714,-0.0518750822930362,0.116719392792161
3.716,-0.0507608915247538,0.117082459776253
3.718,-0.0496444324360866,0.117433875656665
3.72,-0.0485258331547592,0.117773626176533
3.722,-0.047405221964896,0.118101698523401
3.724,-0.0462827272888115,0.118418081340932
3.726,-0.0451584776718473,0.118722764726477
3.728,-0.0440326017632503,0.119015740235476
3.73,-0.0429052283001024,0.119297000889726
3.732,-0.0417764860902942,0.119566541175475
3.734,-0.0406465039975539,0.119824357047371
3.736,-0.039515410919523,0.12007044593426
3.738,-0.0383833357758875,0.120304806738815
3.74,-0.0372504074865638,0.120527439841021
3.742,-0.0361167549549404,0.120738347100496
3.744,-0.0349825070521805,0.120937531858657
3.746,-0.0338477925975796,0.121124998938726
3.748,-0.0327127403419922,0.121300754651579
3.75,-0.031577478948317,0.121464806792433
3.752,-0.0304394789450486,0.121601860113379
3.754,-0.0293019756699028,0.121727107318746
3.756,-0.0281651016125031,0.121840570626315
3.758,-0.0270289888981489,0.121942273858361
3.76,-0.0258937692656498,0.122032242442542
3.762,-0.0247595740482448,0.122110503402623
3.764,-0.0236265341495936,0.122177085355039
3.766,-0.0224947800238521,0.122232018505293
3.768,-0.0213644416558343,0.122275334643194
3.77,-0.020235648536255,0.122307067132936
3.772,-0.0191085296450677,0.122327250915004
3.774,-0.0179832134258869,0.122335922489929
3.776,-0.0168598277705115,0.122333119921872
3.778,-0.0157384999915383,0.122318882825051
3.78,-0.0146193568060784,0.122293252357997
3.782,-0.0135025243125759,0.122256271219659
3.784,-0.0123881279727272,0.122207983635338
3.786,-0.0112762925865144,0.12214843535546
3.788,-0.010167142275341,0.122077673640191
3.79,-0.00906080045828793,0.12199574725789
3.792,-0.00795738983448171,0.121902706470396
3.794,-0.00685703236258024,0.121798603026159
3.796,-0.00575984923738625,0.121683490149217
3.798,-0.00466596087157806,0.121557422530997
3.8,-0.00357548687857563,0.121420456318979
3.802,-0.00248854604623058,0.121272649106182
3.804,-0.0014052563223558,0.121114059919513
3.806,-0.000325734792688787,0.120944749208944
3.808,0.000749902338105347,0.12076477883654
3.81,0.00182153976628354,0.120574212064342
3.812,0.00288906310773444,0.120373113541084
3.814,0.00395235891763297,0.120161549289766
3.816,0.00501131470914636,0.119939586697079
3.818,0.00606581897228176,0.119707294497679
3.82,0.00711576119257835,0.119464742760314
3.822,0.00816103186941392,0.119212002876807
3.824,0.00920152253460356,0.118949147545898
3.826,0.0102371257701618,0.118676250759939
3.828,0.0112677352263737,0.118393387788457
3.83,0.0122932456393985,0.118100635166572
3.832,0.0133135528488332,0.117798070674281
3.834,0.0143285538149734,0.117485773326617
3.836,0.0153381466357793,0.117163823354664
3.838,0.0163422305638986,0.116832302189451
3.84,0.0173407060231014,0.116491292447718
3.842,0.0183334746245172,0.116140877912559
3.844,0.0193204391832833,0.115781143515942
3.846,0.0203015037336885,0.115412175326111
3.848,0.0212765735455216,0.115034060524873
3.85,0.0222455551388116,0.114646887392769
3.852,0.0232083562994632,0.11425074529014
3.854,0.0241648860938837,0.113845724638082
3.856,0.0251150548828946,0.113431916902299
3.858,0.0260587743371329,0.11300941457085
3.86,0.02699595745093,0.112578311137812
3.862,0.0279265185559775,0.11213870108483
3.864,0.0288503733317627,0.111690679857595
3.866,0.0297674388237863,0.111234343848219
3.868,0.0306776334535498,0.110769790377539
3.87,0.0315808770313137,0.110297117672332
3.872,0.0324770907676261,0.109816424844459
3.874,0.033366197287615,0.109327811872938
3.876,0.0342481206380479,0.10883137957994
3.878,0.0351227863031517,0.108327229611732
3.88,0.0359901212151941,0.107815464417551
3.882,0.0368500537608249,0.107296187229426
3.884,0.0377025137941714,0.106769502035946
3.886,0.0385474326496924,0.106235513564981
3.888,0.0393847431437834,0.105694327260357
3.89,0.040214379593138,0.105146049260497
3.892,0.0410362778168547,0.10459078637602
3.894,0.0418503751472997,0.104028646064317
3.896,0.0426566104387148,0.103459736412091
3.898,0.0434549240735728,0.102884166109888
3.9,0.0442452579716828,0.102302044428602
3.902,0.0450275555960362,0.101713481199968
