"Freq [GHz]","re(S(Antenna1_1_1,Antenna1_1_1)) []","im(S(Antenna1_1_1,Antenna1_1_1)) []"
5,0.0627994074151618,0.196559739502599
5.0016,0.0639946981071198,0.19555060595259
5.0032,0.0651793876671228,0.194529879759465
5.0048,0.0663533180293516,0.193497678603146
5.0064,0.0675163319624292,0.192454122944806
5.008,0.0686682731296365,0.191399336105619
5.0096,0.0698089861291258,0.19033344427552
5.0112,0.0709383166141369,0.189256576511972
5.0128,0.0720561112732083,0.188168864768739
5.0144,0.0731622180003916,0.187070443934669
5.016,0.0742564858954617,0.185961451792483
5.0176,0.0753387653341304,0.184842029117568
5.0192,0.076408908098256,0.183712319606782
5.0208,0.0774667673960568,0.182572469937263
5.0224,0.0785121979423198,0.181422629735243
5.024,0.0795450560886147,0.18026295163487
5.0256,0.0805651998235032,0.179093591207039
5.0272,0.081572488902753,0.177914707028218
5.0288,0.0825667849195477,0.176726460639296
5.0304,0.0835479513747015,0.175529016534422
5.032,0.0845158537868713,0.174322542188858
5.0336,0.0854703597227714,0.173107208013829
5.0352,0.0864113389273865,0.171883187357393
5.0368,0.0873386634041893,0.170650656488295
5.0384,0.0882522074653542,0.169409794575843
5.04,0.0891518478419766,0.168160783667781
5.0416,0.0900374637842889,0.166903808670164
5.0432,0.0909089371118815,0.165639057317244
5.0448,0.0917661523039206,0.164366720139351
5.0464,0.0926089965993715,0.163086990437789
5.048,0.093437360097219,0.161800064241723
5.0496,0.0942511357966924,0.160506140277078
5.0512,0.0950502197274887,0.159205419919437
5.0528,0.09583451097,0.157898107152945
5.0544,0.0966039118355384,0.156584408523214
5.056,0.0973583278565664,0.155264533087228
5.0576,0.0980976679069258,0.153938692363255
5.0592,0.0988218443020677,0.152607100270761
5.0608,0.0995307728592864,0.151269973076318
5.0624,0.100224372947951,0.149927529329229
5.064,0.100902567619741,0.148579989800537
5.0656,0.101565283678883,0.147227577414712
5.0672,0.102212451702386,0.145870517180065
5.0688,0.102844006180283,0.144509036117277
5.0704,0.103459885565867,0.143143363183014
5.072,0.104060032325935,0.141773729195058
5.0736,0.104644393031031,0.140400366748968
5.0752,0.105212918435682,0.139023510136705
5.0768,0.105765563508655,0.137643395260559
5.0784,0.10630228752319,0.136260259548073
5.08,0.106823054107256,0.134874341857971
5.0816,0.107327831303791,0.133485882388083
5.0832,0.107816591640959,0.132095122584267
5.0848,0.108289312172393,0.130702305037342
5.0864,0.108745974537446,0.129307673388004
5.088,0.109186564991447,0.127911472223758
5.0896,0.109611074475949,0.126513946974833
5.0912,0.11001949867898,0.125115343812111
5.0928,0.110411838015304,0.123715909533047
5.0944,0.110788097726667,0.122315891457584
5.096,0.111148287902054,0.12091553731808
5.0976,0.111492423477948,0.119515095141218
5.0992,0.111820524318579,0.118114813143925
5.1008,0.112127371726183,0.116718355965285
5.1024,0.112413167391259,0.115326271072451
5.104,0.112683256792822,0.113935485557557
5.1056,0.11293769150866,0.112546241674622
5.1072,0.113176528025593,0.111158780968461
5.1088,0.113399827749722,0.109773344063584
5.1104,0.113607656996693,0.108390170613099
5.112,0.113800086981946,0.107009499177609
5.1136,0.113977193820973,0.105631567034113
5.1152,0.114139058509572,0.104256610144893
5.1168,0.114285766904098,0.102884862946406
5.1184,0.114417409701722,0.101516558318176
5.12,0.114534082430678,0.100151927371672
5.1216,0.114635885390517,0.0987911994091936
5.1232,0.114722923652358,0.0974346017227471
5.1248,0.114795307029133,0.0960823595529224
5.1264,0.114853149995842,0.0947346959077621
5.128,0.114896571669794,0.0933918314716324
5.1296,0.114925695810855,0.0920539844740851
5.1312,0.114940650681691,0.0907213705887208
5.1328,0.114941569068012,0.0893942028020442
5.1344,0.114928588198807,0.0880726912823206
5.136,0.11490184969659,0.0867570433184223
5.1376,0.11486149948763,0.0854474631386784
5.1392,0.114807687772187,0.0841441518497136
5.1408,0.114740568934748,0.0828473073152898
5.1424,0.114660301474249,0.0815571240151366
5.144,0.114567047934309,0.0802737929837856
5.1456,0.114460974803451,0.0789975016993928
5.1472,0.114342252495324,0.0777284339325637
5.1488,0.114211055168922,0.076466769705168
5.1504,0.114067560728799,0.0752126851691571
5.152,0.113911950685286,0.0739663524853696
5.1536,0.113744410074694,0.0727279397923391
5.1552,0.113565127349523,0.0714976110350943
5.1568,0.113374294308665,0.0702755259339543
5.1584,0.113172105989604,0.0690618398833234
5.16,0.112958760526606,0.0678567038504759
5.1616,0.112734459089917,0.0666602643443424
5.1632,0.112499405755945,0.0654726632642864
5.1648,0.112253807398445,0.0642940378788815
5.1664,0.111997873576699,0.0631245207346789
5.168,0.111731816419686,0.061964239604977
5.1696,0.111455850507257,0.0608133173885783
5.1712,0.111170192752298,0.0596718720885513
5.1728,0.110875062277889,0.0585400167209794
5.1744,0.110570680298462,0.0574178592837124
5.176,0.110257269987948,0.0563055026851076
5.1776,0.109935056359925,0.0552030446927728
5.1792,0.109604266139759,0.0541105779122981
5.1808,0.109265127630733,0.0530281897159906
5.1824,0.108917870590182,0.0519559622415977
5.184,0.108562726092614,0.0508939723010329
5.1856,0.108199926402824,0.0498422913990916
5.1872,0.107829704839613,0.0488009857021674
5.1888,0.107452295644145,0.0477701159869596
5.1904,0.107067933843653,0.0467497376191822
5.192,0.106676855117629,0.0457399005922625
5.1936,0.10627929566431,0.0447406494360422
5.1952,0.105875492059459,0.0437520232654678
5.1968,0.10546568112768,0.0427740557692842
5.1984,0.105050099802582,0.0418067751687166
5.2,0.104628984992839,0.0408502042561574
5.2016,0.104206878258245,0.0399161507538397
5.2032,0.103780164088758,0.0389926738825163
5.2048,0.103349073857538,0.0380797666101293
5.2064,0.10291383798598,0.0371774166604754
5.208,0.102474685816734,0.0362856065018743
5.2096,0.102031845479727,0.0354043134158248
5.2112,0.101585543768165,0.0345335095156666
5.2128,0.101136006012538,0.0336731618152291
5.2144,0.100683455950612,0.0328232322374872
5.216,0.100228115608412,0.0319836777032047
5.2176,0.099770205173201,0.0311544501495826
5.2192,0.0993099428794469,0.0303354966188966
5.2208,0.0988475448847845,0.0295267593071399
5.2224,0.0983832251489662,0.0287281755826557
5.224,0.097917195346806,0.0279396781347732
5.2256,0.0974496646931144,0.0271611949724356
5.2272,0.0969808399226247,0.0263926495228306
5.2288,0.0965109250799108,0.0256339607200136
5.2304,0.0960401214992957,0.0248850430535337
5.232,0.0955686276647518,0.024145806657052
5.2336,0.0950966390897913,0.0234161573969637
5.2352,0.0946243482573487,0.0226959969810115
5.2368,0.094151944499653,0.0219852229769048
5.2384,0.0936796139180915,0.0212837289909284
5.24,0.0932075392530642,0.0205914046765583
5.2416,0.0927358998838282,0.0199081358930688
5.2432,0.0922648716283335,0.0192338047841428
5.2448,0.091794626773049,0.0185682898364773
5.2464,0.0913253339027791,0.0179114660483914
5.248,0.0908571578804696,0.0172632049884286
5.2496,0.090390259767006,0.0166233748939641
5.2512,0.089924796711,0.015991840819803
5.2528,0.0894609219485676,0.0153684646967869
5.2544,0.0889987846830966,0.014753105460394
5.256,0.0885385300450043,0.0141456191893377
5.2576,0.0880802990514858,0.0135458591641714
5.2592,0.0876242285062515,0.012953676015885
5.2608,0.0871704510192553,0.012368917834508
5.2624,0.0867190948764121,0.0117914302777075
5.264,0.0862702840893057,0.0112210566693908
5.2656,0.0858241382548862,0.010657638168303
5.2672,0.0853807726051572,0.0101010138266312
5.2688,0.0849402979168533,0.00955102072860287
5.2704,0.084502820501107,0.00900749412909089
5.272,0.0840684421931045,0.00847026754221345
5.2736,0.0836372602817332,0.00793917285994047
5.2752,0.0832093675392166,0.0074140404906961
5.2768,0.0827848521807413,0.00689469946796734
5.2784,0.0823637978440708,0.00638097755890799
5.28,0.0819462835991516,0.00587270141395066
5.2816,0.0815323839177073,0.00536969662641448
5.2832,0.0811221686928232,0.00487178790311973
5.2848,0.0807157032185198,0.00437879915899845
5.2864,0.0803130481893164,0.0038905536327137
5.288,0.0799142597397842,0.00340687400627491
5.2896,0.0795193894140892,0.00292758251566063
5.2912,0.0791284841955239,0.00245250106743792
5.2928,0.0787415864960306,0.0019814513473916
5.2944,0.0783587342457111,0.00151425493814798
5.296,0.0779799608023299,0.00105073342180963
5.2976,0.0776052950908036,0.000590708494585077
5.2992,0.0772347615226829,0.00013400207242946
5.3008,0.0768739959856218,-0.000320377503319205
5.3024,0.0765229518928387,-0.000772925846293796
5.304,0.0761759936625655,-0.0012231091814524
5.3056,0.0758331160574876,-0.0016711000634291
5.3072,0.0754943096741738,-0.00211706999387665
5.3088,0.0751595610024946,-0.00256118932251202
5.3104,0.0748288524750328,-0.00300362715765102
5.312,0.0745021625164816,-0.0034445512786145
5.3136,0.0741794656030349,-0.00388412804660536
5.3152,0.0738607323117653,-0.00432252232023608
5.3168,0.0735459293899944,-0.00475989737394669
5.3184,0.0732350198446516,-0.00519641481347232
5.32,0.0729279629216244,-0.00563223450458247
5.3216,0.0726247142550971,-0.00606751448798907
5.3232,0.0723252259068827,-0.00650241091564387
5.3248,0.0720294464057413,-0.00693707797003847
5.3264,0.071737320866693,-0.00737166780249046
5.328,0.0714487910003174,-0.00780633046143166
5.3296,0.0711637952320476,-0.00824121383368392
5.3312,0.0708822687614505,-0.008676463575737
5.3328,0.070604143641502,-0.00911222306201174
5.3344,0.0703293488178495,-0.00954863332312569
5.336,0.0700578102380678,-0.00998583299414599
5.3376,0.0697894509209041,-0.0104239582618411
5.3392,0.0695241910455155,-0.0108631428129221
5.3408,0.0692619479806956,-0.0113035177922819
5.3424,0.0690026364040949,-0.011745211754223
5.344,0.0687461683714299,-0.0121883506246837
5.3456,0.0684924534056854,-0.0126330576524524
5.3472,0.0682413985263068,-0.0130794533953812
5.3488,0.0679929083783857,-0.0135276556425848
5.3504,0.0677468853118345,-0.0139777794256414
5.352,0.0675032294005557,-0.0144299369727775
5.3536,0.067261838611601,-0.0148842376700518
5.3552,0.0670226087743226,-0.0153407880525293
5.3568,0.0667854337595173,-0.0157996917654481
5.3584,0.0665502055085617,-0.016261049575379
5.36,0.0663168140825412,-0.0167249592913756
5.3616,0.0660851478113687,-0.0171915158161216
5.3632,0.0658550932928991,-0.0176608110770631
5.3648,0.0656265355420333,-0.0181329340575403
5.3664,0.0653993579898169,-0.018607970757905
5.368,0.0651734426125307,-0.0190860041866348
5.3696,0.0649486700007747,-0.0195671143614357
5.3712,0.0647249193985442,-0.0200513783303395
5.3728,0.064502068792301,-0.0205388701227887
5.3744,0.0642799950000344,-0.0210296607707189
5.376,0.0640585737103202,-0.0215238183096264
5.3776,0.0638376795913687,-0.0220214077796328
5.3792,0.0636171863000697,-0.0225224912265363
5.3808,0.0633969666010292,-0.0230271277328584
5.3824,0.0631768924156011,-0.0235353733688788
5.384,0.0629568348609125,-0.0240472812536636
5.3856,0.0627366643588835,-0.0245629015360827
5.3872,0.0625162506652399,-0.0250822814158214
5.3888,0.0622954629485233,-0.0256054651743785
5.3904,0.0620741698190916,-0.0261324941360607
5.392,0.0618522394381191,-0.0266634067389621
5.3936,0.0616295395165855,-0.0271982385259415
5.3952,0.0614059374142667,-0.0277370221455831
5.3968,0.0611813001887138,-0.0282797874131551
5.3984,0.0609554946342335,-0.0288265612715522
5.4,0.0607283873108582,-0.0293773678722362
5.4016,0.0605005143233171,-0.0299453026361602
5.4032,0.0602705985799978,-0.0305172895746897
5.4048,0.0600385088179086,-0.0310933318705083
5.4064,0.0598041140366321,-0.0316734300985199
5.408,0.0595672835552774,-0.0322575822867384
5.4096,0.0593278870364291,-0.0328457838971675
5.4112,0.0590857945290914,-0.0334380278766718
5.4128,0.0588408764976278,-0.0340343046678406
5.4144,0.0585930038616997,-0.0346346022898386
5.416,0.0583420480221996,-0.0352389062792503
5.4176,0.0580878808971845,-0.0358471998209114
5.4192,0.0578303749478012,-0.0364594636587355
5.4208,0.0575694032092129,-0.0370756762465279
5.4224,0.0573048393165219,-0.0376958136687906
5.424,0.0570365575296917,-0.0383198497515163
5.4256,0.0567644327634605,-0.0389477560129794
5.4272,0.0564883406052605,-0.0395795017445087
5.4288,0.0562081573411299,-0.0402150540412566
5.4304,0.055923759980626,-0.0408543777829565
5.432,0.0556350262707312,-0.0414974356746731
5.4336,0.0553418347227659,-0.0421441882975402
5.4352,0.05504406462929,-0.0427945941194925
5.4368,0.0547415960832138,-0.0434486094959835
5.4384,0.0544343099937962,-0.0441061887207004
5.44,0.0541220881066511,-0.0447672840362644
5.4416,0.0538048130184469,-0.045431845654925
5.4432,0.0534823681938103,-0.0460998217892419
5.4448,0.0531546379795239,-0.0467711586527621
5.4464,0.052821507623326,-0.0474458005006851
5.448,0.052482863280211,-0.0481236896505192
5.4496,0.0521385920385293,-0.048804766462728
5.4512,0.0517885819208831,-0.0494889694213721
5.4528,0.0514327219070263,-0.0501762350947378
5.4544,0.0510709019447656,-0.0508664981559562
5.456,0.050703012960856,-0.0515596914536191
5.4576,0.0503289468749017,-0.0522557459723804
5.4592,0.0499485966132565,-0.0529545908435522
5.4608,0.0495618561219249,-0.0536561533956895
5.4624,0.0491686203784612,-0.0543603591551708
5.464,0.0487687854058713,-0.0550671318467671
5.4656,0.0483622482815188,-0.0557763933942013
5.4672,0.0479489071590275,-0.0564880639807026
5.4688,0.0475286612711853,-0.0572020619995518
5.4704,0.047101410951852,-0.0579183040946176
5.472,0.0466670576468678,-0.0586367051908848
5.4736,0.046225503924964,-0.0593571784449747
5.4752,0.045776653497671,-0.0600796352956596
5.4768,0.0453204112282342,-0.060803985474367
5.4784,0.0448566831655273,-0.0615301369856773
5.48,0.0443853765149722,-0.0622579961478129
5.4816,0.0439063997224536,-0.0629874675631224
5.4832,0.0434196624232446,-0.0637184541385545
5.4848,0.0429250755009261,-0.0644508570961265
5.4864,0.0424225510963185,-0.065184576003384
5.488,0.0419120026264041,-0.065919508713856
5.4896,0.0413933447932618,-0.066655551437501
5.4912,0.0408664936129994,-0.067392598691147
5.4928,0.0403313664446922,-0.068130543358924
5.4944,0.0397878819993202,-0.0688692766626919
5.496,0.0392359603587105,-0.0696086881524601
5.4976,0.0386755230144841,-0.0703486657668011
5.4992,0.0381064928670046,-0.0710890957632576
5.5008,0.0375287942743279,-0.0718298627987453
5.5024,0.0369423530711583,-0.0725708498899476
5.504,0.0363470965878083,-0.0733119384137041
5.5056,0.0357429536791584,-0.0740530081473962
5.5072,0.0351298547436219,-0.0747939372493248
5.5088,0.0345077317721154,-0.0755346022690827
5.5104,0.0338765183570314,-0.0762748781579213
5.512,0.0332361497412122,-0.0770146382891148
5.5136,0.0325865628269313,-0.0777537544283155
5.5152,0.0319276962148761,-0.0784920967839073
5.5168,0.0312594902431379,-0.0792295340073513
5.5184,0.0305818870161986,-0.0799659331735308
5.52,0.0298948304339303,-0.0807011598310879
5.5216,0.0291982662205908,-0.0814350779927581
5.5232,0.0284921419638318,-0.082167550145699
5.5248,0.0277764071737008,-0.0828984372718171
5.5264,0.0270510132716557,-0.0836275988680886
5.528,0.0263159136695788,-0.0843548929368775
5.5296,0.025571063778799,-0.0850801760362489
5.5312,0.0248164210591118,-0.0858033032702812
5.5328,0.0240519450478113,-0.0865241283343717
5.5344,0.0232775974187182,-0.0872425034885426
5.536,0.0224933419912219,-0.0879582796257398
5.5376,0.0216991447793162,-0.0886713062691329
5.5392,0.0208949740606466,-0.0893814316014102
5.5408,0.0200808003555588,-0.0900885024850713
5.5424,0.0192565965361546,-0.0907923644917168
5.544,0.018422337795347,-0.091492861928338
5.5456,0.0175780017559227,-0.0921898378606021
5.5472,0.0167235684296098,-0.0928831341491362
5.5488,0.0158590203561488,-0.0935725914758092
5.5504,0.0149843425623655,-0.0942580493760133
5.552,0.0140995226212511,-0.0949393462749431
5.5536,0.0132045507110472,-0.0956163195198715
5.5552,0.0122994196543315,-0.0962888054164291
5.5568,0.0113841249171089,-0.0969566392698775
5.5584,0.0104586646879085,-0.0976196554193855
5.56,0.0095230399168859,-0.0982776872843014
5.5616,0.00857725433492259,-0.0989305674014285
5.5632,0.00762131447273704,-0.0995781274732963
5.5648,0.00665522974999519,-0.100220198408435
5.5664,0.00567901246442964,-0.100856610373045
5.568,0.00469267786095489,-0.101487192836475
5.5696,0.00369624413079377,-0.102111774620789
5.5712,0.00268973248060446,-0.102730183952745
5.5728,0.00167316714161399,-0.103342248516066
5.5744,0.00064657540874748,-0.103947795505313
5.576,-0.000390012310228109,-0.104546651680465
5.5776,-0.00143656251556524,-0.105138643424892
5.5792,-0.00249303851638615,-0.105723596804433
5.5808,-0.00355940047153983,-0.106301337623678
5.5824,-0.0046356053104468,-0.106871691488244
5.584,-0.00572160672394359,-0.107434483868058
5.5856,-0.00681735516512435,-0.107989540159642
5.5872,-0.00792279780018119,-0.108536685749401
5.5888,-0.00903787847923845,-0.109075746080904
5.5904,-0.0101625377571866,-0.109606546721178
5.592,-0.0112967128245099,-0.110128913431003
5.5936,-0.0124403375181171,-0.110642672227199
5.5952,-0.0135933423321656,-0.111147649460931
5.5968,-0.014755654338883,-0.111643671882003
5.5984,-0.0159271972393876,-0.112130566715164
5.6,-0.0171078913345081,-0.112608161731415
5.6016,-0.0183068882655992,-0.113070639349314
5.6032,-0.0195146808253539,-0.113523157038291
5.6048,-0.0207311706986185,-0.113965548648964
5.6064,-0.0219562561832032,-0.114397649086459
5.608,-0.0231898322006916,-0.114819294403727
5.6096,-0.0244317903372449,-0.115230321854881
5.6112,-0.0256820187844144,-0.115630569988516
5.6128,-0.0269404024299445,-0.116019878724053
5.6144,-0.028206822808578,-0.116398089432071
5.616,-0.0294811581328565,-0.116765044994653
5.6176,-0.0307632833639305,-0.117120589905734
5.6192,-0.0320530701423582,-0.117464570361453
5.6208,-0.0333503868989085,-0.117796834290507
5.6224,-0.0346550988253631,-0.118117231464516
5.624,-0.0359670679153213,-0.118425613578388
5.6256,-0.0372861529950011,-0.118721834330689
5.6272,-0.0386122097740433,-0.119005749454019
5.6288,-0.039945090846313,-0.119277216855395
5.6304,-0.0412846457507084,-0.119536096656637
5.632,-0.0426307209819623,-0.119782251254758
5.6336,-0.0439831600814524,-0.120015545452362
5.6352,-0.0453418036280043,-0.12023584645805
5.6368,-0.0467064893087065,-0.120443023996822
5.6384,-0.0480770519597184,-0.120636950410493
5.64,-0.049453323627085,-0.120817500658116
5.6416,-0.0508351335875495,-0.120984552446403
5.6432,-0.0522223084293747,-0.121137986260156
5.6448,-0.053614672113161,-0.121277685442708
5.6464,-0.0550120459926699,-0.121403536276359
5.648,-0.0564142489056473,-0.121515428002833
5.6496,-0.0578210972146578,-0.121613252943725
5.6512,-0.0592324048879137,-0.121696906500968
5.6528,-0.0606479835501099,-0.121766287277297
5.6544,-0.0620676425532665,-0.121821297086723
5.656,-0.0634911890475723,-0.121861841015012
5.6576,-0.0649184280222338,-0.121887827520173
5.6592,-0.0663491624163234,-0.121899168402946
5.6608,-0.0677831931796432,-0.121895778957304
5.6624,-0.0692203193255851,-0.121877577930957
5.664,-0.0706603380239988,-0.121844487635861
5.6656,-0.0721030446730619,-0.121796433938738
5.6672,-0.0735482329781653,-0.121733346351598
5.6688,-0.074995695026794,-0.121655158052269
5.6704,-0.0764452213714204,-0.121561805924934
5.672,-0.0778966011073981,-0.121453230600674
5.6736,-0.079349621956872,-0.121329376468017
5.6752,-0.0808040703506862,-0.121190191763494
5.6768,-0.0822597315093044,-0.121035628522196
5.6784,-0.0837163895337331,-0.120865642678351
5.68,-0.0851738274804593,-0.12068019406589
5.6816,-0.0866318274563907,-0.120479246409029
5.6832,-0.0880901707008052,-0.120262767402861
5.6848,-0.0895486376703096,-0.120030728693941
5.6864,-0.0910070081298084,-0.119783105890889
5.688,-0.0924650612364791,-0.119519878624995
5.6896,-0.093922575631759,-0.119241030500827
5.6912,-0.0953793295243377,-0.11894654916685
5.6928,-0.0968351007801667,-0.118636426266047
5.6944,-0.0982896670126709,-0.118310657486547
5.696,-0.0997428056677772,-0.117969242542257
5.6976,-0.101194294114046,-0.117612185183507
5.6992,-0.102643909729826,-0.117239493197688
5.7008,-0.104091429991305,-0.116851178369902
5.7024,-0.105536632559384,-0.116447256533625
5.704,-0.106979295367256,-0.116027747521357
5.7056,-0.108419196706405,-0.115592675185295
5.7072,-0.109856115315104,-0.115142067337997
