"Freq [GHz]","re(S(Antenna1_1_1,Antenna1_1_1)) []","im(S(Antenna1_1_1,Antenna1_1_1)) []"
5,0.0456924428834518,0.173523150792599
5.0016,0.0464308964658198,0.17283885240759
5.0032,0.0471642650140228,0.172151935886465
5.0048,0.0478925664031516,0.171462445771146
5.0064,0.0486158191257292,0.170770425957806
5.008,0.0493340422859365,0.170075919681619
5.0096,0.0500472555933258,0.16937896950752
5.0112,0.0507554793557369,0.168679617317972
5.0128,0.0514587344731083,0.167977904296739
5.0144,0.0521570424293916,0.167273870917669
5.016,0.0528504252864617,0.166567556929483
5.0176,0.0535389056741303,0.165859001343568
5.0192,0.054222506784256,0.165148242418782
5.0208,0.0549012523600568,0.164435317643263
5.0224,0.0555751666873198,0.163720263725243
5.024,0.0562442745846147,0.16300311657387
5.0256,0.0569086013945032,0.162283911282039
5.0272,0.057568172971753,0.161562682118218
5.0288,0.0582230156695477,0.160839462499296
5.0304,0.0588731563327015,0.160114284984422
5.032,0.0595186222798713,0.159387181252858
5.0336,0.0601594412947714,0.158658182087829
5.0352,0.0607956416063865,0.157927317362393
5.0368,0.0614272518821893,0.157194616020295
5.0384,0.0620543012063542,0.156460106059843
5.04,0.0626768190659766,0.155723814517781
5.0416,0.0632948353342889,0.154985767450164
5.0432,0.0639083802518815,0.154245989918244
5.0448,0.0645174844119206,0.153504505968351
5.0464,0.0651221787343715,0.152761338618789
5.048,0.065722494452219,0.152016509840723
5.0496,0.0663184630866924,0.151270040541078
5.0512,0.0669101164264887,0.150521950549437
5.0528,0.067497486508,0.149772258599945
5.0544,0.0680806055855384,0.149020982313214
5.056,0.0686595061115664,0.148268138186228
5.0576,0.0692342207119258,0.147513741572255
5.0592,0.0698047821560677,0.146757806670761
5.0608,0.0703712233332864,0.146000346508318
5.0624,0.0709335772219507,0.145241372929529
5.064,0.0714918768627407,0.144480896578937
5.0656,0.0720461553308825,0.143718926893952
5.0672,0.0725964456993859,0.142955472088765
5.0688,0.0731427810132826,0.142190539143277
5.0704,0.0736851942548669,0.141424133796014
5.072,0.0742237183129355,0.140656260529058
5.0736,0.0747583859440305,0.139886922563968
5.0752,0.0752892297426825,0.139116121851705
5.0768,0.0758162821046551,0.138343859061559
5.0784,0.0763395751881903,0.137570133582073
5.08,0.0768591408812557,0.136794943509971
5.0816,0.0773750107587913,0.136018285647083
5.0832,0.0778872160499594,0.135240155499267
5.0848,0.0783957875933928,0.134460547270342
5.0864,0.0789007558034462,0.133679453866004
5.088,0.0794021506244471,0.132896866886758
5.0896,0.0799000014939485,0.132112776637833
5.0912,0.0803943372979803,0.131327172123111
5.0928,0.0808851863343042,0.130540041058047
5.0944,0.0813725762646667,0.129751369865584
5.096,0.0818565340760544,0.12896114369008
5.0976,0.0823370860339481,0.128169346400218
5.0992,0.0828142576465789,0.127375960600925
5.1008,0.0832898166611832,0.126580674424285
5.1024,0.0837637744142593,0.125783360938451
5.104,0.0842344030648221,0.124984256704457
5.1056,0.0847017203306605,0.124183339649322
5.1072,0.0851657429425929,0.123380586613361
5.1088,0.0856264865977222,0.122575973368984
5.1104,0.0860839659246933,0.121769474640799
5.112,0.0865381944349464,0.120961064128909
5.1136,0.0869891844859735,0.120150714531863
5.1152,0.0874369472375716,0.119338397572693
5.1168,0.0878814926150981,0.118524084025906
5.1184,0.088322829263722,0.117707743746076
5.12,0.0887609645146783,0.116889345698272
5.1216,0.0891959043395174,0.116068857989894
5.1232,0.0896276533183577,0.115246247904147
5.1248,0.090056214598133,0.114421481935322
5.1264,0.0904815898538419,0.113594525825762
5.128,0.0909037792567938,0.112765344602632
5.1296,0.091322781436855,0.111933902620085
5.1312,0.0917385934456913,0.111100163598721
5.1328,0.0921512107270118,0.110264090669044
5.1344,0.0925606270838071,0.109425646417321
5.136,0.09296683464459,0.108584792928422
5.1376,0.0933698238326295,0.107741491835678
5.1392,0.0937695833431872,0.106895704369714
5.1408,0.0941661001077477,0.10604739140329
5.1424,0.094559359275249,0.105196513513137
5.144,0.0949493441823091,0.104343031021786
5.1456,0.0953360363314511,0.103486904057393
5.1472,0.0957194153733237,0.102628092609564
5.1488,0.0960994590779216,0.101766556583168
5.1504,0.0964761433267995,0.100902255854157
5.152,0.0968494420862865,0.10003515033337
5.1536,0.0972193274036941,0.0991652000233391
5.1552,0.097585769381523,0.0982923650790943
5.1568,0.0979487361776655,0.0974166058659543
5.1584,0.0983081939906038,0.0965378830303234
5.16,0.0986641070526062,0.0956561575534759
5.1616,0.0990164376229171,0.0947713908213424
5.1632,0.0993651459909451,0.0938835446872864
5.1648,0.0997101904674453,0.0929925815368814
5.1664,0.100051527389699,0.0920984643516789
5.168,0.100389111123686,0.091201156778977
5.1696,0.100722894068257,0.0903006231955783
5.1712,0.101052826667298,0.0893968287735512
5.1728,0.101378857410889,0.0884897395499794
5.1744,0.101700932856462,0.0875793224897124
5.176,0.102018997635948,0.0866655455591076
5.1776,0.102332994478925,0.0857483777837728
5.1792,0.102642864222759,0.0848277893232981
5.1808,0.102948545841733,0.0839037515339906
5.1824,0.103249976468182,0.0829762370375977
5.184,0.103547091415614,0.0820452197830329
5.1856,0.103839824207824,0.0811106751180916
5.1872,0.104128106612013,0.0801725798491674
5.1888,0.104411868669885,0.0792309123089596
5.1904,0.104691038728753,0.0782856524171822
5.192,0.104965543484629,0.0773367817492625
5.1936,0.10523530802131,0.0763842835910422
5.1952,0.105500255844459,0.0754281430044678
5.1968,0.10576030893668,0.0744683468892842
5.1984,0.106015387795582,0.0735048840367166
5.2,0.106265411484839,0.0725377451911574
5.2016,0.106509977150245,0.0715632554698397
5.2032,0.106749164349758,0.0705850824735163
5.2048,0.106982887754538,0.0696032282971293
5.2064,0.10721106096998,0.0686176972474754
5.208,0.107433596595734,0.0676284958898743
5.2096,0.107650406289727,0.0666356330948248
5.2112,0.107861400831165,0.0656391200756666
5.2128,0.108066490191938,0.0646389704352291
5.2144,0.108265583599212,0.0636352002014872
5.216,0.108458589609012,0.0626278278642047
5.2176,0.108645416176201,0.0616168744085826
5.2192,0.108825970727347,0.0606023633498966
5.2208,0.109000160235284,0.0595843207621399
5.2224,0.109167891294076,0.0585627753066557
5.224,0.109329070195906,0.0575377582537732
5.2256,0.109483603008714,0.0565093035104356
5.2272,0.109631395655325,0.0554774476398306
5.2288,0.109772353992811,0.0544422298750136
5.2304,0.109906383893496,0.0534036921375337
5.232,0.110033391325952,0.052361879052052
5.2336,0.110153282437791,0.0513168379519637
5.2352,0.110265963637349,0.0502686188890115
5.2368,0.110371341679653,0.0492172746379048
5.2384,0.110469323745092,0.0481628606979284
5.24,0.110559817529064,0.0471054352935583
5.2416,0.110642731320828,0.0460450593660688
5.2432,0.110717974094333,0.0449817965751428
5.2448,0.110785455586049,0.0439157132814773
5.2464,0.110845086383779,0.0428468785413914
5.248,0.11089677800647,0.0417753640864286
5.2496,0.110940442995006,0.0407012443119641
5.2512,0.110975994989,0.039624596249803
5.2528,0.111003348812568,0.0385454995517869
5.2544,0.111022420559097,0.037464036458394
5.256,0.111033127668004,0.0363802917733377
5.2576,0.111035389009486,0.0352943528311714
5.2592,0.111029124967251,0.034206309462885
5.2608,0.111014257509255,0.033116253957508
5.2624,0.110990710277412,0.0320242810267075
5.264,0.110958408652306,0.0309304877573908
5.2656,0.110917279841886,0.029834973570303
5.2672,0.110867252945157,0.0287378401706312
5.2688,0.110808259030853,0.0276391915006029
5.2704,0.110740231209107,0.0265391336830909
5.272,0.110663104700104,0.0254377749712135
5.2736,0.110576816900733,0.0243352256859405
5.2752,0.110481307456217,0.0232315981616961
5.2768,0.110376518318741,0.0221270066809673
5.2784,0.110262393816071,0.021021567410908
5.28,0.110138880706152,0.0199153983389507
5.2816,0.110005928240707,0.0188086192014145
5.2832,0.109863488219823,0.0177013514161197
5.2848,0.10971151504552,0.0165937180079984
5.2864,0.109549965775316,0.0154858435367137
5.288,0.109378800168784,0.0143778540192749
5.2896,0.109197980740089,0.0132698768536606
5.2912,0.109007472794524,0.0121620407394379
5.2928,0.108807244478031,0.0110544755973916
5.2944,0.108597266812711,0.00994731248614798
5.296,0.10837751373433,0.00884068351980963
5.2976,0.108147962125804,0.00773472178558508
5.2992,0.107908591850683,0.00662956125142946
5.3008,0.107657675996622,0.00552551876968079
5.3024,0.107395213874839,0.0044228478607062
5.304,0.107122913514566,0.0033215414825476
5.3056,0.106840772730488,0.0022217356015709
5.3072,0.106548792420174,0.00112356642312335
5.3088,0.106246976569495,2.71702981879838E-05
5.3104,0.105935332258033,-0.00106731636595102
5.312,0.105613869657482,-0.0021597571980445
5.3136,0.105282602029035,-0.00325001595320536
5.3152,0.104941545721765,-0.00433795660323608
5.3168,0.104590720157994,-0.00542344343084669
5.3184,0.104230147827652,-0.00650634111427232
5.32,0.103859854269624,-0.00758651482248247
5.3216,0.103479868056097,-0.00866383030188907
5.3232,0.103090220770883,-0.00973815396554387
5.3248,0.102690946988741,-0.0108093529810385
5.3264,0.102282084245693,-0.0118772953576405
5.328,0.101863673013317,-0.0129418500319717
5.3296,0.101435756662048,-0.0140028869531839
5.3312,0.10099838143345,-0.015060277166737
5.3328,0.100551596396502,-0.0161138928966117
5.3344,0.100095453409849,-0.0171636076267257
5.336,0.0996300070810678,-0.018209296180146
5.3376,0.0991553147179041,-0.0192508347976411
5.3392,0.0986714362835155,-0.0202881012139221
5.3408,0.0981784343426956,-0.0213209747312819
5.3424,0.0976763740140949,-0.022349336295223
5.344,0.0971653229104299,-0.0233730685616837
5.3456,0.0966453510846854,-0.0243920559684524
5.3472,0.0961165309673068,-0.0254061848023812
5.3488,0.0955789373113857,-0.0264153432635848
5.3504,0.0950326471208345,-0.0274194215256414
5.352,0.0944777395895557,-0.0284183117997775
5.3536,0.093914296035601,-0.0294119083910518
5.3552,0.0933423998273226,-0.0304001077535293
5.3568,0.0927621363175173,-0.0313828085444481
5.3584,0.0921735927685617,-0.032359911672379
5.36,0.0915768582775412,-0.0333313203503756
5.3616,0.0909720237043687,-0.0342969401361216
5.3632,0.0903591815948991,-0.0352566789780631
5.3648,0.0897384260980333,-0.0362104472525403
5.3664,0.0891098528958169,-0.037158157803905
5.368,0.0884735591135307,-0.0380997259806348
5.3696,0.0878296432477747,-0.0390350696604357
5.3712,0.0871782050805442,-0.0399641092873395
5.3728,0.086519345598301,-0.0408867678907887
5.3744,0.0858531669060344,-0.0418029711167189
5.376,0.0851797721513202,-0.0427126472386264
5.3776,0.0844992654313687,-0.0436157271846329
5.3792,0.0838117517160697,-0.0445121445455363
5.3808,0.0831173367620292,-0.0454018355878584
5.3824,0.082416127024601,-0.0462847392648787
5.384,0.0817082295809125,-0.0471607972226636
5.3856,0.0809937520398835,-0.0480299538000827
5.3872,0.0802728024582399,-0.0488921560328214
5.3888,0.0795454892615233,-0.0497473536463785
5.3904,0.0788119211580916,-0.0505954990560607
5.392,0.0780722070551191,-0.0514365473559621
5.3936,0.0773264559805855,-0.0522704563069415
5.3952,0.0765747769992667,-0.0530971863255831
5.3968,0.0758172791327138,-0.0539167004641551
5.3984,0.0750540712792335,-0.0547289643975522
5.4,0.0742852621388582,-0.0555339463952362
5.4016,0.0735124984273171,-0.0563277078841602
5.4032,0.0727345308359978,-0.0571142286846897
5.4048,0.0719514624629086,-0.0578934915035083
5.4064,0.0711633956536321,-0.0586654813405199
5.408,0.0703704319372774,-0.0594301854457384
5.4096,0.0695726719664291,-0.0601875932731675
5.4112,0.0687702154540914,-0.0609376964336718
5.4128,0.0679631611166278,-0.0616804886488406
5.4144,0.0671516066166997,-0.0624159656938386
5.416,0.0663356485131996,-0.0631441253502503
5.4176,0.0655153822021845,-0.0638649673499114
5.4192,0.0646909018718012,-0.0645784933187355
5.4208,0.0638623004562129,-0.0652847067235279
5.4224,0.0630296695872219,-0.0659836128057906
5.424,0.0621930995526917,-0.0666752185315163
5.4256,0.0613526792567605,-0.0673595325239794
5.4272,0.0605084961818605,-0.0680365650055087
5.4288,0.0596606363526299,-0.0687063277332566
5.4304,0.058809184303826,-0.0693688339349565
5.432,0.0579542230489312,-0.0700240982476731
5.4336,0.0570958340530659,-0.0706721366515402
5.4352,0.05623409720689,-0.0713129664014925
5.4368,0.0553690908040538,-0.0719466059679835
5.4384,0.0545008915204862,-0.0725730749647004
5.44,0.0536295743968511,-0.0731923940842644
5.4416,0.0527552128229469,-0.073804585033925
5.4432,0.0518778785252103,-0.0744096704632419
5.4448,0.0509976415560239,-0.0750076739057621
5.4464,0.050114570286026,-0.0755986197036851
5.448,0.049228731399011,-0.0761825329485192
5.4496,0.0483401898887293,-0.076759439410728
5.4512,0.0474490090586831,-0.0773293654773722
5.4528,0.0465552505240263,-0.0778923380827378
5.4544,0.0456589742157656,-0.0784483846489562
5.456,0.044760238386856,-0.0789975330206191
5.4576,0.0438590996239017,-0.0795398113973804
5.4592,0.0429556128542565,-0.0800752482775522
5.4608,0.0420498313629249,-0.0806038723946895
5.4624,0.0411418068044612,-0.0811257126561708
5.464,0.0402315892268713,-0.0816407980837671
5.4656,0.0393192270845188,-0.0821491577582013
5.4672,0.0384047672630275,-0.0826508207587026
5.4688,0.0374882551061853,-0.0831458161115518
5.4704,0.036569734434852,-0.0836341727306176
5.472,0.0356492475798678,-0.0841159193688848
5.4736,0.034726835409964,-0.0845910845659747
5.4752,0.033802537360671,-0.0850596965956596
5.4768,0.0328763914702342,-0.085521783422367
5.4784,0.0319484344105273,-0.0859773726506773
5.48,0.0310187015259722,-0.0864264914808129
5.4816,0.0300872268674536,-0.0868691666691224
5.4832,0.0291540432342446,-0.0873054244815545
5.4848,0.0282191822069261,-0.0877352906581265
5.4864,0.0272826741993185,-0.088158790373384
5.488,0.0263445484874041,-0.088575948202856
5.4896,0.0254048332642618,-0.088986788084501
5.4912,0.0244635556759994,-0.089391333293147
5.4928,0.0235207418686923,-0.089789606406924
5.4944,0.0225764170343202,-0.0901816292776919
5.496,0.0216306054587105,-0.0905674230114601
5.4976,0.0206833305644841,-0.0909470079388011
5.4992,0.0197346149620046,-0.0913204035952576
5.5008,0.0187844804933279,-0.0916876287037453
5.5024,0.0178329482861583,-0.0920487011539476
5.504,0.0168800387968083,-0.0924036379877041
5.5056,0.0159257718591584,-0.0927524553873962
5.5072,0.0149701667386219,-0.0930951686633248
5.5088,0.0140132421731154,-0.0934317922440827
5.5104,0.0130550164280314,-0.0937623396699213
5.512,0.0120955073442122,-0.0940868235891148
5.5136,0.0111347323809313,-0.0944052557503155
5.5152,0.0101727086688761,-0.0947176470089073
5.5168,0.00920945305613792,-0.0950240073213513
5.5184,0.00824498215719857,-0.0953243457485308
5.52,0.0072793123969303,-0.0956186704650879
5.5216,0.00631246005559081,-0.0959069887627581
5.5232,0.00534444131983183,-0.096189307056699
5.5248,0.00437527231970084,-0.0964656309018171
5.5264,0.00340496917965573,-0.0967359649980886
5.528,0.00243354805557876,-0.0970003132118775
5.5296,0.00146102518179899,-0.0972586785822489
5.5312,0.000487416907111848,-0.0975110633462812
5.5328,-0.000487260262188704,-0.0977574689543717
5.5344,-0.00146298962428185,-0.0979978960875426
5.536,-0.00243975424377807,-0.0982323446867398
5.5376,-0.00341753691768378,-0.0984608139671329
5.5392,-0.00439632013735338,-0.0986833024494102
5.5408,-0.00537608605744116,-0.0988998079830713
5.5424,-0.00635681646184538,-0.0991103277709168
5.544,-0.00733849273265299,-0.099314858402238
5.5456,-0.00832109582307735,-0.0995133958784021
5.5472,-0.00930460622639024,-0.0997059356445362
5.5488,-0.0102890039528512,-0.0998924726207092
5.5504,-0.0112742685036345,-0.100073001234013
5.552,-0.0122603788457489,-0.100247515451943
5.5536,-0.0132473133919528,-0.100416008815772
5.5552,-0.0142350499816685,-0.100578474475529
5.5568,-0.0152235658638911,-0.100734905224778
5.5584,-0.0162128376760915,-0.100885293536486
5.56,-0.0172028414341141,-0.101029631599501
5.5616,-0.0181935525150774,-0.101167911354428
5.5632,-0.019184945649263,-0.101300124531196
5.5648,-0.0201769949100048,-0.101426262685935
5.5664,-0.0211696737035704,-0.101546317238275
5.568,-0.0221629547650451,-0.101660279509025
5.5696,-0.0231568101502062,-0.101768140757489
5.5712,-0.0241512112403955,-0.101869892219145
5.5728,-0.025146128733386,-0.101965525142666
5.5744,-0.0261415326472525,-0.102055030827413
5.576,-0.0271373923242281,-0.102138400660465
5.5776,-0.0281336764305652,-0.102215626152792
5.5792,-0.0291303529663861,-0.102286698975833
5.5808,-0.0301273892705398,-0.102351610997378
5.5824,-0.0311247520294468,-0.102410354316444
5.584,-0.0321224072899436,-0.102462921298358
5.5856,-0.0331203204651244,-0.102509304608642
5.5872,-0.0341184563551812,-0.102549497246201
5.5888,-0.0351167791572384,-0.102583492576304
5.5904,-0.0361152524841866,-0.102611284361678
5.592,-0.0371138393785099,-0.102632866794003
5.5936,-0.0381125023361171,-0.102648234523199
5.5952,-0.0391112033241656,-0.102657382687931
5.5968,-0.040109903802883,-0.102660306941003
5.5984,-0.0411085647463876,-0.102657003477164
5.6,-0.0421071466705081,-0.102647469060415
5.6016,-0.0431066981045992,-0.102632011544314
5.6032,-0.0441060598823539,-0.102610238664291
5.6048,-0.0451051872866185,-0.102582152260964
5.6064,-0.0461040354392032,-0.102547755001459
5.608,-0.0471025593446916,-0.102507050397727
5.6096,-0.0481007139222449,-0.102460042805881
5.6112,-0.0490984540434144,-0.102406737437516
5.6128,-0.0500957345679445,-0.102347140363053
5.6144,-0.051092510377578,-0.102281258511071
5.616,-0.0520887364188565,-0.102209099673653
5.6176,-0.0530843677329305,-0.102130672503734
5.6192,-0.0540793594973582,-0.102045986512453
5.6208,-0.0550736670579085,-0.101955052064507
5.6224,-0.0560672459663631,-0.101857880375516
5.624,-0.0570600520203213,-0.101754483502388
5.6256,-0.0580520412890011,-0.101644874335689
5.6272,-0.0590431701590433,-0.101529066588019
5.6288,-0.060033395361313,-0.101407074785395
5.6304,-0.0610226740067084,-0.101278914248637
5.632,-0.0620109636209623,-0.101144601084758
5.6336,-0.0629982221764524,-0.101004152164362
5.6352,-0.0639844081230043,-0.10085758510905
5.6368,-0.0649694804187065,-0.100704918268822
5.6384,-0.0659533985637184,-0.100546170706493
5.64,-0.066936122624085,-0.100381362168116
5.6416,-0.0679176132635495,-0.100210513066403
5.6432,-0.0688978317693747,-0.100033644455156
5.6448,-0.069876740081161,-0.0998507780017077
5.6464,-0.0708543008096699,-0.0996619359623591
5.648,-0.0718304772696473,-0.0994671411538327
5.6496,-0.0728052334926578,-0.099266416923725
5.6512,-0.0737785342559137,-0.0990597871239681
5.6528,-0.0747503451011099,-0.0988472760752971
5.6544,-0.0757206323492665,-0.0986289085397231
5.656,-0.0766893631215723,-0.0984047096880124
5.6576,-0.0776565053572338,-0.0981747050641728
5.6592,-0.0786220278223234,-0.0979389205519458
5.6608,-0.0795859001276432,-0.0976973823443042
5.6624,-0.0805480927395851,-0.0974501169029571
5.664,-0.0815085769879988,-0.0971971509278612
5.6656,-0.0824673250780619,-0.0969385113157383
5.6672,-0.0834243100971653,-0.0966742251295981
5.6688,-0.084379506015794,-0.0964043195582688
5.6704,-0.0853328876984204,-0.0961288218809337
5.672,-0.0862844309003981,-0.0958477594286739
5.6736,-0.087234112273872,-0.0955611595490173
5.6752,-0.0881819093626862,-0.0952690495674935
5.6768,-0.0891278006003045,-0.0949714567511962
5.6784,-0.0900717653115331,-0.0946684082683512
5.68,-0.0910137836998593,-0.0943599311568896
5.6816,-0.0919538368451907,-0.0940460522840293
5.6832,-0.0928919066940052,-0.0937267983068609
5.6848,-0.0938279760490096,-0.0934021956429408
5.6864,-0.0947620285580084,-0.0930722704278891
5.688,-0.0956940487006791,-0.0927370484849951
5.6896,-0.096624021773859,-0.0923965552848272
5.6912,-0.0975519338759377,-0.0920508159158504
5.6928,-0.0984777718887667,-0.0916998550480472
5.6944,-0.0994015234592709,-0.0913436968995468
5.696,-0.100323176978977,-0.0909823652072575
5.6976,-0.101242721562247,-0.0906158831895075
5.6992,-0.102160147023626,-0.0902442735226878
5.7008,-0.103075443853295,-0.0898675583049025
5.7024,-0.103988603191714,-0.0894857590326252
5.704,-0.104899616802906,-0.0890988965683574
5.7056,-0.105808477046605,-0.0887069911152948
5.7072,-0.106715176849104,-0.0883100621939973
