"Freq [GHz]","re(S(Antenna1_1_p1,Antenna1_1_p1)) []","im(S(Antenna1_1_p1,Antenna1_1_p1)) []"
3,0.118104697212387,-0.083002843156587
3.002,0.117825033723,-0.0858001271751278
3.004,0.117440628841926,-0.088620629729213
3.006,0.116940659335518,-0.0914731267808325
3.008,0.116311721590052,-0.0943095360730777
3.01,0.115443100673274,-0.0970253688708913
3.012,0.114720790975996,-0.100024895226845
3.014,0.113653168673707,-0.10274429043384
3.016,0.112558993798189,-0.105586314649087
3.018,0.111437422509242,-0.108561425988679
3.02,0.110106356056393,-0.111354743066505
3.022,0.10865308438066,-0.114105539506112
3.024,0.107078535416381,-0.116829000199568
3.026,0.105394436973118,-0.119527383064792
3.028,0.103597218457596,-0.122174361736353
3.03,0.101703993465707,-0.124761839178811
3.032,0.0996922053446373,-0.127271402341385
3.034,0.0975589044950112,-0.12956993668926
3.036,0.0953574776631525,-0.132131465434279
3.038,0.0930414440834368,-0.134410037465175
3.04,0.0906344383407017,-0.136633072607268
3.042,0.088132923082807,-0.138775419981676
3.044,0.08556120674324,-0.140800283434039
3.046,0.0828970121238701,-0.142755017922736
3.048,0.080153056457786,-0.144599853646616
3.05,0.0773418708422692,-0.146341413832254
3.052,0.074459480621858,-0.147972569390705
3.054,0.07153139201155,-0.149490516723839
3.056,0.0685546819351328,-0.150915380960182
3.058,0.0655124815876504,-0.152188004330212
3.06,0.0625800363789762,-0.15321465278134
3.062,0.0593358115435629,-0.154421790982313
3.064,0.0562088386102852,-0.155343532947263
3.066,0.0530475479734716,-0.156146736219194
3.068,0.0498690979070752,-0.156821412123156
3.07,0.0466912863449626,-0.1573754502289
3.072,0.0435094075404154,-0.157802892403082
3.074,0.0403248467327382,-0.158106528931131
3.076,0.0371566489860651,-0.158287036018602
3.078,0.0341518657653133,-0.158280094192142
3.08,0.0310620377152896,-0.158216611110073
3.082,0.0277780183400308,-0.15808665211249
3.084,0.024696476050247,-0.157784575980999
3.086,0.0218917801479667,-0.157338298598127
3.088,0.0186995196324046,-0.156828708126151
3.09,0.0157945892459499,-0.156184768985669
3.092,0.012951628180368,-0.155435296153825
3.094,0.0103426713432107,-0.154598690271958
3.096,0.0074418838044003,-0.153635322413094
3.098,0.00478278038298559,-0.152568822718897
3.1,0.0022150739541464,-0.151447628056316
3.102,-0.000245522393676801,-0.15023853721408
3.104,-0.0026425830711888,-0.148931980667592
3.106,-0.004940618601109,-0.147559877096469
3.108,-0.0071527878399197,-0.146118043837813
3.11,-0.0092447491200705,-0.144612431201959
3.112,-0.0112497405617469,-0.143045575439783
3.114,-0.0131428193744416,-0.141446090836964
3.116,-0.0149376135482842,-0.139762112985707
3.118,-0.0166067438551924,-0.13807369582427
3.12,-0.0181857007398114,-0.136357278638144
3.122,-0.0196384268801512,-0.134599750307356
3.124,-0.0209818734481207,-0.132841263253503
3.126,-0.0222179806097142,-0.131047068621957
3.128,-0.0233409186150773,-0.129270121103773
3.13,-0.0243477616082329,-0.127472150023722
3.132,-0.0252551877566799,-0.125696468024102
3.134,-0.026049464060716,-0.123917805478731
3.136,-0.026679901512479,-0.122366821425617
3.138,-0.0273093272948252,-0.120469760611332
3.14,-0.0277799199499235,-0.118786720319134
3.142,-0.0281442356676558,-0.11713280306881
3.144,-0.0284310869036978,-0.115538025796205
3.146,-0.0286052998274512,-0.113981198282471
3.148,-0.0286819002196342,-0.112480572913098
3.15,-0.0286944991097121,-0.111047529556622
3.152,-0.028605412923063,-0.109667370753115
3.154,-0.028446694597823,-0.10836359812237
3.156,-0.0282102782615792,-0.107145543091885
3.158,-0.0279195993277657,-0.106013689424539
3.16,-0.0275473250518068,-0.104936001646072
3.162,-0.027122320897004,-0.103973762292263
3.164,-0.0266615357502148,-0.10308976953596
3.166,-0.0261219454671991,-0.10230023282377
3.168,-0.0255681780577878,-0.101602650802574
3.17,-0.0249579330857379,-0.101008538705821
3.172,-0.024482406751365,-0.100637763819584
3.174,-0.023869828597902,-0.100250001648355
3.176,-0.0230733140813904,-0.099798718140713
3.178,-0.0223827959805646,-0.099608322564705
3.18,-0.0217314288913719,-0.099502308433031
3.182,-0.0210717202283407,-0.099513747518046
3.184,-0.0204241579996394,-0.099620577826555
3.186,-0.0197971792190488,-0.099829074274373
3.188,-0.0191924779535233,-0.10013676541075
3.19,-0.0187943513174359,-0.100609743332557
3.192,-0.0180750898656117,-0.101067185248312
3.194,-0.0175795857000576,-0.101649533041998
3.196,-0.0173313507314375,-0.102373137356725
3.198,-0.0167419122402961,-0.103109547668217
3.2,-0.0165861084279762,-0.103995387168068
3.202,-0.0161524567973491,-0.104908292416932
3.204,-0.016181074073184,-0.105916087937445
3.206,-0.0158518216523099,-0.107018369307038
3.208,-0.0158156440634999,-0.108175752010586
3.21,-0.0158556791870784,-0.10941011176289
3.212,-0.0159980837442741,-0.110670209441009
3.214,-0.0164158963262763,-0.111953063496442
3.216,-0.0165597093230783,-0.113385383707167
3.218,-0.0169938475819802,-0.114786048689524
3.22,-0.0175247344358896,-0.116245035600005
3.222,-0.0181659536513105,-0.117739183666815
3.224,-0.0189093696561017,-0.119260469890418
3.226,-0.0197464493369182,-0.12077824972385
3.228,-0.0207327669464161,-0.122283418734954
3.23,-0.0217864085602065,-0.123834434677507
3.232,-0.0231270419434913,-0.125182642918775
3.234,-0.0243045435874804,-0.126845347061403
3.236,-0.025718988545483,-0.128343954748159
3.238,-0.0272524959388185,-0.129842685100569
3.24,-0.0288826998423694,-0.131283428854458
3.242,-0.0306309725699061,-0.132685105173793
3.244,-0.0324904629691684,-0.134051515407981
3.246,-0.034454833306613,-0.135358316680128
3.248,-0.0365760043019803,-0.136421047152137
3.25,-0.0387404487424992,-0.137613185777781
3.252,-0.0409532824069234,-0.138941602472633
3.254,-0.0433199284292231,-0.139997002553938
3.256,-0.0457722061420309,-0.140972291890383
3.258,-0.0483126951398637,-0.141860462531805
3.26,-0.050922725342013,-0.142450175398794
3.262,-0.0536264760652309,-0.143365953482253
3.264,-0.0564000970261025,-0.143955372272867
3.266,-0.0592397439831733,-0.144452887070483
3.268,-0.0621491115288425,-0.144856184933469
3.27,-0.0651039295509247,-0.145105669867985
3.272,-0.06811467581403,-0.145291779907156
3.274,-0.0711713974305963,-0.145337414550265
3.276,-0.0742422241617412,-0.145242261441829
3.278,-0.0773744399177944,-0.145037133650619
3.28,-0.0805241616785796,-0.144707664808684
3.282,-0.0836917067664739,-0.144251969560279
3.284,-0.0868702969921423,-0.143664312880745
3.286,-0.0900571417520687,-0.142933148095387
3.288,-0.0930378488584109,-0.141913669708274
3.29,-0.0964154697589762,-0.141123723431023
3.292,-0.0995726699949712,-0.140012093041529
3.294,-0.102708468346459,-0.138776308292683
3.296,-0.105810369533602,-0.137402886351055
3.298,-0.108902126939017,-0.135915224365541
3.3,-0.111920096866485,-0.134288596145977
3.302,-0.114900217017401,-0.132541440031783
3.304,-0.117816755143971,-0.130668925140499
3.306,-0.120687804678186,-0.128685169626395
3.308,-0.123481524438481,-0.126588076719012
3.31,-0.126202446216183,-0.124376522371678
3.312,-0.128853100241738,-0.1220468163601
3.314,-0.131390053400602,-0.119618408500821
3.316,-0.133666135338956,-0.117104575299782
3.318,-0.136243390959156,-0.114477727200832
3.32,-0.138265611264918,-0.111805982134234
3.322,-0.140663454786244,-0.10897604421519
3.324,-0.142726060874161,-0.106099237232371
3.326,-0.144683989475144,-0.103142386266443
3.328,-0.146485754345334,-0.100130890378591
3.33,-0.148203680954514,-0.0970529394891052
3.332,-0.149770190019803,-0.0939201874458989
3.334,-0.151256118469151,-0.0907207136231291
3.336,-0.152560072334604,-0.0875266570587856
3.338,-0.153769312765247,-0.0842443711622834
3.34,-0.154853383660002,-0.0809410337931442
3.342,-0.155780465370126,-0.0776516258016365
3.344,-0.156580385901499,-0.0743101996659525
3.346,-0.157254192976659,-0.0709737882625703
3.348,-0.157789012936631,-0.0676296600077129
3.35,-0.158186118942474,-0.064300577134455
3.352,-0.158456225666631,-0.0609930246618617
3.354,-0.158509111384032,-0.0578531279004176
3.356,-0.158617733392974,-0.0543900509528962
3.358,-0.158501487035741,-0.0511424068163293
3.36,-0.158259076809048,-0.0479320215479887
3.362,-0.157893831734194,-0.0447754476544171
3.364,-0.157373406437034,-0.0418802013005198
3.366,-0.156810759857697,-0.0385877416486916
3.368,-0.156096618570099,-0.0356152576580128
3.37,-0.155262522991204,-0.0329048322034807
3.372,-0.154335326070098,-0.0298232259853162
3.374,-0.153329402276788,-0.0272756366983304
3.376,-0.152181800100842,-0.0243809119513154
3.378,-0.151019888679772,-0.0220291508065588
3.38,-0.14966295066718,-0.0192584762993595
3.382,-0.148347206400734,-0.0170577867576676
3.384,-0.146822452539887,-0.0145385930017444
3.386,-0.145292231263414,-0.012339029233935
3.388,-0.143701319386689,-0.0102288803384745
3.39,-0.142191284448798,-0.0084840341413831
3.392,-0.140485509967399,-0.0065598409204763
3.394,-0.138613979629402,-0.0045992182153839
3.396,-0.136859294599427,-0.0029771264977036
3.398,-0.135030059628031,-0.0014301173911993
3.4,-0.133204555936088,-3.05356521264968E-05
3.402,-0.131526180002073,0.0011209894603988
3.404,-0.129498292716757,0.0024414808639165
3.406,-0.127624322925559,0.0034907084720758
3.408,-0.125768942998336,0.00442449346395
3.41,-0.123919059641074,0.0052555029933111
3.412,-0.122082052144713,0.0059502825077845
3.414,-0.120258458229788,0.0065399019979009
3.416,-0.11847154758385,0.0070152915660564
3.418,-0.116952590755692,0.0073186968153919
3.42,-0.115236373629408,0.0075896046785235
3.422,-0.113359562568225,0.0077961543762195
3.424,-0.111740751778167,0.007842059335937
3.426,-0.110207221431508,0.0078045469702775
3.428,-0.108711714310079,0.0076581400953154
3.43,-0.107521153138331,0.0074422209788038
3.432,-0.105960579476248,0.0071218867383076
3.434,-0.104664705562069,0.0067229169091964
3.436,-0.103496673774843,0.0062504689525132
3.438,-0.102393844796747,0.0057074155527546
3.44,-0.101370515515315,0.0050980923554898
3.442,-0.100493587345395,0.0044531579749245
3.444,-0.099654292091002,0.0037225179512631
3.446,-0.098956236406934,0.00297063800801339
3.448,-0.098355979010294,0.0021756751711348
3.45,-0.097839884691751,0.00134819675305225
3.452,-0.097635632446694,0.00063463623657778
3.454,-0.097333608146179,-0.00025310814834643
3.456,-0.096969021047762,-0.00130716068998083
3.458,-0.096877757376086,-0.00223777875632494
3.46,-0.096927001853375,-0.00313768339369163
3.462,-0.09706596344974,-0.00403984264952981
3.464,-0.097319760163315,-0.00493304931228308
3.466,-0.09767429668024,-0.00582204280645996
3.468,-0.098152476394509,-0.00664434106079526
3.47,-0.09873450280762,-0.0074651979295774
3.472,-0.099405526478117,-0.00824792819512708
3.474,-0.10018547022093,-0.00898734542638339
3.476,-0.101061134156626,-0.0096783400856884
3.478,-0.102038317120446,-0.0103142689036532
3.48,-0.103094421811248,-0.0108750363442444
3.482,-0.104254945740277,-0.0113745813499487
3.484,-0.105499265949791,-0.0118389693271627
3.486,-0.106813850651562,-0.0121542676116594
3.488,-0.108211967025227,-0.0124323764842589
3.49,-0.109679867506493,-0.0126128922466426
3.492,-0.111212426535232,-0.0127023221673103
3.494,-0.112806882943395,-0.0126861432677207
3.496,-0.114462866582865,-0.012591773818537
3.498,-0.116172230033101,-0.0123866180161169
3.5,-0.117797133948695,-0.0118321022290681
3.502,-0.119686362486824,-0.0116370449150349
3.504,-0.121501498074503,-0.0110966219776262
3.506,-0.123340361233821,-0.0104423356134859
3.508,-0.125187742764933,-0.0096667362795658
3.51,-0.127059762936048,-0.0087803650605278
3.512,-0.128940252994218,-0.0077830054063632
3.514,-0.130801041903346,-0.0066452590501
3.516,-0.132679644717291,-0.0054132928257682
3.518,-0.134521749793324,-0.0040406241964669
3.52,-0.136359126540516,-0.0025616350426526
3.522,-0.138149486334488,-0.000955140950548598
3.524,-0.13991643485727,0.000762235209214895
3.526,-0.141375603192351,0.00271499452284549
3.528,-0.143325612895635,0.0045497741744167
3.53,-0.144689933803279,0.0066858836067345
3.532,-0.146497476691471,0.0087803705220371
3.534,-0.147974606722063,0.0110593842524984
3.536,-0.149387312528135,0.0134377552305535
3.538,-0.150733183839494,0.015919712009104
3.54,-0.15170284442802,0.0184914992414222
3.542,-0.153147542723001,0.0211649337710213
3.544,-0.15419202227631,0.0239079063212127
3.546,-0.15516750047755,0.0267494273345896
3.548,-0.156026578049099,0.0296677016122344
3.55,-0.156742017971067,0.0326389532428438
3.552,-0.157387907326199,0.0356851617215516
3.554,-0.157929790694678,0.0388070507486826
3.556,-0.158298081338874,0.0419616678582487
3.558,-0.158563779598016,0.0451664385162887
3.56,-0.158698447092794,0.0484022299290024
3.562,-0.158484363119887,0.0515534439907256
3.564,-0.158570840346437,0.0549850366667101
3.566,-0.158313940824482,0.0583267987396854
3.568,-0.15793380340527,0.0616916766652709
3.57,-0.157385258853569,0.0650269160885099
3.572,-0.156731589101901,0.0683803286973531
3.574,-0.155908716974728,0.0717097174775179
3.576,-0.154961774482573,0.0750419846571303
3.578,-0.153888882126098,0.078366891217669
3.58,-0.152659397240155,0.0816227877359463
3.582,-0.151194569217755,0.0846174999021691
3.584,-0.149819290134027,0.088055772910838
3.586,-0.148203780900117,0.0912045396864247
3.588,-0.146456173247043,0.0942976776178896
3.59,-0.144535003979549,0.0970405643239944
3.592,-0.142557084909871,0.0999917733084159
3.594,-0.140479094511522,0.103148955334679
3.596,-0.138248799483021,0.105949980100888
3.598,-0.135907866601576,0.108654872884302
3.6,-0.133462089476798,0.111269475305643
3.602,-0.130914493474316,0.113784045343311
3.604,-0.128314842319454,0.115916368607309
3.606,-0.125533078020802,0.118487313623068
3.608,-0.122712401433851,0.120670987145005
3.61,-0.119812564054548,0.122735732089927
3.612,-0.116834853742881,0.124678209400241
3.614,-0.11378232632643,0.126514585346968
3.616,-0.110694650863914,0.128178412412559
3.618,-0.107543372658756,0.129732085583539
3.62,-0.104339942414583,0.131149380572946
3.622,-0.101101008753811,0.13242958668256
3.624,-0.0978295950401408,0.133572644484985
3.626,-0.0947182354991196,0.134371108035515
3.628,-0.0912103028810849,0.135426074803808
3.63,-0.0878823250957032,0.136143796395369
3.632,-0.0845490946885401,0.136714181702858
3.634,-0.0812241539556142,0.137145925447207
3.636,-0.0779094720430088,0.137433913468514
3.638,-0.074611851511026,0.137577705016804
3.64,-0.0713596588278427,0.137585763442568
3.642,-0.0681087882391157,0.137458914357104
3.644,-0.0649119525026463,0.137192393762696
3.646,-0.0617439404210528,0.136787079242606
3.648,-0.0589522349254769,0.136197582150864
3.65,-0.0556555016693152,0.13560863869186
3.652,-0.0529658001519752,0.134790203569808
3.654,-0.0497923741726551,0.133925328397948
3.656,-0.0469817664541943,0.132916408987621
3.658,-0.0442640085669053,0.131782033917148
3.66,-0.0416294460124804,0.130557946250507
3.662,-0.0391011386379445,0.129223097295842
3.664,-0.0366665065096043,0.127798556593797
3.666,-0.0343415231570947,0.126287207635651
3.668,-0.0321017916574271,0.124691884311292
3.67,-0.0300183792991147,0.123019022297007
3.672,-0.0280374486163519,0.121282480933068
3.674,-0.0261815288231932,0.119481636391169
3.676,-0.0244472904078499,0.117623638881703
3.678,-0.0228509992170144,0.115739760214789
3.68,-0.0213622668302285,0.113765105416218
3.682,-0.0200150778643316,0.111781951059147
3.684,-0.0187984697179687,0.109774257491662
3.686,-0.0177231382761483,0.107742750042165
3.688,-0.016772445394882,0.105722205379555
3.69,-0.0159498969058625,0.103638927642286
3.692,-0.0154448848812549,0.101869471248221
3.694,-0.014743806988515,0.099582285269341
3.696,-0.0143218387553013,0.097550326698246
3.698,-0.0140502341444635,0.095585077875544
3.7,-0.013896937849104,0.09363020445803
3.702,-0.0138748731577052,0.091711795239723
3.704,-0.0139686119493483,0.089850191066724
3.706,-0.0141803788190189,0.088036967731918
3.708,-0.0145169507229834,0.086284521189536
3.71,-0.0149590843042514,0.0846003672995
3.712,-0.0155187153681272,0.082985585091676
3.714,-0.016179748687879,0.081455594839918
3.716,-0.0169014630004147,0.080310902415981
3.718,-0.0177819337821621,0.078655250703269
3.72,-0.0187310877449527,0.077392707270434
3.722,-0.0197539009920388,0.076231265164807
3.724,-0.020831189044209,0.075186429125697
3.726,-0.0220165240659882,0.074236267107529
3.728,-0.0232599555719552,0.073403698972823
3.73,-0.0243709058131279,0.072995344955062
3.732,-0.0258816814935063,0.072094236681342
3.734,-0.0272439549286625,0.071627093494959
3.736,-0.0286761226414823,0.071281733007801
3.738,-0.0301182061829857,0.071063070742591
3.74,-0.0315674458592767,0.070970647585037
3.742,-0.0330440072404766,0.07100847601579
3.744,-0.034548876133405,0.0711804128523
3.746,-0.0360147898838577,0.071475244580493
3.748,-0.0372093448779832,0.07206889173637
3.75,-0.038947815869317,0.072463872097433
3.752,-0.0403743895144924,0.073154570493967
3.754,-0.0417601391889863,0.073963519990228
3.756,-0.0431147618300003,0.074902783185486
3.758,-0.0444378043024503,0.075955851004918
3.76,-0.0456743856370652,0.077140717600421
3.762,-0.0468382242186571,0.078421489361226
3.764,-0.0479775588844565,0.079850917414489
3.766,-0.0490226727226317,0.081372150545677
3.768,-0.0499745267908991,0.082990350428851
3.77,-0.0508533447652739,0.084718287706864
3.772,-0.0516365744689708,0.086539574001422
3.774,-0.0523067349814071,0.088436294312994
3.776,-0.0528783186473638,0.090429042210683
3.778,-0.0533517553762697,0.092509616741911
3.78,-0.0533893864616254,0.094545667212047
3.782,-0.0539273089605656,0.096854469813885
3.784,-0.0540350710035603,0.099126003887062
3.786,-0.0540149090742462,0.10143895043731
3.788,-0.0538855235994181,0.103807792865673
3.79,-0.0533114052991455,0.106020767767565
3.792,-0.0528640074170407,0.108389242398754
3.794,-0.0526247328106623,0.111097234148247
3.796,-0.0519313241820813,0.113554475249083
3.798,-0.0510790185085669,0.116016098780006
3.8,-0.0498890993934468,0.118250920967077
3.802,-0.0487852142770908,0.120693511423191
3.804,-0.047746832978064,0.123415695083454
3.806,-0.0463458771444245,0.125836482363585
3.808,-0.0448099922151475,0.128221409515074
3.81,-0.0431365692117502,0.130565737740413
3.812,-0.041192439630017,0.132535521498143
3.814,-0.0393743031819098,0.135079271449862
3.816,-0.0372980440176282,0.137263927601147
3.818,-0.0351035755878158,0.139365433849396
3.82,-0.0327139867759289,0.141015431891597
3.822,-0.0303404995807428,0.143330626302044
3.824,-0.0277520265690591,0.144855850469941
3.826,-0.0251086214585289,0.146936340296983
3.828,-0.0223371497206409,0.148583312504835
3.83,-0.0194579110638866,0.150122848572572
3.832,-0.0164927524270656,0.15154535294403
3.834,-0.013435966762779,0.152844020035142
3.836,-0.0102965418410386,0.154017060631143
3.838,-0.0070860357730771,0.155060404323797
3.84,-0.0037958114953201,0.155991023498522
3.842,-0.000462009553472798,0.156739101421449
3.844,0.0027542697631687,0.157024842796506
3.846,0.006384772247273,0.157864987512342
3.848,0.009658756218873,0.157899069589313
3.85,0.0133586033095855,0.158354383526336
3.852,0.016897902649659,0.15838244614777
3.854,0.0204407730818963,0.158257206070213
3.856,0.0239956961564614,0.157977884929251
3.858,0.0275477101279444,0.157546288566237
3.86,0.031082174215777,0.156954431134943
3.862,0.0343139982964504,0.15601875254826
3.864,0.0380993816390784,0.155311235084821
3.866,0.0415598645392071,0.154252915075613
3.868,0.0449751812595446,0.153054551950543
3.87,0.0480220653295121,0.151580825195022
3.872,0.0516783549176653,0.150216159086482
3.874,0.0548933719049071,0.148564025990894
3.876,0.0580643385875539,0.146793643739267
3.878,0.0611481793902417,0.14487375489413
3.88,0.0641719724086352,0.142828113285995
3.882,0.0667022702620098,0.140649672019816
3.884,0.0698472181256259,0.138364073391439
3.886,0.0725716409129743,0.135946963574021
3.888,0.0751219080178174,0.133443904364479
3.89,0.0775808973260879,0.130818367099916
3.892,0.0799197086276088,0.128096694824054
3.894,0.0821208916776607,0.125287826783631
3.896,0.0838586208683541,0.12250351016488
3.898,0.0861211638198694,0.119426578759923
3.9,0.0875884964115106,0.116538673213221
3.902,0.0895476768825812,0.113278065178045
3.904,0.0910623396631329,0.110104483302914
3.906,0.0920908524045004,0.107119803816086
