"Freq [GHz]","re(S(Antenna1_1_p1,Antenna1_1_p1)) []","im(S(Antenna1_1_p1,Antenna1_1_p1)) []"
3,0.127208883202387,-0.096328290843587
3.002,0.126114234023,-0.0996298689381278
3.004,0.124890697031926,-0.102900322858213
3.006,0.123517632235518,-0.106155220375832
3.008,0.121999515580052,-0.109339544276078
3.01,0.120212793233274,-0.112327184772891
3.012,0.118583520065996,-0.115569511067245
3.014,0.116579630093707,-0.11846369204384
3.016,0.114540184668189,-0.121429495543087
3.018,0.112480195099242,-0.124479153006679
3.02,0.110211680496393,-0.127284729012505
3.022,0.10780509584066,-0.129982697519112
3.024,0.105303078156381,-0.132616091889568
3.026,0.102681619303118,-0.135148589494792
3.028,0.0999929929075956,-0.137581840566353
3.03,0.0971888228457071,-0.139910007248811
3.032,0.0943116267246373,-0.142104375211385
3.034,0.0913042432850112,-0.14401518249926
3.036,0.0882787587231525,-0.146177939444279
3.038,0.0851686151934368,-0.148000838205175
3.04,0.0819842471107017,-0.149703821607268
3.042,0.078754847912807,-0.151313629771676
3.044,0.07547801872624,-0.152726332264039
3.046,0.0721516085378701,-0.154058241862736
3.048,0.068781277958786,-0.155236372356616
3.05,0.0653841650262692,-0.156267921492254
3.052,0.061960651478158,-0.157167969030705
3.054,0.05854361258855,-0.157925252013839
3.056,0.0551257643841328,-0.158566688070182
3.058,0.0516774331566504,-0.159002584490212
3.06,0.0484038636049762,-0.15918691029134
3.062,0.0448492904775629,-0.159566665822313
3.064,0.0414693270992852,-0.159619033767263
3.066,0.0381341397464716,-0.159564277429194
3.068,0.0347966477080752,-0.159349506673156
3.07,0.0315221292839626,-0.1590110723889
3.072,0.0283023595494154,-0.158543273533082
3.074,0.0251457405897382,-0.157960448021131
3.076,0.0220315342150651,-0.157263003698602
3.078,0.0191809643553133,-0.156375242152142
3.08,0.0162387832252896,-0.155453651900073
3.082,0.0131608449400308,-0.15447472729249
3.084,0.010357605650247,-0.153339350030999
3.086,0.0078683918979667,-0.152068981888127
3.088,0.00501830487240459,-0.150779338406151
3.09,0.00252470336594991,-0.149380093385669
3.092,0.000138962510367997,-0.147875569053825
3.094,-0.0019846183567893,-0.146323701201958
3.096,-0.0043685666155997,-0.144685432533094
3.098,-0.00646871847701441,-0.142973875588897
3.1,-0.0084509036958536,-0.141242277492316
3.102,-0.0102590865736768,-0.13947095109408
3.104,-0.0119905012711888,-0.137637329223592
3.106,-0.013601641561109,-0.135763261639469
3.108,-0.0151113293199197,-0.133861428196813
3.11,-0.0164567205100705,-0.131971209958959
3.112,-0.0177140597017469,-0.130019711707783
3.114,-0.0188383622744416,-0.128103361330964
3.116,-0.0198398870782842,-0.126144849505707
3.118,-0.0207149100751924,-0.12425128773327
3.12,-0.0214906988198114,-0.122342352350144
3.122,-0.0221186743001512,-0.120453443684856
3.124,-0.0226443703681207,-0.118610519006503
3.126,-0.0230759254697142,-0.116782161673957
3.128,-0.0233811316550773,-0.115021853537773
3.13,-0.0235634662382329,-0.113277587771722
3.132,-0.0236617577566799,-0.111625970634102
3.134,-0.023665117670716,-0.110000009388731
3.136,-0.023505623262479,-0.108635044835617
3.138,-0.0233773085848252,-0.106963701871332
3.14,-0.0231029866299235,-0.105551951009134
3.142,-0.0227387484876558,-0.10422318543881
3.144,-0.0223105046536978,-0.103010641106205
3.146,-0.0218098450974512,-0.101833624452471
3.148,-0.0212352733796342,-0.100780446983098
3.15,-0.0205934381797121,-0.099812708816622
3.152,-0.019915424523063,-0.098929510133115
3.154,-0.019193621027823,-0.09816152558237
3.156,-0.0184187759815792,-0.097538558511885
3.158,-0.0176138772367657,-0.096980692344539
3.16,-0.0167845260768068,-0.096500070066072
3.162,-0.015950144190004,-0.096201825252263
3.164,-0.0150919119912148,-0.09599336295596
3.166,-0.0141918054921991,-0.09585785386377
3.168,-0.0133271321247878,-0.095870865022574
3.17,-0.0124619191127379,-0.095993673145821
3.172,-0.011754656545365,-0.096343859949584
3.174,-0.010955699110902,-0.096687371958355
3.176,-0.0100182463605904,-0.096977473920713
3.178,-0.0092063227155646,-0.097521786834705
3.18,-0.0084999224433719,-0.098158246563031
3.182,-0.0078353367543407,-0.098906280518046
3.184,-0.0072151674646394,-0.099762413556555
3.186,-0.0066355853690488,-0.100697203454373
3.188,-0.0061331815835233,-0.10172083009075
3.19,-0.0058975297974359,-0.102936502072557
3.192,-0.0053595587256117,-0.104087738918312
3.194,-0.0050656600300576,-0.105365765261998
3.196,-0.0050900882714375,-0.106771625346725
3.198,-0.0047860755102961,-0.108163519688217
3.2,-0.0049739072079762,-0.109692556138068
3.202,-0.0049040385273491,-0.111212618636932
3.204,-0.005326196243184,-0.112825293227445
3.206,-0.0054049095023099,-0.114503746137038
3.208,-0.0058165923334999,-0.116190872550586
3.21,-0.0063617366070784,-0.11794031665289
3.212,-0.0070136310842741,-0.119691487511009
3.214,-0.0079818543162763,-0.121427031328442
3.216,-0.0086622050630783,-0.123287245100167
3.218,-0.0096787748719802,-0.125081770440524
3.22,-0.0108049255958896,-0.126898047726005
3.222,-0.0120580077013105,-0.128721943673215
3.224,-0.0134188986061017,-0.130531659363418
3.226,-0.0148883750869182,-0.13230669133985
3.228,-0.0165260339964161,-0.134029306452954
3.23,-0.0182382725702065,-0.135767866015507
3.232,-0.0202647879734913,-0.137246657182175
3.234,-0.0220807397674804,-0.139032194768403
3.236,-0.024181511825483,-0.140603260456159
3.238,-0.0263907014188185,-0.142141072860569
3.24,-0.0286925383423694,-0.143578615137458
3.242,-0.0311106467799061,-0.144943694883793
3.244,-0.0336260105291684,-0.146236942417981
3.246,-0.036249475546613,-0.147442008600128
3.248,-0.0390251557719803,-0.148345017462137
3.25,-0.0418329892124992,-0.149358999707781
3.252,-0.0446607403669234,-0.150494517572633
3.254,-0.0476393810392231,-0.151307318923938
3.256,-0.0506861495320309,-0.152011377500383
3.258,-0.0538112598798637,-0.152599882931805
3.26,-0.056973712082013,-0.152833991998794
3.262,-0.0602181286952309,-0.153406855532253
3.264,-0.0635113463261025,-0.153608640932867
3.266,-0.0668450440331733,-0.153693346450483
3.268,-0.0702199666688425,-0.153650889543469
3.27,-0.0736315606319247,-0.153438141507985
3.272,-0.07705330254403,-0.153138610617156
3.274,-0.0804902263975963,-0.152681789470265
3.276,-0.0839266993987412,-0.152051190941829
3.278,-0.0873948864221944,-0.151313726710619
3.28,-0.0908524572805796,-0.150412884238684
3.282,-0.0942787123474739,-0.149416177590279
3.284,-0.0977135366351423,-0.148225624250745
3.286,-0.101112539575069,-0.146901767215387
3.288,-0.104253761032811,-0.145259923418274
3.29,-0.107788692124976,-0.143878944101023
3.292,-0.111060968283971,-0.142148567751529
3.294,-0.114281632282459,-0.140301651992683
3.296,-0.117427420445602,-0.138308661351055
3.298,-0.120541168239017,-0.136207173095541
3.3,-0.123531704916485,-0.133951281895977
3.302,-0.126469241997401,-0.131593662911783
3.304,-0.129297005973971,-0.129101204320499
3.306,-0.132052169518186,-0.126519861206395
3.308,-0.134710717558481,-0.123830520809012
3.31,-0.137240941006183,-0.121017430471678
3.312,-0.139700651391738,-0.1181266471201
3.314,-0.141993725940602,-0.11511253886082
3.316,-0.143990376948956,-0.112057452989782
3.318,-0.146300193099156,-0.108903463390832
3.32,-0.147972125504918,-0.105685865024234
3.322,-0.150041952856244,-0.10236040388519
3.324,-0.151735717784161,-0.0990105860123709
3.326,-0.153303255975144,-0.0955853440764426
3.328,-0.154685490735334,-0.0921383777215907
3.33,-0.155956001434514,-0.0886430831521052
3.332,-0.157064354669803,-0.0851161881018989
3.334,-0.158085795019151,-0.0815610507701291
3.336,-0.158873049654604,-0.0780285822887856
3.338,-0.159570854095247,-0.0744243987772834
3.34,-0.160121578030002,-0.0708289028791442
3.342,-0.160522521990126,-0.0672893574286365
3.344,-0.160749982971499,-0.0637042734924825
3.346,-0.160859120346659,-0.0601744671745703
3.348,-0.160815537226631,-0.0566587210957129
3.35,-0.160623737702474,-0.053179390011455
3.352,-0.160302028256631,-0.0497665031118617
3.354,-0.159749526514032,-0.0465588073904176
3.356,-0.159278356372974,-0.0430372068028962
3.358,-0.158561207795741,-0.0397623506363293
3.36,-0.157740916009048,-0.0365655597179887
3.362,-0.156778686784194,-0.0334506366644171
3.364,-0.155650201837034,-0.0306490615505198
3.366,-0.154498608577697,-0.0274473109986916
3.368,-0.153201547420099,-0.0246053203880128
3.37,-0.151780307881204,-0.0221046862934807
3.372,-0.150281673420098,-0.0191961709453162
3.374,-0.148730467066788,-0.0168976611683304
3.376,-0.147044061690842,-0.0142186877213154
3.378,-0.145349896009772,-0.0121757825465588
3.38,-0.14347867715718,-0.0096827166693595
3.382,-0.141660187040734,-0.0078642183976676
3.384,-0.139665450289887,-0.0056769824917444
3.386,-0.137659076343414,-0.003871639403935
3.388,-0.135630190834689,-0.0021680349484745
3.39,-0.133701650566798,-0.000882016061383099
3.392,-0.131602371116699,0.000588335079523702
3.394,-0.129352294886402,0.0020938217946161
3.396,-0.127254870897427,0.0032245110422964
3.398,-0.125102416754031,0.0042865008588007
3.4,-0.122982653903788,0.0051350976178735
3.402,-0.121056413871073,0.0057250854903988
3.404,-0.118779373651757,0.0065041787239165
3.406,-0.116686394908559,0.0070134351320758
3.408,-0.114658289078336,0.00734259630395
3.41,-0.112666878161074,0.0075821022433111
3.412,-0.110709231614713,0.0076875118677845
3.414,-0.108802913469788,0.0076728563679009
3.416,-0.10695663857385,0.0075346802260564
3.418,-0.105420283755692,0.0072396688953919
3.42,-0.103723370269408,0.0068826619585235
3.422,-0.101855974888225,0.0065167909662195
3.424,-0.100319043888167,0.005928132375937
3.426,-0.098885993591508,0.0052831911702775
3.428,-0.097527226320079,0.0045418166653154
3.43,-0.096531583658331,0.0037259739088038
3.432,-0.095145021316248,0.0028222867283076
3.434,-0.094067762972069,0.0018584976891964
3.436,-0.093167000664843,0.000817708932513199
3.438,-0.092348328936747,-0.0002635339872454
3.44,-0.091640530055315,-0.0014133320145102
3.442,-0.091119871235395,-0.0025705678170755
3.444,-0.090639630111002,-0.0038078247967369
3.446,-0.090344112736934,-0.00504096876998661
3.448,-0.090174020360294,-0.0062886259188652
3.45,-0.090108424641751,-0.00754565727394775
3.452,-0.090400212246694,-0.00867103746142222
3.454,-0.090588038316179,-0.00994619047934643
3.456,-0.090723538297762,-0.0113701018179808
3.458,-0.091156716326086,-0.0126313170653249
3.46,-0.091766986973375,-0.0138380925406916
3.462,-0.09247530829974,-0.0150257229475298
3.464,-0.093320431323315,-0.0161735099262831
3.466,-0.09426774333024,-0.01727990472846
3.468,-0.095362984934509,-0.0182866262007953
3.47,-0.09654999719762,-0.0192713974695774
3.472,-0.097843391858117,-0.0201737179951271
3.474,-0.09926488973093,-0.0210012739363834
3.476,-0.100776816556626,-0.0217549816956884
3.478,-0.102396657600446,-0.0224106073436532
3.48,-0.104096737801248,-0.0229614274842444
3.482,-0.105918801190277,-0.0233908130799487
3.484,-0.107805048889791,-0.0237946414771627
3.486,-0.109757857291562,-0.0239853224516594
3.488,-0.111796845585227,-0.0241092791142589
3.49,-0.113882640976493,-0.0241058510866426
3.492,-0.116038132965232,-0.0239799428073103
3.494,-0.118242191923395,-0.0237059241677207
3.496,-0.120497661302865,-0.023330419338537
3.498,-0.122788412933101,-0.0228151919461169
3.5,-0.124970647972695,-0.0218659858590681
3.502,-0.127414129166824,-0.0213241602550349
3.504,-0.129759367878503,-0.0203698683076262
3.506,-0.132104519556131,-0.0192656071834859
3.508,-0.134424205020933,-0.0180366335595658
3.51,-0.136761014512048,-0.0166532779205278
3.512,-0.139074456534218,-0.0151410108663632
3.514,-0.141331019417046,-0.0134569330301
3.516,-0.143589277431291,-0.0116649388357682
3.518,-0.145773698698324,-0.00967073503646691
3.52,-0.147928997162516,-0.0075976418626526
3.522,-0.149990066988488,-0.0053788420905486
3.524,-0.15200415787727,-0.0030176641507851
3.526,-0.153660343632351,-0.000419541287154504
3.528,-0.155818349235635,0.0020745202244167
3.53,-0.157302141303279,0.0048957291367345
3.532,-0.159234864591471,0.0076691302120371
3.534,-0.160794193102063,0.0106167772724984
3.536,-0.162229524328135,0.0136988717105535
3.538,-0.163567119809494,0.016885044719104
3.54,-0.16447863198802,0.0201444829714222
3.542,-0.165854659893001,0.0235100242410213
3.544,-0.16677901657631,0.0269675680212127
3.546,-0.16759838947755,0.0304790196645896
3.548,-0.168256403849099,0.0340808320522344
3.55,-0.168736776091067,0.0377268759028438
3.552,-0.169111904076199,0.0414265480015516
3.554,-0.169356603164678,0.0451905256486826
3.556,-0.169380713598874,0.0489682341352487
3.558,-0.169285532608016,0.0527909371552887
3.56,-0.168989072802794,0.0566221748580024
3.562,-0.168319595469887,0.0603161845057256
3.564,-0.167951816216437,0.0643136271917101
3.566,-0.167203037414482,0.0681635860886854
3.568,-0.16629106280527,0.0720174520002709
3.57,-0.165182008063569,0.0758163525492099
3.572,-0.163950470851901,0.0796004473093531
3.574,-0.162501593224728,0.0833444789175179
3.576,-0.160933457042573,0.0870336916921303
3.578,-0.159213185206098,0.090703156916669
3.58,-0.157313847260155,0.0942489578559463
3.582,-0.155143239427755,0.0974871233521691
3.584,-0.153073972134027,0.101181937540838
3.586,-0.150753711740117,0.104514097386425
3.588,-0.148264963497043,0.10775384990789
3.59,-0.145598460989549,0.110582813873994
3.592,-0.142897461989871,0.113595172038416
3.594,-0.140082109061522,0.116810503684679
3.596,-0.137107207943021,0.119598072440888
3.598,-0.134017101591576,0.122247409714302
3.6,-0.130821059156798,0.124756023075643
3.602,-0.127538031634316,0.127150445683311
3.604,-0.124201612509454,0.129072330687309
3.606,-0.120691382490802,0.131452514133068
3.608,-0.117157288333851,0.133373319125005
3.61,-0.113545634374548,0.135135421809927
3.612,-0.109895477742881,0.136763878060241
3.614,-0.10617344315943,0.138219944096968
3.616,-0.102442004056914,0.139466347302559
3.618,-0.0986483136377556,0.140551522823539
3.62,-0.0948523599701832,0.141497099142946
3.622,-0.0910412348958115,0.14226609556256
3.624,-0.0872239379031408,0.142875240524985
3.626,-0.0836210692011196,0.143068934335515
3.628,-0.0796133298366849,0.143539176063809
3.63,-0.0758271520557032,0.143624733005369
3.632,-0.0720734294645401,0.143514297132858
3.634,-0.0683691351316142,0.143288992337207
3.636,-0.0647109364620088,0.142862650758514
3.638,-0.061110875191026,0.142282522386804
3.64,-0.0575962391878427,0.141565014122568
3.642,-0.0541131743391157,0.140676754607104
3.644,-0.0507330605726463,0.139633913742696
3.646,-0.0474243592710528,0.138449574282607
3.648,-0.0445645503754769,0.137058191100864
3.65,-0.0411790505493152,0.13569521378186
3.652,-0.0385174846419752,0.134065359009808
3.654,-0.0353428528926551,0.132407926807948
3.656,-0.0326070179141943,0.130602662577621
3.658,-0.0300057008169053,0.128672890877148
3.66,-0.0275573848024804,0.126660061620507
3.662,-0.0252230982979445,0.124562599775842
3.664,-0.0230420115396043,0.122358890243797
3.666,-0.0210173327470947,0.120084430545651
3.668,-0.0191108678374271,0.117749880081292
3.67,-0.0174120609091147,0.115373314387007
3.672,-0.0158464801463519,0.112935929511068
3.674,-0.0144480431031932,0.110448888397169
3.676,-0.0132063360978499,0.107951056658703
3.678,-0.0121424687170144,0.105448527112789
3.68,-0.0112163501902285,0.102869349182218
3.682,-0.0104670292843316,0.100319893015147
3.684,-0.00988407978796869,0.097780710580662
3.686,-0.00946474482614831,0.095260718508165
3.688,-0.009199482984882,0.092780571036555
3.69,-0.0090971281158625,0.090265309835286
3.692,-0.0093435552412549,0.088144034874221
3.694,-0.009386707638515,0.085498569899341
3.696,-0.0097442176653013,0.083156997378246
3.698,-0.0102590363844635,0.080946465735544
3.7,-0.010918076719104,0.07876809732803
3.702,-0.0117115855677052,0.076689553949723
3.704,-0.0126393769893483,0.074708217566724
3.706,-0.0136744924190189,0.072817538141918
3.708,-0.0148630299829834,0.071031620899536
3.71,-0.0161575297442514,0.0693612811395
3.712,-0.0175514532281272,0.067814866451676
3.714,-0.019055917837879,0.066397341709918
3.716,-0.0206115406604147,0.065435539215981
3.718,-0.0223194706821621,0.063949795273269
3.72,-0.0240737245349527,0.062941550160434
3.722,-0.0258971077320388,0.062078082084807
3.724,-0.027753139414209,0.061365250385697
3.726,-0.0297090530659882,0.060795407167529
3.728,-0.0317031356549552,0.060389597182823
3.73,-0.0335306739361279,0.060486647945062
3.732,-0.0357410517785063,0.060058695331342
3.734,-0.0377586495323625,0.060125478244959
3.736,-0.0398317057194823,0.060369165757801
3.738,-0.0418906961259857,0.060766624002591
3.74,-0.0438958586532767,0.061321139175037
3.742,-0.0459112174135766,0.06203882047579
3.744,-0.047915817926405,0.0629227349823
3.746,-0.0498367838488577,0.063977170410493
3.748,-0.0514220793759832,0.06534768588637
3.75,-0.053565145379317,0.066516133897433
3.752,-0.0553224581044924,0.068008328423967
3.754,-0.0569918896689863,0.069637851180228
3.756,-0.0585847305400003,0.071425073965486
3.758,-0.0601120215724503,0.073334382604918
3.76,-0.0614828278670652,0.075389266400421
3.762,-0.0627454608486571,0.077543663781226
3.764,-0.0639300713544565,0.079856972234489
3.766,-0.0649716106526317,0.082263100725677
3.768,-0.0658851023208991,0.084771592268851
3.77,-0.0666571075552739,0.087372801346864
3.772,-0.0672863413589708,0.090061678741422
3.774,-0.0677677967514071,0.092832856212994
3.776,-0.0681020419373638,0.095688503060683
3.778,-0.0682591053362697,0.098615918681911
3.78,-0.0679374731816254,0.101462781492047
3.782,-0.0681330364405656,0.104572045083885
3.784,-0.0678081010735603,0.107635346327062
3.786,-0.0673085637242462,0.11070800784731
3.788,-0.0666601937694181,0.113831001235673
3.79,-0.0655022751191455,0.116725014174665
3.792,-0.0644572599170407,0.119771038816754
3.794,-0.0636134969506623,0.123151061883247
3.796,-0.0622453576920813,0.126208506977083
3.798,-0.0607043688185669,0.129237415922006
3.8,-0.0587417267034468,0.131984461529077
3.802,-0.0568838271470908,0.134919792490191
3.804,-0.055069269548064,0.138122950337454
3.806,-0.0528712100944245,0.140929269656585
3.808,-0.0504821015951475,0.143678633155074
3.81,-0.0479473213517502,0.146344416280413
3.812,-0.0451098798000171,0.148544871558143
3.814,-0.0424273317019098,0.151334433769862
3.816,-0.0394431731176282,0.153687831211147
3.818,-0.0363367160078158,0.155893783009396
3.82,-0.0330199418559289,0.157585463291597
3.822,-0.0297400771607428,0.159943255002044
3.824,-0.0262410913890591,0.161400666429941
3.826,-0.0226675546385289,0.163416055896983
3.828,-0.0189754392006409,0.164927270674835
3.83,-0.0151994558638866,0.166273378432572
3.832,-0.0113407954070656,0.16746633278403
3.834,-0.007391136532779,0.168470241205142
3.836,-0.0034095643410386,0.169298584791143
3.838,0.0006624464169229,0.169966005673797
3.84,0.0047803528446799,0.170454726678522
3.842,0.0088992800285272,0.170718049721449
3.844,0.0128887494091687,0.170446384016506
3.846,0.017275639912273,0.170743636222342
3.848,0.021238862092573,0.170137543639313
3.85,0.0256248597515855,0.169984254876336
3.852,0.029812007229659,0.16933914076777
3.854,0.0339604644578963,0.168477357380213
3.856,0.0380774034063614,0.167442760859251
3.858,0.0421482044099444,0.166232681546237
3.86,0.046168898396777,0.164838691914943
3.862,0.0498080397354504,0.16302964856826
3.864,0.0539980351190784,0.161488516454821
3.866,0.0577946080092071,0.159550204975613
3.868,0.0614997744195446,0.157456987910543
3.87,0.0647526019295121,0.155033836495022
3.872,0.0686257668776653,0.152755558786482
3.874,0.0719801336449071,0.150174949160894
3.876,0.0752303633075539,0.147448289749267
3.878,0.0783404580102417,0.14457009139413
3.88,0.0813345662286352,0.141580533325995
3.882,0.0837472038020098,0.138429625419816
3.884,0.0868091592756259,0.135234793991439
3.886,0.0893524320229743,0.131866501964021
3.888,0.0916614148978174,0.128425441934479
3.89,0.0938366042360879,0.124879961609916
3.892,0.0958311566376088,0.121252795704054
3.894,0.0976490655476607,0.117566265953631
3.896,0.0989171343983541,0.11392830828488
3.898,0.100718612269869,0.110011004619923
3.9,0.101615514571511,0.106331903727221
3.902,0.103057061742581,0.102290014230045
3.904,0.103956460483133,0.0983708282998138
3.906,0.1042982666145,0.0947039141780863
