"Freq [GHz]","re(S(Antenna1_1_p1,Antenna1_1_p1)) []","im(S(Antenna1_1_p1,Antenna1_1_p1)) []"
3,0.0851769423473872,-0.090228768071587
3.002,0.0844988198109999,-0.0911525810241278
3.004,0.0838101989919265,-0.092081380236213
3.006,0.0831147207655175,-0.0930082065768325
3.008,0.0824147665480517,-0.0939378789970777
3.01,0.0817019040962745,-0.0948710553658913
3.012,0.0809807703629965,-0.0958091499852454
3.014,0.0802495841624069,-0.09674708275784
3.016,0.0795068725766895,-0.097685601256087
3.018,0.0787554697066424,-0.098627816852679
3.02,0.0779853908866935,-0.099567685718505
3.022,0.0772094366463598,-0.100513206017112
3.024,0.0764178445452809,-0.101457930359568
3.026,0.0756136529629175,-0.102403042787792
3.028,0.0748008263058956,-0.103348431528353
3.03,0.0739640045767071,-0.104294363112811
3.032,0.0731218675518373,-0.105241396750385
3.034,0.0722550544490112,-0.10618505616626
3.036,0.0713776181301525,-0.107129168013279
3.038,0.0704895227154368,-0.108072431711175
3.04,0.0695763575717017,-0.109012333711268
3.042,0.068649870857807,-0.109947781831676
3.044,0.06770659710324,-0.110886952826039
3.046,0.0667483207588701,-0.111817847993736
3.048,0.065769569089786,-0.112744699365616
3.05,0.0647762726232692,-0.113667339146254
3.052,0.063763763473858,-0.114586173590705
3.054,0.06273242374055,-0.115500298089839
3.056,0.0616838727111328,-0.116407695884182
3.058,0.0606163558916504,-0.117307168086212
3.06,0.0595274850559762,-0.11819991070934
3.062,0.0584259611905629,-0.119078637138313
3.064,0.0573011213772852,-0.119959812280263
3.066,0.0561595627314716,-0.120827175445194
3.068,0.0549989832860752,-0.121687142039156
3.07,0.0538200681059626,-0.1225331815643
3.072,0.0526211298614154,-0.123368407574382
3.074,0.0514036585177382,-0.124192430461631
3.076,0.0501676832590651,-0.125004955632602
3.078,0.0489138773243133,-0.125801090749342
3.08,0.0476389699832896,-0.126588630725363
3.082,0.0463463625720308,-0.12735867008419
3.084,0.045036895874247,-0.128119411652299
3.086,0.0437070378429667,-0.128855785383127
3.088,0.0423665793444046,-0.129581182568351
3.09,0.0410009120639499,-0.130290617765669
3.092,0.039619569469368,-0.130979155070825
3.094,0.0382231350442107,-0.131654237290958
3.096,0.0368067374064003,-0.132309044014094
3.098,0.0353808078459856,-0.132938772885897
3.1,0.0339309914271464,-0.133555445123316
3.102,0.0324690245493232,-0.13415017088708
3.104,0.0309912973968112,-0.134722246821592
3.106,0.029499523796891,-0.135272974878469
3.108,0.0279933419510803,-0.135801286346813
3.11,0.0264747974829295,-0.136304582544959
3.112,0.0249387266032531,-0.136788281455783
3.114,0.0233955448725584,-0.137246572191964
3.116,0.0218381710587158,-0.137680581272707
3.118,0.0202706384208076,-0.13808568773327
3.12,0.0186974175431886,-0.138468856945144
3.122,0.0171081440798488,-0.138823462090856
3.124,0.0155074102728793,-0.139153897562503
3.126,0.0138961720432858,-0.139459187093957
3.128,0.0122841054702227,-0.139734108062773
3.13,0.0106637364536671,-0.139980217875722
3.132,0.00903805537672008,-0.140199186790102
3.134,0.007407495649584,-0.140393081113731
3.136,0.00577348178841099,-0.140554160569617
3.138,0.00413565378287483,-0.140689000524332
3.14,0.0024917455143765,-0.140794077023134
3.142,0.00084715915264423,-0.14087015880181
3.144,-0.000796571865697784,-0.140919453830205
3.146,-0.00243814365145118,-0.140938718849471
3.148,-0.00408210760163422,-0.140924733057098
3.15,-0.00571949905071211,-0.140887939886622
3.152,-0.00735403949806302,-0.140822373673115
3.154,-0.00898566654082304,-0.14072044011837
3.156,-0.0106130412865792,-0.140597920288885
3.158,-0.0122335702737657,-0.140440551676539
3.16,-0.0138496362478068,-0.140256773033072
3.162,-0.015453349618004,-0.140045090090263
3.164,-0.0170510340492148,-0.13980839692196
3.166,-0.0186375300801991,-0.13954354789677
3.168,-0.0202147730307878,-0.139251653222574
3.17,-0.0217766054567379,-0.138936089417821
3.172,-0.023325073140365,-0.138596199323584
3.174,-0.024867109153902,-0.138227840132355
3.176,-0.0263895175265904,-0.137837741619713
3.178,-0.0278989223715646,-0.137418574824705
3.18,-0.0293919782803719,-0.136985986908031
3.182,-0.0308693868373407,-0.136529650462146
3.184,-0.0323305656606394,-0.136049024044655
3.186,-0.0337719521630488,-0.135548015692673
3.188,-0.0351990720025233,-0.13503643294955
3.19,-0.0366037952824359,-0.134501701415097
3.192,-0.0379922626306117,-0.133944594744312
3.194,-0.0393606565340576,-0.133379755777898
3.196,-0.0407110454314375,-0.132793157519925
3.198,-0.0420381821112961,-0.132197180160217
3.2,-0.0433486016789762,-0.131585959837068
3.202,-0.0446376026203491,-0.130964890961932
3.204,-0.045907302042184,-0.130329827376445
3.206,-0.0471559633063099,-0.129685302335038
3.208,-0.0483856281824999,-0.129033543802586
3.21,-0.0495940770220784,-0.12837486893689
3.212,-0.0507838992492741,-0.127707372639009
3.214,-0.0519531230812763,-0.127035429826442
3.216,-0.0531023877980783,-0.126357009015167
3.218,-0.0542369474879802,-0.125677370051524
3.22,-0.0553508829978896,-0.124994503915005
3.222,-0.0564481266203105,-0.124308156620815
3.224,-0.0575285815451017,-0.123624316140418
3.226,-0.0585892958719182,-0.12293366975085
3.228,-0.0596352457084161,-0.122251782564954
3.23,-0.0606677720762065,-0.121567617718507
3.232,-0.0616805996284913,-0.120883546651175
3.234,-0.0626849643244804,-0.120203142734403
3.236,-0.063678832929883,-0.119525016232159
3.238,-0.0646547937140185,-0.118852425525569
3.24,-0.0656250692725694,-0.118185374275458
3.242,-0.0665848767998461,-0.117519698152793
3.244,-0.0675344797234684,-0.116858514478981
3.246,-0.068478939224613,-0.116202692498128
3.248,-0.0694124572979803,-0.115553280834137
3.25,-0.0703443662154992,-0.114907612843781
3.252,-0.0712697895669234,-0.114270264695633
3.254,-0.0721873214442231,-0.113634659978938
3.256,-0.0731037205100309,-0.113005576464383
3.258,-0.0740208202368637,-0.112381519333805
3.26,-0.074933377439013,-0.111760738454794
3.262,-0.0758486852032309,-0.111142921317253
3.264,-0.0767632643031025,-0.110531020422867
3.266,-0.0776808643651733,-0.109922285909483
3.268,-0.0786039822208425,-0.109312981286469
3.27,-0.0795235556729247,-0.108707474467985
3.272,-0.08045456672703,-0.108107620333156
3.274,-0.0813851445595963,-0.107507820042265
3.276,-0.0823232750807412,-0.106905761094829
3.278,-0.0832677293557944,-0.106302589776619
3.28,-0.0842189507715796,-0.105697839992684
3.282,-0.0851780424904739,-0.105090097665279
3.284,-0.0861437487791423,-0.104478838299745
3.286,-0.0871154800960687,-0.103858466252387
3.288,-0.0880990955628109,-0.103238404022774
3.29,-0.0890915461819762,-0.102611327117723
3.292,-0.0900908609229712,-0.101971903257529
3.294,-0.0910990552304589,-0.101331149975313
3.296,-0.092112791639602,-0.100672351445955
3.298,-0.0931399020840166,-0.100004662281041
3.3,-0.0941730459164852,-0.099327497902977
3.302,-0.095215442615401,-0.0986355492977829
3.304,-0.096262984117971,-0.0979293544264987
3.306,-0.097321086714186,-0.0972084656543946
3.308,-0.098384871207481,-0.0964698418710116
3.31,-0.099454006661183,-0.095714852967678
3.312,-0.100527430922738,-0.0949407368971005
3.314,-0.101609358129602,-0.0941490446928205
3.316,-0.102691674698956,-0.0933316146527823
3.318,-0.103777337363156,-0.0924983367888324
3.32,-0.104872450288918,-0.0916415539592342
3.322,-0.105964910169244,-0.0907667097321902
3.324,-0.107057694826161,-0.0898620411113709
3.326,-0.108148849557144,-0.0889379489824426
3.328,-0.109237639100334,-0.0879887962755907
3.33,-0.110324926631514,-0.0870098570431052
3.332,-0.111408011957803,-0.0860150364368989
3.334,-0.112489004483151,-0.0849837161851291
3.336,-0.113559278297604,-0.0839311475177856
3.338,-0.114624996966247,-0.0828519049382834
3.34,-0.115678107561602,-0.0817493424751442
3.342,-0.116723914606626,-0.0806193105676365
3.344,-0.117760365244099,-0.0794635562454825
3.346,-0.118780948360059,-0.0782835315115703
3.348,-0.119788015152231,-0.0770727410107129
3.35,-0.120778672621574,-0.075839861047455
3.352,-0.121756367657631,-0.0745831469648617
3.354,-0.122707856874032,-0.0732992239424176
3.356,-0.123650414860974,-0.0719899950038962
3.358,-0.124569416101741,-0.0706578388163293
3.36,-0.125467403829048,-0.0693037041289887
3.362,-0.126342028772194,-0.0679278217684171
3.364,-0.127195375945034,-0.0665319619585198
3.366,-0.128023023929697,-0.0651121026186916
3.368,-0.128826365455099,-0.0636779805110128
3.37,-0.129599813968204,-0.0622193119524807
3.372,-0.130351741585098,-0.0607494804443162
3.374,-0.131067543974788,-0.0592552432833304
3.376,-0.131766397534842,-0.0577518699683154
3.378,-0.132429431193772,-0.0562299800265588
3.38,-0.13306043806318,-0.0546946111853595
3.382,-0.133663115533734,-0.0531520172956676
3.384,-0.134236941518887,-0.0515920448427444
3.386,-0.134781124485414,-0.050032868344935
3.388,-0.135288771407689,-0.0484580344594745
3.39,-0.135771658080798,-0.0468762495352831
3.392,-0.136215756527399,-0.0452882997992763
3.394,-0.136632966970402,-0.0436983520183839
3.396,-0.137017270775427,-0.0421048747634836
3.398,-0.137372371224031,-0.0405077049208993
3.4,-0.137690389231788,-0.0389141817908265
3.402,-0.137977726532073,-0.0373195068837012
3.404,-0.138240561420757,-0.0357223446330835
3.406,-0.138470654034559,-0.0341405771759242
3.408,-0.138667294113336,-0.03255224617805
3.41,-0.138830909623074,-0.0309727940136889
3.412,-0.138971381649713,-0.0293968725582155
3.414,-0.139080687290788,-0.0278326972390991
3.416,-0.13916251962485,-0.0262748491749436
3.418,-0.139219083414692,-0.0247283775796081
3.42,-0.139249971535408,-0.0231922908544765
3.422,-0.139250307565225,-0.0216641282317805
3.424,-0.139227568920167,-0.020148899291063
3.426,-0.139185595665508,-0.0186461924157225
3.428,-0.139115490784079,-0.0171570612456846
3.43,-0.139022534296331,-0.0156867172041962
3.432,-0.138911295870248,-0.0142252360886924
3.434,-0.138776165607069,-0.0127814885258036
3.436,-0.138625940134843,-0.0113526805714868
3.438,-0.138456193332747,-0.0099390184752454
3.44,-0.138271725897315,-0.0085451004935102
3.442,-0.138064863680195,-0.0071624751900755
3.444,-0.137845691802902,-0.0058014485317369
3.446,-0.137613097876834,-0.00445659800298661
3.448,-0.137365962828494,-0.0031247893798652
3.45,-0.137108432462591,-0.00181386627694775
3.452,-0.136836060176094,-0.00051450999842222
3.454,-0.136557453787079,0.00076058487765357
3.456,-0.136267415596162,0.00202233661401917
3.458,-0.135968470322086,0.00326578061067506
3.46,-0.135663148886375,0.00449577852630837
3.462,-0.13534937793274,0.00570624455147019
3.464,-0.135029224339315,0.00690445144271692
3.466,-0.13470621151124,0.00808567706954004
3.468,-0.134375989769509,0.00925282643120474
3.47,-0.13404304302062,0.0104085089684226
3.472,-0.133706470591117,0.0115444505778729
3.474,-0.13336906763393,0.0126702682876166
3.476,-0.133029508925626,0.0137814122923116
3.478,-0.132689297311446,0.0148840558963468
3.48,-0.132345338426248,0.0159712655147556
3.482,-0.132001817049277,0.0170475787750513
3.484,-0.131660333377791,0.0181147323758373
3.486,-0.131316527428562,0.0191713736903406
3.488,-0.130975592896227,0.0202192565107411
3.49,-0.130634519952493,0.0212592730453574
3.492,-0.130295432748232,0.0222909323226897
3.494,-0.129955456152395,0.0233159986632793
3.496,-0.129619728414865,0.024335332217763
3.498,-0.129283574419101,0.0253457671148831
3.5,-0.128952491848695,0.0263539753277319
3.502,-0.128620920042824,0.0273584107718651
3.504,-0.128289230168503,0.0283570125904738
3.506,-0.127961292079821,0.0293527157496141
3.508,-0.127630018023933,0.0303466944210342
3.51,-0.127306355789048,0.0313376346513722
3.512,-0.126982286569218,0.0323281285107368
3.514,-0.126659464395046,0.0333167678599
3.516,-0.126334844037291,0.0343090428482318
3.518,-0.126010536403324,0.0352982982275331
3.52,-0.125689828545516,0.0362906780233474
3.522,-0.125364156220488,0.0372802165014514
3.524,-0.12504101369527,0.0382750063672149
3.526,-0.124715402651351,0.0392721488288455
3.528,-0.124386721476635,0.0402728988544167
3.53,-0.124059886337279,0.0412725488197345
3.532,-0.123728287370471,0.0422781946530371
3.534,-0.123391975685063,0.0432836133064984
3.536,-0.123053681631135,0.0442958411775535
3.538,-0.122712370029494,0.045315136703104
3.54,-0.12236365249402,0.0463338132204222
3.542,-0.122014358753001,0.0473636848910213
3.544,-0.12165783352931,0.0483882976222127
3.546,-0.12129230023555,0.0494253627985896
3.548,-0.120921309463099,0.0504651102992344
3.55,-0.120544254332067,0.0515069523928438
3.552,-0.120161339544199,0.0525567673175516
3.554,-0.119767924572178,0.0536138076136826
3.556,-0.119362012991374,0.0546721793662487
3.558,-0.118951807052216,0.0557345292362887
3.56,-0.118529373142974,0.0568027639900024
3.562,-0.118097117507487,0.0578754565087256
3.564,-0.117654246991937,0.0589491836087101
3.566,-0.117198982398682,0.0600297812736854
3.568,-0.11672755349787,0.0611145238202709
3.57,-0.116249318618569,0.0622037681132099
3.572,-0.115753876005901,0.0632933264513531
3.574,-0.115248599948728,0.0643872656035179
3.576,-0.114723473791573,0.0654833860901303
3.578,-0.114186552370098,0.066581883332669
3.58,-0.113634284868155,0.0676811437279463
3.582,-0.113067143657755,0.0687816218621691
3.584,-0.112482616708027,0.069884668977838
3.586,-0.111881839220117,0.0709857935124247
3.588,-0.111265763907043,0.0720873928778896
3.59,-0.110633163535549,0.0731915528729944
3.592,-0.109982255013871,0.0742917536634159
3.594,-0.109314567402522,0.0753898976556786
3.596,-0.108626475418021,0.0764867854068876
3.598,-0.107921114055576,0.0775751843583024
3.6,-0.107196685088798,0.0786644764626428
3.602,-0.106457406061316,0.079751113523311
3.604,-0.105696621268454,0.0808283767543087
3.606,-0.104916538603802,0.0819026899050682
3.608,-0.104121077451851,0.0829695586996054
3.61,-0.103303393858548,0.0840330822190266
3.612,-0.102469009287881,0.0850810067831414
3.614,-0.10161465354443,0.0861266311676679
3.616,-0.100739746032914,0.0871618968659921
3.618,-0.0998481805017556,0.088189746964239
3.62,-0.0989358063775832,0.0892029556826458
3.622,-0.0980084599768115,0.0902067545968597
3.624,-0.0970603801121408,0.0912000184046854
3.626,-0.0960934910531196,0.0921759249455147
3.628,-0.0951095083556849,0.0931441613458085
3.63,-0.0941097879897032,0.0940942573833693
3.632,-0.0930915687425401,0.0950311660178583
3.634,-0.0920561087716142,0.0959550363422071
3.636,-0.0910030872610088,0.0968593914665139
3.638,-0.089934608078026,0.0977486853138041
3.64,-0.0888587965028427,0.0986178970865675
3.642,-0.0877530047781157,0.0994763369171043
3.644,-0.0866401930016463,0.100310694517696
3.646,-0.0855174458730528,0.101127213737606
3.648,-0.0843800208994769,0.101926887403864
3.65,-0.0832243075073152,0.10270222422786
3.652,-0.0820584002529752,0.103459565885808
3.654,-0.0808772127136551,0.104196918108948
3.656,-0.0796889537301943,0.104913418557621
3.658,-0.0784926693659053,0.105607972001148
3.66,-0.0772818966744804,0.106276900617507
3.662,-0.0760694299909445,0.106926858170842
3.664,-0.0748449600228043,0.107552407199797
3.666,-0.0736128967279947,0.108155604152651
3.668,-0.0723698066017271,0.108732958900292
3.67,-0.0711293504831147,0.109287297377007
3.672,-0.0698806127938459,0.109819972248068
3.674,-0.0686274040942932,0.110330606997169
3.676,-0.0673721629429499,0.110815799711703
3.678,-0.0661174300770144,0.111276772552789
3.68,-0.0648564758590285,0.111716240765218
3.682,-0.0635963657423316,0.112130990038147
3.684,-0.0623347025459687,0.112523891302662
3.686,-0.0610794092011483,0.112890129078165
3.688,-0.059824254509882,0.113234681955555
3.69,-0.0585701916518625,0.113555869472286
3.692,-0.0573233683082549,0.113854900354221
3.694,-0.056078733603515,0.114133078082341
3.696,-0.0548354756673013,0.114387501072246
3.698,-0.0535988320074635,0.114620551956544
3.7,-0.052374053250104,0.11483345891003
3.702,-0.0511544874487052,0.115027369403723
3.704,-0.0499426585373483,0.115197664930724
3.706,-0.0487358375440189,0.115348156825918
3.708,-0.0475454173679834,0.115482332889536
3.71,-0.0463608198392514,0.1155966703935
3.712,-0.0451863973971272,0.115695491250676
3.714,-0.044024695072879,0.115777358832918
3.716,-0.0428729949734147,0.115839447633981
3.718,-0.0417316987461621,0.115887990126269
3.72,-0.0406071879539527,0.115924450737234
3.722,-0.0394912053100388,0.115943079026307
3.724,-0.038389737362209,0.115948291855797
3.726,-0.0373010998399882,0.115939878537029
3.728,-0.0362239761949552,0.115925572184723
3.73,-0.0351634093491279,0.115894361574362
3.732,-0.0341140653775063,0.115857377791142
3.734,-0.0330803900546625,0.115808542411759
3.736,-0.0320599640614823,0.115751702589801
3.738,-0.0310537373499857,0.115684221658591
3.74,-0.0300594167872767,0.115616136205037
3.742,-0.0290795901625766,0.11553787286979
3.744,-0.028112234332405,0.1154541369303
3.746,-0.0271639746288577,0.115364146212493
3.748,-0.0262237877759832,0.11527434647237
3.75,-0.025296925226317,0.115180580753433
3.752,-0.0243783427934924,0.115084336401967
3.754,-0.0234809020979863,0.114984932452228
3.756,-0.0225875267110003,0.114887547466486
3.758,-0.0217080036724503,0.114786902196918
3.76,-0.0208359618840652,0.114685654862421
3.762,-0.0199798523546571,0.114588209838226
3.764,-0.0191280609724565,0.114491507211489
3.766,-0.0182854250346317,0.114398323860677
3.768,-0.0174554463428991,0.114303973054851
3.77,-0.0166318660262739,0.114216657045864
3.772,-0.0158130010589708,0.114128292258422
3.774,-0.0150035310979071,0.114042253836994
3.776,-0.0142001907015638,0.113962911219683
3.778,-0.0133974046301697,0.113888332469911
3.78,-0.0126052474963254,0.113818305357047
3.782,-0.0118111305811756,0.113751142820885
3.784,-0.0110218549969603,0.113686505229062
3.786,-0.0102366187376462,0.11362995065131
3.788,-0.00944995833741815,0.113573891050673
3.79,-0.00866494993214551,0.113525857656565
3.792,-0.00788130424504067,0.113481487990754
3.794,-0.00709528633266233,0.113437412602247
3.796,-0.00631132552108129,0.113399582892083
3.798,-0.00551661249856688,0.113366258513006
3.8,-0.00472461103144677,0.113335206381077
3.802,-0.00393049302609079,0.113311406295191
3.804,-0.00313108538406403,0.113284040301454
3.806,-0.00232424207242449,0.113263185614585
3.808,-0.00151674264914746,0.113240923795074
3.81,-0.00070091884075023,0.113220282162413
3.812,0.00012159829898295,0.113201741228143
3.814,0.00095289284309017,0.113184330539862
3.816,0.00178897343537176,0.113161423894147
3.818,0.00263333332718423,0.113143279934396
3.82,0.00348546985407112,0.113124338707597
3.822,0.00434520181425717,0.113096606301044
3.824,0.00521657826594094,0.113068821939941
3.826,0.0060949889534711,0.113037239481983
3.828,0.0069795191403591,0.113001959699135
3.83,0.0078764586501134,0.112958662079072
3.832,0.0087817686409344,0.11291223091483
3.834,0.009696794464221,0.112857034602742
3.836,0.0106218166699614,0.112793988964503
3.838,0.0115522097319229,0.112725002412697
3.84,0.0124959187366799,0.112647313875022
3.842,0.0134468532835272,0.112556569476549
3.844,0.0144059078111687,0.112458124927506
3.846,0.015373012498273,0.112348150616342
3.848,0.016350591738873,0.112221201819313
3.85,0.0173329456965855,0.112085113369336
3.852,0.018324059989659,0.11193519711177
3.854,0.0193235767698963,0.111771637648213
3.856,0.0203275616963614,0.111590063778251
3.858,0.0213389068459444,0.111395589730237
3.86,0.022355670627777,0.111187082064943
3.862,0.0233749322804504,0.11096194892426
3.864,0.0244006846690784,0.110717067951821
3.866,0.0254254404742071,0.110456049560613
3.868,0.0264566501505446,0.110173798646543
3.87,0.0274895009695121,0.109876127578022
3.872,0.0285231395326653,0.109557445058482
3.874,0.0295559191009071,0.109221809875894
3.876,0.0305912359445539,0.108865302684267
3.878,0.0316185640502417,0.10848947552813
3.88,0.0326502219266352,0.108091515281995
3.882,0.0336792878906098,0.107676108158816
3.884,0.0347022581857259,0.107239796164439
3.886,0.0357147323173743,0.106782439411021
3.888,0.0367361754216174,0.106306884399479
3.89,0.0377352213665179,0.105811303124916
3.892,0.0387362513536088,0.105295474227054
3.894,0.0397285590155607,0.104760020884631
3.896,0.0407058002151541,0.10420267910488
3.898,0.0416798679448694,0.103627696558923
3.9,0.0426401264465106,0.103034245159221
3.902,0.0435884289015812,0.102421607459045
3.904,0.0445237914651329,0.101791220439914
