"Freq [GHz]","re(S(Antenna1_1_1,Antenna1_1_1)) []","im(S(Antenna1_1_1,Antenna1_1_1)) []"
3,-0.199256160150988,-0.174617573964434
3.014,-0.207761770263747,-0.162656643321158
3.028,-0.215499868626288,-0.149964858915664
3.042,-0.222350379985336,-0.136582954053439
3.056,-0.22819358134427,-0.122582496439411
3.07,-0.232919089429212,-0.108066316438446
3.084,-0.236435127971208,-0.0931663248241507
3.098,-0.238677312495923,-0.078038463427444
3.112,-0.239615991470844,-0.0628547822412406
3.126,-0.239261090373139,-0.0477930124266518
3.14,-0.237663487230347,-0.0330244484752188
3.154,-0.234912237888855,-0.0187013750835428
3.168,-0.231127453328006,-0.00494557381965386
3.182,-0.226449247482773,0.0081604678816198
3.196,-0.221023820920314,0.0205782018008529
3.21,-0.214988302602221,0.0323125241081012
3.224,-0.208461588438461,0.043394817490081
3.238,-0.201538450930831,0.0538951242797824
3.252,-0.194246076655574,0.0639231567691694
3.266,-0.186566466902104,0.0735600090718589
3.28,-0.178441044955905,0.0828605760005899
3.294,-0.16978346380073,0.0918395006970662
3.308,-0.160496846931909,0.100462687397712
3.322,-0.150493119624654,0.108645659950419
3.336,-0.139711780933228,0.116259076823211
3.35,-0.128135553905919,0.123140709396518
3.364,-0.115800807255092,0.129112308009404
3.378,-0.102801381668812,0.133999147702992
3.392,-0.089285353502791,0.137649742697407
3.406,-0.0754451880157975,0.139953267357274
3.42,-0.0615025436762683,0.140852587601802
3.434,-0.047689589314004,0.14035141257756
3.448,-0.0342639631792896,0.138428734856272
3.462,-0.0214597800479594,0.135300298990871
3.476,-0.0093991235135457,0.131193897248953
3.49,0.00186298803421702,0.126319377955356
3.504,0.0123387907918384,0.120875894152251
3.518,0.0220988817655556,0.115030292828805
3.532,0.0312567080200852,0.108899797583097
3.546,0.0399481749712764,0.102540861496807
3.56,0.0483085873168998,0.095945457652111
3.574,0.0564494363221923,0.0890453609167648
3.588,0.0644376501472823,0.0817241903854505
3.602,0.0722798057660261,0.0738361664151878
3.616,0.0799134379815648,0.0652297436469388
3.63,0.0872069599002814,0.055773585960196
3.644,0.0939688422029202,0.0453818434255701
3.658,0.0999656369009738,0.0340354744986184
3.672,0.104947272055678,0.0217965165456502
3.686,0.1086769281308,0.0088127965842708
3.7,0.110961903469226,-0.00468841328093375
3.714,0.111681357899683,-0.018417932157554
3.728,0.110806831529058,-0.0320519808321146
3.742,0.10841204866305,-0.0452663123502817
3.756,0.104669722664014,-0.0577729341843926
3.77,0.099834761894443,-0.0693544177091631
3.784,0.0942152278102883,-0.0798906976310251
3.798,0.0881343304879628,-0.0893739448671818
3.812,0.0818883512795509,-0.0979085213825802
3.826,0.0757063669141344,-0.105695036361009
3.84,0.069717800774782,-0.112999847587861
3.854,0.0639330527667174,-0.120113641304539
3.868,0.058240813895938,-0.127304607392151
3.882,0.0524663439436101,-0.134912084768484
3.896,0.0461641242240742,-0.143051338986487
3.91,0.0389208169630696,-0.151464226415081
3.924,0.0304839049375686,-0.159881508392521
3.938,0.0207164101084362,-0.167944463956528
3.952,0.0096227221389602,-0.175255100540036
3.966,-0.00264655784701254,-0.181432325838572
3.98,-0.0158114006689598,-0.186165623040568
3.994,-0.029498102013559,-0.189258191683528
4.008,-0.0432884754748186,-0.190653182369009
4.022,-0.0567749654185417,-0.190439294918373
4.036,-0.0696133562957873,-0.188835200105086
4.05,-0.081565252326451,-0.186155474306166
4.064,-0.0925242007754315,-0.182763494567816
4.078,-0.102521943738077,-0.179018603139136
4.092,-0.111714377258819,-0.175225542126511
4.106,-0.12034987541071,-0.171593600799709
4.12,-0.128725218668551,-0.168211232081212
4.134,-0.13713606199511,-0.165039379130704
4.148,-0.145829453259664,-0.161923828345817
4.162,-0.154965318399633,-0.158624042677179
4.176,-0.164592205147143,-0.15485357208636
4.19,-0.17464021895015,-0.150325631101468
4.204,-0.184931393270322,-0.14479697161324
4.218,-0.195205145878909,-0.138103781988141
4.232,-0.205154379510582,-0.130184861194488
4.246,-0.214466485458286,-0.121089461502347
4.26,-0.222863155435131,-0.110969594689606
4.274,-0.230133493341953,-0.100058865407325
4.288,-0.236156287644593,-0.0886416885250931
4.302,-0.240909185409989,-0.0770178217307852
4.316,-0.244429416953292,-0.0655003955523847
4.33,-0.246864628464773,-0.0544304055130981
4.344,-0.248582294532048,-0.0438507406483334
4.358,-0.249813735074928,-0.0337785555943935
4.372,-0.250762132173419,-0.0241563717125781
4.386,-0.251582407648468,-0.0148701240116124
4.4,-0.252369434668979,-0.00577110981982639
4.414,-0.253154539717642,0.00330140234986465
4.428,-0.253909179059053,0.0124995593064784
4.442,-0.254554017284354,0.0219500968529363
4.456,-0.254971427417055,0.0317421661591796
4.47,-0.255019610011916,0.0419198825885164
4.484,-0.254546958691603,0.0524791344787862
4.498,-0.253405812927919,0.0633679718129671
4.512,-0.251465173474569,0.0744899575929067
4.526,-0.248622193904293,0.0857101041407424
4.54,-0.244812255720769,0.0968632887303978
4.554,-0.240017216456635,0.107765203452553
4.568,-0.234271091916079,0.118225835235571
4.582,-0.227662140665457,0.128065152622072
4.596,-0.22033021325489,0.137130135749487
4.61,-0.212458428753117,0.145311641040703
4.624,-0.20425879770407,0.152559011324889
4.638,-0.195952285414763,0.158890010785072
4.652,-0.187744874489666,0.16439373966742
4.666,-0.17980224112702,0.169224754751625
4.68,-0.172226471929143,0.173587678086979
4.694,-0.165038595818646,0.177712999153308
4.708,-0.158170431292819,0.181826347575943
4.722,-0.151468298860765,0.186114954067389
4.736,-0.144709596277788,0.190696032014596
4.75,-0.137631281741958,0.195592150865816
4.764,-0.129737815732416,0.200796122421829
4.778,-0.120998659780772,0.205873025635588
4.792,-0.111353308628316,0.210537966358882
4.806,-0.100848358840708,0.214492887756452
4.82,-0.0896364472209982,0.217466936671066
4.834,-0.0779600650430768,0.219254063941354
4.848,-0.0661222178736028,0.219742231176655
4.862,-0.0544479705952507,0.218929716457698
4.876,-0.0432424072553786,0.216925876694509
4.89,-0.0327511872005065,0.213936049956505
4.904,-0.0231295693132791,0.210232698900811
4.918,-0.0144245396842604,0.206117016354564
4.932,-0.00657270393379537,0.201876690739873
4.946,0.00058579374179721,0.19774612041135
4.96,0.00727950293650271,0.193874975334292
4.974,0.0137683198333005,0.190309696234032
4.988,0.0203022397114117,0.186990509937477
5.002,0.0270824007945323,0.183764152197117
5.016,0.0342301572399265,0.180410109907662
5.03,0.0417685885578434,0.176676199387589
5.044,0.0496188749075036,0.172317992079428
5.058,0.057611670169853,0.167136170710332
5.072,0.065511356829715,0.161006388130166
5.086,0.0730492173508983,0.153897500245008
5.1,0.0799603780200772,0.145875921126376
5.114,0.0860190274648303,0.137095988190465
5.128,0.0910668998538954,0.127778286785839
5.142,0.095031225673596,0.118179554980131
5.156,0.0979300673763582,0.108558837153295
5.17,0.0998648846700413,0.0991448566631219
5.184,0.101002012065879,0.0901091341209526
5.198,0.101546211126648,0.0815483040423787
5.212,0.101710388119123,0.0734775817399493
5.226,0.101685849215561,0.065835656094344
5.24,0.101617110176874,0.0584996890693401
5.254,0.101584389236963,0.0513078114896413
5.268,0.101595662868678,0.0440856729546819
5.282,0.101588761553891,0.0366733058188837
5.296,0.101442633724939,0.0289487886996577
5.31,0.100995787226586,0.0208458614687625
5.324,0.100069152727448,0.0123636173671385
5.338,0.0984902633651482,0.00356752043116332
5.352,0.0961157077803636,-0.00541788967946312
5.366,0.0928492357110631,-0.0144232728825197
5.38,0.088653585825957,-0.0232536825810549
5.394,0.0835549556592545,-0.0317101854151783
5.408,0.0776399325892866,-0.0396112937695795
5.422,0.0710455534073301,-0.0468117681971395
5.436,0.0639438780994926,-0.0532167613567609
5.45,0.0565229938020975,-0.05878987154756
5.464,0.0489666731747643,-0.0635543826966513
5.478,0.0414349839972538,-0.0675877176123126
5.492,0.0340479883342011,-0.0710098537137269
5.506,0.0268743011613891,-0.0739670816359417
5.52,0.0199257359191708,-0.0766129711859988
5.534,0.0131585982312189,-0.0790887003192023
5.548,0.00648146162684974,-0.0815049701422596
5.562,-0.000231457682946795,-0.0839275599213369
5.576,-0.0071228404809931,-0.0863681811859976
5.59,-0.0143327049345886,-0.0887817044523988
5.604,-0.0219789901505767,-0.0910701152270083
5.618,-0.0301405283662914,-0.0930927863307947
5.632,-0.0388979179512862,-0.0946810271632239
5.646,-0.0482098282621123,-0.0956069695030794
5.66,-0.0579025313392872,-0.095700040762015
5.674,-0.067808337026884,-0.0948501425039354
5.688,-0.0777318410063282,-0.0930032218281645
5.702,-0.0874700891941453,-0.0901668203859323
5.716,-0.0968332035261107,-0.0864085634350417
5.73,-0.105663096217393,-0.0818479360311665
5.744,-0.113848192314653,-0.0766424549362643
5.758,-0.121332603097024,-0.0709699466153541
5.772,-0.128118870619451,-0.0650090208149939
5.786,-0.134264147577414,-0.0589199555852278
5.8,-0.139870397951045,-0.0528280864695537
5.814,-0.145069825275057,-0.0468114520485312
5.828,-0.150007199518259,-0.0408939430299311
5.842,-0.154821026593037,-0.0350445963299395
5.856,-0.159649643099235,-0.0291993917473902
5.87,-0.164555955737607,-0.0232066014977958
5.884,-0.169551390073414,-0.0169178581432776
5.898,-0.1745935718517,-0.0101879615058356
5.912,-0.179586644919444,-0.00289051073277693
5.926,-0.184390118313517,0.00506498190843629
5.94,-0.188832904395445,0.013719681536123
5.954,-0.192731141832206,0.0230572436157471
5.968,-0.195907961699037,0.0330018767876307
5.982,-0.198213077075238,0.043423064402699
5.996,-0.199539997750475,0.0541466534973559
6.01,-0.199838821517586,0.0649713005135361
6.024,-0.199122941681533,0.0756886003414482
6.038,-0.197468619833848,0.0861047016396185
6.052,-0.195007155628063,0.0960609054363844
6.066,-0.191907634071354,0.105434454379044
6.08,-0.188384836638603,0.114149915662265
6.094,-0.184650224822886,0.12229711620221
6.108,-0.180855995086037,0.129982853556173
6.122,-0.177099684120792,0.137357886952259
6.136,-0.173411939922937,0.14459476452113
6.15,-0.169752822212903,0.151862526715084
6.164,-0.166017305043815,0.159301492045767
6.178,-0.162049463079984,0.167001413139675
6.192,-0.1576636609805,0.174985932145164
6.206,-0.152670095686572,0.183205498209879
6.22,-0.146901405593544,0.191539829700564
6.234,-0.140236856500136,0.199809752050897
6.248,-0.132620880081757,0.207796989083082
6.262,-0.124073448033768,0.215269405278733
6.276,-0.114690822349333,0.222008440853404
6.29,-0.104636487188393,0.227835158049875
6.304,-0.0941233683738406,0.232631473057049
6.318,-0.0833896053833992,0.236353763691384
6.332,-0.0726710007039377,0.239037035157109
6.346,-0.0621737175701024,0.240789060371234
6.36,-0.0520507716140717,0.241775221509752
6.374,-0.0423853714401723,0.242195991373131
6.388,-0.0331832758319919,0.242259948343786
6.402,-0.0243751707074461,0.242155794960873
6.416,-0.0158287804588501,0.242026976836005
6.43,-0.00736918244836131,0.241952164379341
6.444,0.00119525178594114,0.241934111859662
6.458,0.0100445799267148,0.241898345453396
6.472,0.0193202661853087,0.241701890022654
6.486,0.0291028493392879,0.241150979430445
6.5,0.0393971571990205,0.24002556384597
6.514,0.0502527248138087,0.23805798343412
6.528,0.0613425167822731,0.235031769616071
6.542,0.0724176703898433,0.230846876367378
6.556,0.0832074991922426,0.225490418507071
6.57,0.0934513067668657,0.219038107724072
6.584,0.102928364950717,0.211644446761799
6.598,0.111482255619438,0.203523143520937
6.612,0.119036557696305,0.194920430159065
6.626,0.125600015574329,0.186084837493557
6.64,0.131260701966403,0.177237376977902
6.654,0.13617011096251,0.168545974384157
6.668,0.140519404068347,0.160107398994817
6.682,0.144511019248868,0.151938919563804
6.696,0.148329414778064,0.143980626931293
6.71,0.152114785612199,0.136107961797185
6.724,0.155943154080186,0.128152658677583
6.738,0.159815359081181,0.119929237099442
6.752,0.16365626734601,0.111263479909266
6.766,0.167324168354249,0.102019124923057
6.78,0.170628973950429,0.0921192846443411
6.794,0.173356703927255,0.0815598558160395
6.808,0.175296950396297,0.070413280761888
6.822,0.176269678306446,0.0588223228225913
6.836,0.176147875194272,0.0469848402598891
6.85,0.174873180450156,0.0351317077074786
6.864,0.172462610323447,0.0235008870871737
6.878,0.169005707575655,0.0123110826629146
6.892,0.16465271435478,0.00173837968388804
6.906,0.159595520050093,-0.00810121897493397
6.92,0.154044020569581,-0.0171612988557227
6.934,0.148201031791224,-0.0254656202919255
6.948,0.142324748584894,-0.0330428129264872
6.962,0.13651105098858,-0.0401381380265496
6.976,0.13075643259134,-0.0469464548485785
6.99,0.125014308443507,-0.0536173034180476
7.004,0.119186490705481,-0.060262563687513
7.018,0.113141180385543,-0.0669424129302431
7.032,0.106733904836008,-0.073658703182914
7.046,0.0998286154017708,-0.0803559802741442
7.06,0.0923163887685828,-0.0869294057436299
7.074,0.0841297047208729,-0.0932380715868978
7.088,0.0752510001269594,-0.0991216962955865
7.102,0.0657150062240928,-0.104418493539872
7.116,0.0556051487824728,-0.108982100225146
7.13,0.0450449334508249,-0.112695787549849
7.144,0.0341856878508569,-0.115482679646374
7.158,0.0231922606992422,-0.117311280660395
7.172,0.0122282951164201,-0.118196178034723
7.186,0.00144253541132865,-0.118194279521168
7.2,-0.00904265109174792,-0.11739731098469
7.214,-0.0191396931992773,-0.115921536044229
7.228,-0.0288006759961557,-0.113895766361587
7.242,-0.0380184543942336,-0.111448739628876
7.256,-0.0468240948848881,-0.108696885547762
7.27,-0.0552809331945099,-0.105733410079741
7.284,-0.0634757135934617,-0.102619525894993
7.298,-0.0715074386399851,-0.0993785474745924
7.312,-0.0794747222868632,-0.095993442276146
7.326,-0.0874626083296268,-0.0924082632489939
7.34,-0.0955299765324602,-0.0885336586051053
7.354,-0.103698779306182,-0.0842563455639689
7.368,-0.111946388208257,-0.0794520464638617
7.382,-0.120226712701486,-0.0739528991080036
7.396,-0.128372703591932,-0.0676418193152374
7.41,-0.136180786287508,-0.0605276547900417
7.424,-0.143475317242413,-0.0526354843830381
7.438,-0.15008895208711,-0.0440459381639384
7.452,-0.155881571228511,-0.0348908711844455
7.466,-0.160757203942646,-0.0253424281737247
7.48,-0.16467657567813,-0.0155963518756189
7.494,-0.167663258464864,-0.00585127273034306
7.508,-0.169802101445708,0.00371354843775175
7.522,-0.171229590313455,0.0129591060099869
7.536,-0.172116909148871,0.0218031890651987
7.55,-0.172647594001192,0.0302299876138653
7.564,-0.172992596854844,0.0382909914512214
7.578,-0.173286156744638,0.0460965574030697
7.592,-0.173605979672093,0.0537988542376213
7.606,-0.173960806026157,0.0615682149694734
7.62,-0.174287521234423,0.0695660233589684
7.634,-0.174458654163564,0.0779179454823337
7.648,-0.174299591816999,0.0866914534008252
7.662,-0.17361334668046,0.0958811221127463
7.676,-0.172209483240969,0.105404154422419
7.69,-0.169933051216955,0.115107136259282
7.704,-0.166689227294567,0.124783358885543
7.718,-0.162459883140515,0.134198420587653
7.732,-0.157309417971285,0.143120498893466
7.746,-0.151378760539594,0.151350885723206
7.76,-0.14486822194446,0.158750244684267
7.774,-0.138011589303736,0.165256620339466
7.788,-0.131045217443902,0.170892428003484
7.802,-0.124176677373551,0.175759299780145
7.816,-0.117583395717052,0.180024069738865
7.83,-0.111379846030274,0.183936602206163
7.844,-0.10544945252857,0.187708331671258
7.858,-0.0996847712237761,0.191491642112398
7.872,-0.0939321101672806,0.195379179966944
7.886,-0.0880177455765131,0.199392678442228
7.9,-0.0817757159084017,0.203482393923855
7.914,-0.0750731409180207,0.207536701207757
7.928,-0.0678295863278349,0.21139993277559
7.942,-0.0600280602800033,0.214895451607191
7.956,-0.0517165939907505,0.217850367023305
7.97,-0.0430007968039179,0.220118298376866
7.984,-0.0340290576479989,0.22159712649994
7.998,-0.024973002455454,0.222239627491404
8.012,-0.0160062900682761,0.222056078363196
8.026,-0.0072848009216419,0.22110915386456
8.04,0.00106920902098689,0.219502503689758
8.054,0.00897723463822404,0.217365156825451
8.068,0.0164081662773861,0.214834257357233
8.082,0.0233756822572536,0.21203858084508
8.096,0.0299304534979282,0.209084869113314
8.11,0.0361487892819013,0.20604836449715
8.124,0.0421195950129384,0.202968160921988
8.138,0.0479314410769265,0.199847257795276
8.152,0.0536612197146829,0.196656617661227
8.166,0.0593653926610188,0.193342160468404
8.18,0.0650743168861772,0.189833495308307
8.194,0.070789678332824,0.186053265107694
8.208,0.0764847331381731,0.18192619581133
8.222,0.0821068808286495,0.177387216646434
8.236,0.0875820611731865,0.172388273557666
8.25,0.0928205297599271,0.166903637031215
8.264,0.0977126297874112,0.160880691615272
8.278,0.102136791764361,0.154412271208188
8.292,0.10600713775306,0.147569318778757
8.306,0.109258489434769,0.140444913803881
8.32,0.111852448486936,0.133147492066164
8.334,0.113781393477305,0.125792260813608
8.348,0.115069757055091,0.118491398708941
8.362,0.115772107958816,0.111343905634524
8.376,0.115967858012885,0.104426193005712
8.39,0.115752822338156,0.0977846135551664
8.404,0.11522832678272,0.091431066759027
8.418,0.114489001667792,0.0853425565894342
8.432,0.11361073799713,0.0794651336977998
8.446,0.112640432691306,0.0737220755351105
8.46,0.111589060748188,0.0680255288471063
8.474,0.110429270979158,0.0622902625202353
8.488,0.109098139943085,0.0564477583097733
8.502,0.107505009896555,0.0504586873456088
8.516,0.105543586793125,0.0443219300981928
8.53,0.103106803398145,0.0380786984840632
8.544,0.100102473570101,0.0318109631657763
8.558,0.0964675629890242,0.0256341855837592
8.572,0.0921790224796433,0.0196851828446128
8.586,0.0872595645179482,0.0141066848862499
8.6,0.0817774520696797,0.00903066072283694
8.614,0.0758402103578891,0.00456270965158287
8.628,0.0695830394401688,0.000769696304590094
8.642,0.0631534668959164,-0.00232762944543187
8.656,0.0566943204915389,-0.00475598018327596
8.67,0.0503273402986958,-0.00658464318552933
8.684,0.0441396556111563,-0.00791502317245829
8.698,0.0382262739589537,-0.00888623293303222
8.712,0.032526850603899,-0.00964154904325628
8.726,0.0269578359472561,-0.0102673738636307
8.74,0.0214289759845789,-0.0108135708986887
8.754,0.0158402391930422,-0.0112871145372297
8.768,0.0100979476486502,-0.0116521848873792
8.782,0.00412953400070479,-0.0118358687602962
8.796,-0.00210489499092683,-0.011738508309055
8.81,-0.00860551261190392,-0.0112471993718641
8.824,-0.0153309360368929,-0.0102506241339869
8.838,-0.0222016126603437,-0.0086533309223699
8.852,-0.029107803553995,-0.00638773808576079
8.866,-0.0359210162133445,-0.00342250057319781
8.88,-0.0425073850621272,0.000233621674952219
8.894,-0.0487413412772492,0.00453268422843756
8.908,-0.0545179559012418,0.00939298864504201
8.922,-0.0597625621793933,0.0147082380276616
8.936,-0.0644366277370396,0.0203592404634035
8.95,-0.0685393066014515,0.026226738108301
8.964,-0.0721046022724721,0.0322038582433649
8.978,-0.07519456345905,0.0382067642707423
8.992,-0.0778893656611334,0.0441823142798002
9.006,-0.080275464236023,0.0501118851437503
9.02,-0.0824332076267191,0.0560109545392842
9.034,-0.0844253543934386,0.0619245084265766
9.048,-0.0862878387664904,0.067918810759925
9.062,-0.0880238843992124,0.0740704880998668
9.076,-0.0896021965486178,0.0804542005248822
9.09,-0.090959503712698,0.0871303549263878
9.104,-0.0920072170557646,0.0941343420595005
9.118,-0.0926414833766919,0.101468634412488
9.132,-0.0927349011301893,0.109120538408311
9.146,-0.0921729235345853,0.11699457810104
9.16,-0.0909112912608468,0.124951088902105
9.174,-0.0889286311685925,0.132864289053315
9.188,-0.0862410789384442,0.140607306384141
9.202,-0.0829002351217775,0.148064747522468
9.216,-0.0789869337074956,0.155143737751
9.23,-0.0746016186031763,0.161782072251427
9.244,-0.0698525531460172,0.167952479174695
9.258,-0.0648433660801601,0.173662487341296
9.272,-0.0596615241789862,0.178949955165778
9.286,-0.0543692011467215,0.18387487922702
9.3,-0.0489976968213129,0.188508585451492
9.314,-0.0435460894617026,0.192921746157653
9.328,-0.0379842394642419,0.197172813711301
9.342,-0.0322596819569889,0.201298393898116
9.356,-0.0263074289985115,0.205306807091503
9.37,-0.0200613222381678,0.209175640570999
