"Freq [GHz]","re(S(Antenna1_1_1,Antenna1_1_1)) []","im(S(Antenna1_1_1,Antenna1_1_1)) []"
3,-0.197097264928988,-0.172155471227234
3.014,-0.204932667652747,-0.161142952199258
3.028,-0.212383173578388,-0.149544809799664
3.042,-0.219341443711436,-0.137258737526439
3.056,-0.22565125258227,-0.124223889768411
3.07,-0.231125734094712,-0.110436498977446
3.084,-0.235569783765208,-0.0959577920853507
3.098,-0.238803543261923,-0.080913377244334
3.112,-0.240683869103844,-0.0654844366292406
3.126,-0.241121081983139,-0.0498921270314518
3.14,-0.240089030386347,-0.0343774156212188
3.154,-0.237627462044555,-0.0191790641495428
3.168,-0.233836735499906,-0.00451257504165386
3.182,-0.228865876033273,0.0094473614846198
3.196,-0.222895759547314,0.0225789665278529
3.21,-0.216119704714221,0.0348188625104012
3.224,-0.208717456849461,0.046149511877461
3.238,-0.200860724603831,0.0566006620847824
3.252,-0.192692745765574,0.0662762643445694
3.266,-0.184290241630104,0.0752876358658589
3.28,-0.175677244047805,0.0837486257685899
3.294,-0.16682921593813,0.0917575189300662
3.308,-0.157682726373509,0.099381746891712
3.322,-0.148149321271954,0.106646930854419
3.336,-0.138131884164228,0.113531217981311
3.35,-0.127541643555919,0.119965263284718
3.364,-0.116314041214092,0.125837623694404
3.378,-0.104421897508812,0.131004822870392
3.392,-0.091884652757791,0.135304951104407
3.406,-0.0787728812555975,0.138573402183274
3.42,-0.0652077245272683,0.140659220885802
3.434,-0.051355336768004,0.14144053247856
3.448,-0.0373523473625896,0.140752599251272
3.462,-0.0235371657899594,0.138585196814271
3.476,-0.0101834379965457,0.135030312727553
3.49,0.00249638673621702,0.130220959593356
3.504,0.0143384347228384,0.124337498163651
3.518,0.0252391407468556,0.117589630506805
3.532,0.0351606166941852,0.110195622926097
3.546,0.0441290778402764,0.102360879928807
3.56,0.0522264143225998,0.094258092051111
3.574,0.0595756783559922,0.0860110851887648
3.588,0.0663219030932823,0.0776842003562505
3.602,0.0726102162840261,0.0692785385061878
3.616,0.0785635993755648,0.0607357420799388
3.63,0.0842628142402814,0.051949201566496
3.644,0.0897309329569702,0.0427817405645701
3.658,0.0949245410099738,0.0330880329716184
3.672,0.0997330509946782,0.0227393363726502
3.686,0.1039867067599,0.0116476801392708
3.7,0.107472855829226,-0.000213496087433754
3.714,0.109959029054683,-0.012795047620554
3.728,0.111220417465058,-0.0259663938441146
3.742,0.11106860739905,-0.0395196698582817
3.756,0.109378042049514,-0.0531839342981926
3.77,0.106106703695443,-0.0666483444661631
3.784,0.101307991332288,-0.0795919850660251
3.798,0.0951316800139628,-0.0917170150741818
3.812,0.0878131065827509,-0.10278113188158
3.826,0.0796511922331344,-0.112625161407509
3.84,0.070977405401782,-0.121191930714861
3.854,0.0621190900967174,-0.128533460607539
3.868,0.053361544002938,-0.134804850425051
3.882,0.0450661346034101,-0.140236494342484
3.896,0.0373246459120742,-0.145274957079487
3.91,0.0298839057510696,-0.150264410969081
3.924,0.0225306730165686,-0.155416848251521
3.938,0.0149854086554362,-0.160839302784868
3.952,0.0069450186269602,-0.166516750400036
3.966,-0.00187092834901254,-0.172311426862572
3.98,-0.0116766168459598,-0.177978823610568
3.994,-0.022584876328559,-0.183198401267328
4.008,-0.0345853326818186,-0.187615067715009
4.022,-0.0475388855725417,-0.190885976976373
4.036,-0.0611894212017873,-0.192726428853086
4.05,-0.075191363343691,-0.192948703941866
4.064,-0.0891495214874315,-0.191488558023816
4.078,-0.102666007953077,-0.188415712343136
4.092,-0.115388001072819,-0.183926799517511
4.106,-0.12704997082581,-0.178321573548209
4.12,-0.137504684871551,-0.171965448234212
4.134,-0.14673878654411,-0.165243283323704
4.148,-0.154870785292664,-0.158510537754817
4.162,-0.162131647980633,-0.152048289038679
4.176,-0.168830508792143,-0.14602812388236
4.19,-0.17531001087015,-0.140491603554468
4.204,-0.181897185014322,-0.13534707425524
4.218,-0.188856373215909,-0.130384289150141
4.232,-0.196350438587582,-0.125304945182588
4.246,-0.204415407647286,-0.119765131058347
4.26,-0.212951916118131,-0.113424112690606
4.274,-0.221734615910953,-0.105993054507325
4.288,-0.230438345205053,-0.0972772934442931
4.302,-0.238677677610989,-0.0872066376517852
4.316,-0.246009639361292,-0.0757960785333847
4.33,-0.251907908095773,-0.0632340517710981
4.344,-0.256248377938048,-0.0500902544127334
4.358,-0.258967782310928,-0.0367754597513935
4.372,-0.260140258185419,-0.0236902409985781
4.386,-0.259963034059468,-0.0111788690246124
4.4,-0.258727411870979,0.000508186718173607
4.414,-0.256779187724642,0.0112387971327646
4.428,-0.254473810651053,0.0210081750174784
4.442,-0.252132026579354,0.0299317881959363
4.456,-0.250001472339055,0.0382236429501796
4.47,-0.248228740237516,0.0461631418553164
4.484,-0.246844974250603,0.0540549982577862
4.498,-0.245766287027919,0.0621873658059671
4.512,-0.244808433395569,0.0707933611399067
4.526,-0.243713469386393,0.0800205498127424
4.54,-0.242184765052769,0.0899118325386978
4.554,-0.239925871061635,0.100399671733553
4.568,-0.236678443627079,0.111313932691571
4.582,-0.232254717528457,0.122401984804072
4.596,-0.22656082187599,0.133358306109187
4.61,-0.219608439418117,0.143859812243703
4.624,-0.21151375872907,0.153602589733889
4.638,-0.202484181306763,0.162335693453072
4.652,-0.192794646290966,0.16988814749842
4.666,-0.18275657009602,0.176186190386725
4.68,-0.172683150709143,0.181259008808979
4.694,-0.162855089470646,0.185232561014308
4.708,-0.153490622816819,0.188312444053943
4.722,-0.144723170284165,0.190757959668389
4.736,-0.136588975060788,0.192850457052596
4.75,-0.129025954244958,0.194859588741816
4.764,-0.121921602225416,0.197270891137829
4.778,-0.114848969775772,0.199973821876588
4.792,-0.107566396817316,0.202953979996882
4.806,-0.0998558705527082,0.206112780102452
4.82,-0.0915484791139982,0.209281361516066
4.834,-0.0825435887520768,0.212241519241354
4.848,-0.0728200159609028,0.214751186853355
4.862,-0.0624383490152507,0.216571651600698
4.876,-0.0515344969973786,0.217493623019509
4.89,-0.0403054201815065,0.217359498190505
4.904,-0.0289887454851791,0.216079635577011
4.918,-0.0178385315402604,0.213641111668564
4.932,-0.00709977586979537,0.210108223329873
4.946,0.00301567060579721,0.20561483900035
4.96,0.0123492996880027,0.200349516897292
4.974,0.0208101891003005,0.194535025632232
4.988,0.0283818436254117,0.188404458106477
5.002,0.0351209396375323,0.182176473112117
5.016,0.0411481055939265,0.176032297319761
5.03,0.0466316951962434,0.170096960303589
5.044,0.0517662536425036,0.164426825526428
5.058,0.056747966802853,0.159004852241332
5.072,0.061749754876815,0.153744229659166
5.086,0.0668987791688983,0.148500137472908
5.1,0.0722589487680772,0.143088491261076
5.114,0.0778205461228303,0.137309720465465
5.128,0.0834983693938954,0.130974991789639
5.142,0.089138877595596,0.123931912115031
5.156,0.0945358103915582,0.116086681256295
5.17,0.0994527458510413,0.107419944724122
5.184,0.103650172952879,0.0979942117459526
5.198,0.106914003695848,0.0879516057793787
5.212,0.109082126624123,0.0775018167642493
5.226,0.110065671935561,0.066901307599344
5.24,0.109862137818874,0.0564259528523401
5.254,0.108558388084963,0.0463402118954413
5.268,0.106322691624678,0.0368665315036819
5.282,0.103386308860791,0.0281588362388837
5.296,0.100016480570939,0.0202836481556577
5.31,0.0964838673411865,0.0132115887607625
5.324,0.0930283580864478,0.00682082663413847
5.338,0.0898275786241482,0.000912572973563321
5.352,0.0869723026293636,-0.00476283060346312
5.366,0.0844522805980631,-0.0104721423362197
5.38,0.082154814801957,-0.0164618307741549
5.394,0.0798768484140545,-0.0229218044761783
5.408,0.0773495924922866,-0.0299550838695795
5.422,0.0742730094503301,-0.0375576843291395
5.436,0.0703560382730926,-0.0456118275167609
5.45,0.0653574931480975,-0.05389397204656
5.464,0.0591222474057643,-0.0620972503546513
5.478,0.0516077034712538,-0.0698659609903126
5.492,0.0428966282842011,-0.0768380560047269
5.506,0.0331940873333891,-0.0826903248989417
5.52,0.0228082397995708,-0.0871803991869988
5.534,0.0121169017992189,-0.0901798919882023
5.548,0.00152375724194974,-0.0916939506342596
5.562,-0.00859037911014679,-0.0918641362953369
5.576,-0.0179149883779931,-0.0909536554621976
5.59,-0.0262496642515886,-0.0893162836303988
5.604,-0.0335308226685767,-0.0873525340530083
5.618,-0.0398413729482914,-0.0854584303384947
5.632,-0.0453378661292862,-0.0840827623702239
5.646,-0.0504716557471123,-0.0835085437500794
5.66,-0.0557593999992872,-0.083669144519015
5.674,-0.061596317145784,-0.0844220129109354
5.688,-0.0682984480190282,-0.0854869598431645
5.702,-0.0760591249901453,-0.0864835234986743
5.716,-0.0849216020111107,-0.0869811382440417
5.73,-0.0947712443833931,-0.0865555136851665
5.744,-0.105348104140653,-0.0848438927281643
5.758,-0.116278057945024,-0.0815920866103542
5.772,-0.127118308839451,-0.0766873357389939
5.786,-0.137411258477414,-0.0701729523072278
5.8,-0.146739767388245,-0.0622431009535537
5.814,-0.154776751151957,-0.0532186445315312
5.828,-0.161322900071259,-0.0435073854038311
5.842,-0.166327929989037,-0.0335539605729395
5.856,-0.169837873464235,-0.0238266984193902
5.87,-0.172172230718607,-0.0146837470822958
5.884,-0.173692835497914,-0.00634931453227758
5.898,-0.1747977752737,0.00109128860416441
5.912,-0.175878453557444,0.00769953517722307
5.926,-0.177269432063517,0.0136703305014363
5.94,-0.179206578195245,0.0193024543371231
5.954,-0.181798423440206,0.0249568634987471
5.968,-0.185013868460037,0.0310082749606307
5.982,-0.188687285374238,0.037796090062699
5.996,-0.192539935140475,0.0455806030880903
6.01,-0.196214698259886,0.0545096108125361
6.024,-0.199319630449533,0.0645991355524481
6.038,-0.201474957613848,0.0757301869626185
6.052,-0.202357893547763,0.0876615457843844
6.066,-0.201709350856254,0.100071620610044
6.08,-0.199344947731603,0.112541043533265
6.094,-0.195405953971886,0.12458128142221
6.108,-0.190088113112037,0.135827644378173
6.122,-0.183688267050792,0.146004476244659
6.136,-0.176567421891637,0.15495208465813
6.15,-0.169107607686903,0.162639485839084
6.164,-0.161667631881815,0.169161975442767
6.178,-0.154542765362684,0.174724257085675
6.192,-0.1479327978775,0.179611429927064
6.206,-0.141921845666572,0.184151399990879
6.22,-0.136471917355544,0.188673120596564
6.234,-0.131430697725136,0.193465416927897
6.248,-0.126552455119757,0.198740990439682
6.262,-0.121529572851768,0.204609561673733
6.276,-0.116031084859333,0.211063069872404
6.29,-0.109743867808393,0.217974515220875
6.304,-0.102411874187441,0.225110540581049
6.318,-0.0938690087153992,0.232156354017684
6.332,-0.0840619327239377,0.238750241886109
6.346,-0.0730601625371024,0.244523853422234
6.36,-0.0610522029500717,0.249143765382502
6.374,-0.0483279881581723,0.252349636876131
6.388,-0.0352494325739919,0.253984572246786
6.402,-0.0222122593794461,0.254014104966873
6.416,-0.00960332257995013,0.252531427030005
6.43,0.00224175684863869,0.249747997491341
6.444,0.0130757415439411,0.245970313658962
6.458,0.0227672920467148,0.241565238622396
6.472,0.0313154197453087,0.236917664677654
6.486,0.0388488789852879,0.232385285649444
6.5,0.0456102031200205,0.22825572141797
6.514,0.0518674457868087,0.22495582384712
6.528,0.0582159325492731,0.222306054902071
6.542,0.0650150727664233,0.220138909256378
6.556,0.0725380312122426,0.218165962720071
6.57,0.0809351371688657,0.216015467450272
6.584,0.0902124804437169,0.213280240697799
6.598,0.100228329897438,0.209570006151037
6.612,0.110707841713305,0.204561777589065
6.626,0.121274282378329,0.198042089034557
6.64,0.131492952640403,0.189935855830902
6.654,0.14092241944421,0.180318282349157
6.668,0.149166743820947,0.169408316085817
6.682,0.155922253448868,0.157544427363804
6.696,0.161013070678064,0.145145684300293
6.71,0.164410990675199,0.132662919629185
6.724,0.166237238599186,0.120526019273783
6.738,0.166745877949181,0.109093847284442
6.752,0.16629091382311,0.0986129968742664
6.766,0.165281151011249,0.0891904645560571
6.78,0.164128376767829,0.0807836218303411
6.794,0.163195255688255,0.0732087230680395
6.808,0.162749351340297,0.066166906341688
6.822,0.162928927326446,0.0592844989125913
6.836,0.163724728822272,0.0521626945335891
6.85,0.164979988138156,0.0444305365317786
6.864,0.166408678139447,0.0357947518781737
6.878,0.167629828358655,0.0260803770189146
6.892,0.16821378724378,0.015257239944888
6.906,0.167734889753693,0.00344907100906604
6.92,0.165824236407581,-0.00907590365372272
6.934,0.162216289052224,-0.0219318303273255
6.948,0.156533695474894,-0.0346305448554872
6.962,0.14902577751758,-0.0465131454163496
6.976,0.14006328300834,-0.0571460120615785
6.99,0.130048149299507,-0.0662357235680476
7.004,0.119446647840481,-0.073638680309513
7.018,0.108734710608543,-0.0793716954052431
7.032,0.0983436380657084,-0.083603533907914
7.046,0.0886125008787708,-0.0866288928241442
7.06,0.0797525988815828,-0.0888282917112299
7.074,0.0718278144878729,-0.0906188648308978
7.088,0.0647527849879594,-0.0924019589290465
7.102,0.0583087437930928,-0.094513665667872
7.116,0.0521748778556728,-0.097183952509146
7.13,0.0459713334398249,-0.100508972465849
7.144,0.0393087529975569,-0.104439566396374
7.158,0.0318385648596422,-0.108787102659395
7.172,0.02329823246742,-0.113245835034723
7.186,0.0135462902593286,-0.117429112324168
7.2,0.00258317312825208,-0.12091523657979
7.214,-0.0094445460052773,-0.123297700742029
7.228,-0.0222570341761557,-0.124234049768587
7.242,-0.0354697975362336,-0.123487751427876
7.256,-0.0486348360448881,-0.120958218846762
7.27,-0.0612897520166099,-0.116695419436741
7.284,-0.0730092656635617,-0.110897200941993
7.298,-0.0834532434689851,-0.103889389323592
7.312,-0.0924056429858632,-0.096090662414146
7.326,-0.0997997015966268,-0.0879659681819939
7.34,-0.10572616138246,-0.0799736410885053
7.354,-0.110423182806182,-0.0725122130149689
7.368,-0.114248663355557,-0.0658731072338617
7.382,-0.117706031452486,-0.0603521349720036
7.396,-0.121389400164832,-0.0558448069932374
7.41,-0.125641123761008,-0.0519307686950417
7.424,-0.130701305006413,-0.0482420635260381
7.438,-0.13666196316611,-0.0443491577689384
7.452,-0.143455047350511,-0.0398152774724455
7.466,-0.150859524781646,-0.0342516466383247
7.48,-0.15852679614313,-0.0273671424106189
7.494,-0.166021543533864,-0.0190064729853431
7.508,-0.172873273529708,-0.00917226925724825
7.522,-0.178632500482955,0.00197167220998695
7.536,-0.182924889519871,0.0141165543181987
7.55,-0.185496834498192,0.0268424040242653
7.564,-0.186246882798844,0.0396656671312214
7.578,-0.185239042267638,0.0520949703125697
7.592,-0.182696136745093,0.0636883765453213
7.606,-0.178973769621157,0.0741051761994734
7.62,-0.174517825626423,0.0831458115889684
7.634,-0.169810500229763,0.0907748795093337
7.648,-0.165311334846299,0.0971241470098253
7.662,-0.16140045904146,0.102474921625746
7.676,-0.158331092029969,0.107221650638819
7.69,-0.156197334217955,0.111820975971282
7.704,-0.154921492456567,0.116732346635543
7.718,-0.154262834948515,0.122357446941653
7.732,-0.153847043169185,0.128985976845466
7.746,-0.153213038984594,0.136754668131206
7.76,-0.15187163908632,0.145624897843267
7.774,-0.149368910361736,0.155382041403466
7.788,-0.145346378998902,0.165657053340484
7.802,-0.139590490117551,0.175967997439145
7.816,-0.132007863296052,0.185735879116765
7.83,-0.122719960721274,0.194265799536163
7.844,-0.11231735383257,0.201233330433258
7.858,-0.101292268737276,0.206408693959398
7.872,-0.0901811452463806,0.209740594973944
7.886,-0.0795005045638131,0.211359535230228
7.9,-0.0696858877584017,0.211558815571855
7.914,-0.0610413577130206,0.210755734706757
7.928,-0.0537057091048349,0.20943791568429
7.942,-0.0476394333380033,0.208101493001391
7.956,-0.0426339005137505,0.207188855489305
7.97,-0.0383414696519179,0.207033648308866
7.984,-0.0343226617089989,0.20781979533194
7.998,-0.030104443950804,0.209559532304404
8.012,-0.0252423340992761,0.212093063830196
8.026,-0.0193785992646419,0.21510977030956
8.04,-0.0122893467910131,0.218188226993348
8.054,-0.00391471217477596,0.220849984659351
8.068,0.00563153462438612,0.222620383167733
8.082,0.0160740840202536,0.22308882860308
8.096,0.0270083161349282,0.221961061016314
8.11,0.0379486173949013,0.21909695635415
8.124,0.0483867647588384,0.214529213384988
8.138,0.0578531343559265,0.208460648766276
8.152,0.0659731629066829,0.201240466341227
8.166,0.0725120932460188,0.193322455926404
8.18,0.0774024916451772,0.185210294193907
8.194,0.080751152519824,0.177396696792594
8.208,0.0828245422931731,0.17030391597433
8.222,0.0840145678251495,0.164232904267434
8.236,0.0847888635581865,0.159327396756666
8.25,0.0856316832999471,0.155557335802215
8.264,0.0871925366351112,0.152867068336272
8.278,0.0896703192653615,0.150614910489188
8.292,0.0931762330110604,0.148338161253757
8.306,0.0976485974397695,0.145568487629181
8.32,0.102863330507936,0.141891678282664
8.334,0.108464040151305,0.136999553346608
8.348,0.114007664104491,0.130727926942941
8.362,0.119019815294216,0.123076330562524
8.376,0.123052949617275,0.114207490485712
8.39,0.125740279578356,0.104427027355166
8.404,0.12683901472072,0.094146211045527
8.418,0.126257920603792,0.0838325796234342
8.432,0.12406616733613,0.0739545906803998
8.446,0.120482738070306,0.0649270686129104
8.46,0.115848007372188,0.0570639883781063
8.474,0.110581199922158,0.0505441393592353
8.488,0.105129058223685,0.0453935770067733
8.502,0.0999120024976551,0.0414867022456088
8.516,0.0952742583421247,0.0385655626221928
8.53,0.0914438514171447,0.0362748131762516
8.544,0.0885071073401012,0.0342079606247763
8.558,0.0864005111760243,0.0319592471438592
8.572,0.0849206937956433,0.0291749466965128
8.586,0.0837511711129482,0.0255980013212499
8.6,0.0825025166856797,0.0211007843078369
8.614,0.0807611192327891,0.0157022281135829
8.628,0.0781407323284688,0.0095674185745901
8.642,0.0743307606849164,0.00298981165256813
8.656,0.0691356632285389,-0.00364176338047596
8.67,0.0625009251146958,-0.00988741693952933
8.684,0.0545226266011563,-0.0153066625062583
8.698,0.0453354402209537,-0.0193364626960322
8.712,0.035510983696899,-0.0217409007562563
8.726,0.0255573530822561,-0.0224836795066307
8.74,0.0159249082734789,-0.0216368365586887
8.754,0.00700836563884219,-0.0194113544142297
8.768,-0.000895290458349771,-0.0161290237753792
8.782,-0.00761672351929521,-0.0121822952469962
8.796,-0.0131288540359268,-0.00798692208135498
8.81,-0.0175447987009039,-0.00393290060306414
8.824,-0.0210996585788929,-0.000339302239986855
8.838,-0.0241184646649437,0.0025819334126301
8.852,-0.026974098049795,0.00474924322123921
8.866,-0.0300400744195445,0.00621921054780219
8.88,-0.0336436114591272,0.00717809460095222
8.894,-0.0380243325172492,0.00791816884643756
8.908,-0.0433033118572418,0.00880161077804201
8.922,-0.0494660064003933,0.0102160759046215
8.936,-0.0563610692490396,0.0125270292695035
8.95,-0.0637152647004515,0.016032296397301
8.964,-0.0711628910234721,0.0209240860933649
8.978,-0.07828646027055,0.0272629455357423
8.992,-0.0846640652611334,0.0349668102288002
9.006,-0.089918032350023,0.0438166390137503
9.02,-0.0937592165897191,0.0534782522922842
9.034,-0.0960216850164386,0.0635381212813766
9.048,-0.0966835286414904,0.073549195289025
9.062,-0.0958710515962124,0.0830815954730668
9.076,-0.0938454534346178,0.0917723026348822
9.09,-0.090973147928498,0.0993679231473878
9.104,-0.0876828219157646,0.1057552604775
9.118,-0.0844140012485919,0.110975702170488
9.132,-0.0816888118961893,0.115172739572311
9.146,-0.0798387889565853,0.11879914191644
9.16,-0.0788417788088469,0.122361542267405
9.174,-0.0786218161695925,0.126278010474015
9.188,-0.0789571331274442,0.130911239377141
9.202,-0.0795083255517775,0.136521557691468
9.216,-0.0798609718459956,0.143232418299
9.23,-0.0795775878371763,0.151012604400427
9.244,-0.0782526269518172,0.159677400086695
9.258,-0.0755638119701601,0.168908677712296
9.272,-0.0713134782489862,0.178291538099578
9.286,-0.0654547831327215,0.18736308602632
9.3,-0.0580994594943129,0.195667390645192
9.314,-0.0495060464427026,0.202809866681653
9.328,-0.0400499427342419,0.208504329207301
9.342,-0.0301788989713889,0.212606831926116
9.356,-0.0203594072570115,0.215131999848503
9.37,-0.0110206246971678,0.216249720254999
