"Freq [GHz]","re(S(Antenna1_1_1,Antenna1_1_1)) []","im(S(Antenna1_1_1,Antenna1_1_1)) []"
3,-0.199567880025988,-0.174286176942434
3.014,-0.207971510715447,-0.162254281431158
3.028,-0.215591590589788,-0.149514311309664
3.042,-0.222309173631936,-0.136112908944439
3.056,-0.22800970720027,-0.122129863036411
3.07,-0.232593550706212,-0.107675556232446
3.084,-0.235984830755208,-0.0928852794886507
3.098,-0.238137878292923,-0.077911265972834
3.112,-0.239040854142844,-0.0629133707201406
3.126,-0.238716459495139,-0.0480492735046518
3.14,-0.237219822838047,-0.0334649807532188
3.154,-0.234633772810055,-0.0192863099335428
3.168,-0.231061795712306,-0.00561198924265386
3.182,-0.226619091567773,0.0074910108476198
3.196,-0.221422319981314,0.0199893235468529
3.21,-0.215578865319221,0.0318817169976012
3.224,-0.209181729077461,0.043186315287861
3.238,-0.202303525229831,0.0539501388357824
3.252,-0.194962096700574,0.0642460529681694
3.266,-0.187142542348904,0.0741229024218589
3.28,-0.178799696927655,0.0836062444935899
3.294,-0.16986927066113,0.0926871350350662
3.308,-0.160282930094909,0.101315728936712
3.322,-0.149985230444654,0.109401092227419
3.336,-0.138949812227228,0.116817684506111
3.35,-0.127192216243919,0.123417862028618
3.364,-0.114777100352092,0.129048685151404
3.378,-0.101818504415812,0.133570507333992
3.392,-0.088472954600391,0.136874450740407
3.406,-0.0749264060423975,0.138896023594274
3.42,-0.0613770562812683,0.139622785434802
3.434,-0.048016717333004,0.13909499047856
3.448,-0.0350492349312896,0.137346539178972
3.462,-0.0226176568929594,0.134569513736271
3.476,-0.0107794938325457,0.130941385824553
3.49,0.000453362292217019,0.126609414939356
3.504,0.0111103381977384,0.121695415913251
3.518,0.0212482142600336,0.116284996016805
3.532,0.0309351750266852,0.110422803945097
3.546,0.0402351515662764,0.104113638087807
3.56,0.0491943011848998,0.097328521966111
3.574,0.0578308640231922,0.0900144211850648
3.588,0.0661290189402823,0.0821061480144505
3.602,0.0740368589720261,0.0735391014511878
3.616,0.0814682790835648,0.0642617069779388
3.63,0.0883084033085814,0.054246636980196
3.644,0.0944221056657702,0.0435000345515701
3.658,0.0996651075809738,0.0320680150536184
3.672,0.103896986515678,0.0200397273356502
3.686,0.1069951762398,0.0075463069178708
3.7,0.108868711796226,-0.00524475952933375
3.714,0.109470163013683,-0.018139952821554
3.728,0.108804033984058,-0.0309342304601146
3.742,0.10693000164505,-0.0434285182422817
3.756,0.103959798778014,-0.0554482682773926
3.77,0.100047313285343,-0.0668606379521631
3.784,0.0953724861262883,-0.0775876559380251
3.798,0.0901206771619628,-0.0876130030801818
3.812,0.0844601188305509,-0.0969807698639802
3.826,0.0785206814401344,-0.105785676934509
3.84,0.072377271455782,-0.114155586134861
3.854,0.0660407071157174,-0.122228450585539
3.868,0.059457907741938,-0.130126903316151
3.882,0.0525413397213101,-0.138014236458484
3.896,0.0450631621340742,-0.145921374856487
3.91,0.0368277172090696,-0.153677176022081
3.924,0.0277286013955686,-0.161115941003521
3.938,0.0177241831884362,-0.168029867866498
3.952,0.0068492460339602,-0.174196242568036
3.966,-0.00478443428501254,-0.179406873390572
3.98,-0.0169985119939598,-0.183495435539568
3.994,-0.029567799115789,-0.186358790530528
4.008,-0.0422462754368186,-0.187969323605009
4.022,-0.0547955189155417,-0.188376731319373
4.036,-0.0670114533797873,-0.187699265753086
4.05,-0.078745677015451,-0.186105960319666
4.064,-0.0899185300574315,-0.183792604851816
4.078,-0.100522330951077,-0.180955035965136
4.092,-0.110614658032819,-0.177763567031511
4.106,-0.12030296449451,-0.174342086014709
4.12,-0.129722988838151,-0.170754563779212
4.134,-0.13901420391111,-0.167000570946704
4.148,-0.148295839045664,-0.163020074248817
4.162,-0.157646788498633,-0.158706469319079
4.176,-0.167092035719143,-0.15392569370866
4.19,-0.17659719261915,-0.148538504664468
4.204,-0.186071538952322,-0.14242269796324
4.218,-0.195378734810909,-0.135492214083141
4.232,-0.204353349092382,-0.127710680318488
4.246,-0.212820644398286,-0.119097860973347
4.26,-0.220616773299131,-0.109728575078606
4.274,-0.227606690548953,-0.0997247152733253
4.288,-0.233697616930593,-0.0892418967998931
4.302,-0.238846688922989,-0.0784528559520852
4.316,-0.243039662260292,-0.0675464957313847
4.33,-0.246320804830773,-0.0567422627540981
4.344,-0.248884564985548,-0.0461113374383334
4.358,-0.250854453868028,-0.0357064392653935
4.372,-0.252350829029419,-0.0255381486225781
4.386,-0.253478789437468,-0.0155802109846124
4.4,-0.254318836570979,-0.00577763123882639
4.414,-0.254920624674642,0.00394350217736465
4.428,-0.255299825114053,0.0136653756622784
4.442,-0.255437975542354,0.0234677237999363
4.456,-0.255285139916055,0.0334176157121796
4.47,-0.254765204590116,0.0435603047295164
4.484,-0.253783604894303,0.0539117266407862
4.498,-0.252237159222919,0.0644533031599671
4.512,-0.250025464284569,0.0751297426319067
4.526,-0.247063001978293,0.0858504542037424
4.54,-0.243290793605769,0.0964949518860478
4.554,-0.238686204183635,0.106922210231753
4.568,-0.233269442622079,0.116983384659571
4.582,-0.227105490977456,0.126536714456072
4.596,-0.22030064845629,0.135462903720487
4.61,-0.212993555458217,0.143678947603703
4.624,-0.20534137496407,0.151148336742889
4.638,-0.197502617989763,0.157885880791072
4.652,-0.189618756961666,0.16395602746362
4.666,-0.18179714232902,0.169464435550625
4.68,-0.174097734267143,0.174543555096979
4.694,-0.166525757848646,0.179333912630308
4.708,-0.159031632153819,0.183963532667943
4.722,-0.151518520856445,0.188528319280389
4.736,-0.143856757242788,0.193076199301596
4.75,-0.135903380780958,0.197597386227816
4.764,-0.127392083020416,0.202066246799829
4.778,-0.118336460343772,0.206221200796488
4.792,-0.108731133838316,0.209899435397282
4.806,-0.0986281857787082,0.212940370903452
4.82,-0.0881324295359982,0.215205609719066
4.834,-0.0773900518507768,0.216595705882354
4.848,-0.0665722704902028,0.217061684464655
4.862,-0.0558562366642507,0.216609988662698
4.876,-0.0454056851053786,0.215300416894509
4.89,-0.0353537800535065,0.213237511872505
4.904,-0.0257902496202791,0.210556666482911
4.918,-0.0167543047782604,0.207406826799564
4.932,-0.00823408512279537,0.203932039148873
4.946,-0.00017255501920279,0.20025417597935
4.96,0.00752101549180271,0.196458985046292
4.974,0.0149555241278005,0.192587166411032
4.988,0.0222404881674117,0.188631543792477
5.002,0.0294687407575323,0.184540631824117
5.016,0.0367016062259265,0.180228094119261
5.03,0.0439584799978434,0.175586832165789
5.044,0.0512121801015036,0.170505835395428
5.058,0.058390688353853,0.164887541475332
5.072,0.065385048909815,0.158663363791166
5.086,0.0720623500614983,0.151805267412008
5.1,0.0782820003220772,0.144331800054376
5.114,0.0839130313128302,0.136307749580465
5.128,0.0888499992268954,0.127837501771339
5.142,0.093025250805596,0.119053080336651
5.156,0.0964158509323582,0.110098625070395
5.17,0.0990442627700413,0.101113578542122
5.184,0.100972806542879,0.0922170193999526
5.198,0.102292850256948,0.0834953700993787
5.212,0.103110453645523,0.0749951516489493
5.226,0.103530669828561,0.066721650854344
5.24,0.103642831713874,0.0586434441633401
5.254,0.103508900226963,0.0507018427734413
5.268,0.103156383726678,0.0428236323879818
5.282,0.102576562281891,0.0349350856438837
5.296,0.101727909487939,0.0269751762166577
5.31,0.100543845285386,0.0189062056487625
5.324,0.0989433982181478,0.0107205925061385
5.338,0.0968430801107481,0.00244325254516332
5.352,0.0941682968053636,-0.00587031327146312
5.366,0.0908628945120631,-0.0141395279829197
5.38,0.086895888046957,-0.0222667657532549
5.394,0.0822649289392545,-0.0301466613322783
5.408,0.0769965462542866,-0.0376755218255795
5.422,0.0711435548793301,-0.0447598713051395
5.436,0.0647802386262926,-0.0513234461327609
5.45,0.0579959845050975,-0.05731224524156
5.464,0.0508880095469643,-0.0626974676626513
5.478,0.0435537394592538,-0.0674763143983126
5.492,0.0360833239652011,-0.0716707031076269
5.506,0.0285527420653891,-0.0753239781142417
5.52,0.0210179672661708,-0.0784957423367988
5.534,0.0135107033962189,-0.0812550318402023
5.548,0.00603622037794974,-0.0836722153222596
5.562,-0.00142623483334679,-0.0858102162763369
5.576,-0.0089201419038831,-0.0877158811709976
5.59,-0.0165055012791886,-0.0894124898673988
5.604,-0.0242500766925767,-0.0908944592110083
5.618,-0.0322188629472914,-0.0921251787064947
5.632,-0.0404921322782862,-0.0930536170935239
5.646,-0.0491078815471123,-0.0935589784809794
5.66,-0.0580170183532872,-0.093507218639015
5.674,-0.067154177240784,-0.0927947262119354
5.688,-0.0764194238196282,-0.0913383682281645
5.702,-0.0856869841218453,-0.0890866775269323
5.716,-0.0948174647021107,-0.0860272621060417
5.73,-0.103671948949393,-0.0821894271221665
5.744,-0.112126118099653,-0.0776416809631643
5.758,-0.120082588533024,-0.0724844942985542
5.772,-0.127479948790451,-0.0668392857623939
5.786,-0.134297450635414,-0.0608350416102278
5.8,-0.140554871538245,-0.0545942017405537
5.814,-0.146307637296057,-0.0482194629435312
5.828,-0.151637808663759,-0.0417829925689311
5.842,-0.156641955208037,-0.0353192552749395
5.856,-0.161429193399235,-0.0288383830163902
5.87,-0.166082977940607,-0.0222718495682958
5.884,-0.170653381773414,-0.0155364331552276
5.898,-0.1751532616017,-0.00853403148383559
5.912,-0.179552872269444,-0.00116343876077693
5.926,-0.183780606814517,0.00666412284543629
5.94,-0.187729233791045,0.0150103490191231
5.954,-0.191267153119006,0.0238980367857471
5.968,-0.194253464832037,0.0333038554516307
5.982,-0.196555004444238,0.043156954692699
5.996,-0.198063070259475,0.0533439072458903
6.01,-0.198707458545586,0.0637195757169361
6.024,-0.198465690798533,0.0741225731254481
6.038,-0.197365952898848,0.0843932200366185
6.052,-0.195483183229763,0.0943914390583844
6.066,-0.192924775688554,0.104001923615044
6.08,-0.189833536135303,0.113141164604265
6.094,-0.186368274358886,0.12183755067121
6.108,-0.182645095393037,0.130139736896173
6.122,-0.178745229779792,0.138129386352859
6.136,-0.174706665806937,0.14590551246473
6.15,-0.170522151056903,0.153567362923084
6.164,-0.166143408116815,0.161198273978767
6.178,-0.161490549191084,0.168852576267675
6.192,-0.1564650611132,0.176547014536164
6.206,-0.150964432034572,0.184257391322879
6.22,-0.144896502341544,0.191920399175564
6.234,-0.138191887673136,0.199439981680897
6.248,-0.130813249560757,0.206697128777982
6.262,-0.122760680428768,0.213561784376033
6.276,-0.114072942108333,0.219905499101404
6.29,-0.104824699822393,0.225613548295875
6.304,-0.0951202101526406,0.230595400885049
6.318,-0.0850841618855992,0.234792627614384
6.332,-0.0748505543209377,0.238183558824109
6.346,-0.0645506455191024,0.240784245405234
6.36,-0.0543011134050717,0.242645556262202
6.374,-0.0441936259111723,0.243846573238611
6.388,-0.0342869785769919,0.244484814852486
6.402,-0.0246027941134461,0.244664203666873
6.416,-0.0151254683199501,0.244482035270005
6.43,-0.00580659858276131,0.244016442824341
6.444,0.00342641225964114,0.243315916295662
6.458,0.0126584488377148,0.242392287883396
6.472,0.0219728399333087,0.241218229131654
6.486,0.0314372803592879,0.239729757754244
6.5,0.0410913253840205,0.23783359912286
6.514,0.0510152373618087,0.23542151084812
6.528,0.0610836289152731,0.232323668906071
6.542,0.0711896548554233,0.228444395512378
6.556,0.0811957208755426,0.223723471843071
6.57,0.0909472932441657,0.218144514676072
6.584,0.100288610963717,0.211738098640799
6.598,0.109078397485438,0.204579362224037
6.612,0.117203729761305,0.196780483709165
6.626,0.124590484462329,0.188478985208357
6.64,0.131209200129403,0.179823266515902
6.654,0.13707571760521,0.170957053532157
6.668,0.142246537057947,0.162004553250817
6.682,0.146809408521818,0.153058035880804
6.696,0.150870207168264,0.144169320404293
6.71,0.154537587964199,0.135346237039185
6.724,0.157907220605186,0.126554603693783
6.738,0.161047530524181,0.117725623738742
6.752,0.16398878023601,0.108767947571166
6.766,0.166717000826249,0.0995830161360571
6.78,0.169173737912829,0.0900818072303411
6.794,0.171261857718555,0.0802008197760395
6.808,0.172856850573297,0.069915123562888
6.822,0.173822283162446,0.0592466033755913
6.836,0.174027410652272,0.0482661198635891
6.85,0.173364578530156,0.0370891259040786
6.864,0.171764000862447,0.0258652014201537
6.878,0.169203823094655,0.0147628583769146
6.892,0.16571402715878,0.00395167457588804
6.906,0.161373618489693,-0.00641578150093397
6.92,0.156301508154681,-0.0162197438147227
6.934,0.150642409415824,-0.0253846217229255
6.948,0.144579026368894,-0.0338203001774872
6.962,0.13828117218458,-0.0416245494743496
6.976,0.13184380407634,-0.0489073583117785
6.99,0.125319647817507,-0.0557726476864476
7.004,0.118715719454481,-0.062324839635513
7.018,0.111997898627543,-0.0686530440112431
7.032,0.105100382588008,-0.074818387324914
7.046,0.0979384306609008,-0.0808457757161442
7.06,0.0904225726835828,-0.0867206891336299
7.074,0.0824724898308729,-0.0923909282768978
7.088,0.0740290301989594,-0.0977726727760465
7.102,0.0650632169060928,-0.102759814357572
7.116,0.0555815603064728,-0.107235317856346
7.13,0.0456274276498249,-0.111083317719849
7.144,0.035278606145557,-0.114200738260374
7.158,0.0246414987387422,-0.116507386999395
7.172,0.01384261793992,-0.117953673439723
7.186,0.00301820603302865,-0.118525327387168
7.2,-0.00769707474974792,-0.11824472442779
7.214,-0.0181813640912773,-0.117168675919029
7.228,-0.0283356917221557,-0.115382813501487
7.242,-0.0380919219972336,-0.112992993780876
7.256,-0.0474176665068881,-0.110114453190762
7.27,-0.0563174999426099,-0.106859726530741
7.284,-0.0648301426960617,-0.103326563181993
7.298,-0.0730216884910851,-0.0995871869715924
7.312,-0.0809754165068632,-0.095680210734146
7.326,-0.0887791776156268,-0.0916063141269939
7.34,-0.0965117177274602,-0.0873284277005053
7.354,-0.104229535685182,-0.0827766695034689
7.368,-0.111955921612257,-0.0778577088029617
7.382,-0.119706708453486,-0.0724409294970036
7.396,-0.127390110674832,-0.0663977410802374
7.41,-0.134848392899208,-0.0596853624130417
7.424,-0.141942806262113,-0.0522869658410381
7.438,-0.14852884718711,-0.0442313449519385
7.452,-0.154472368459511,-0.0355928391904455
7.466,-0.159664825326646,-0.0264856110816247
7.48,-0.16403570858713,-0.0170528721861189
7.494,-0.167560526169864,-0.00745231395734306
7.508,-0.170263222467708,0.00216048304875175
7.522,-0.172212609818955,0.0116485830369869
7.536,-0.173513146903271,0.0209080456641987
7.55,-0.174291140658592,0.0298781920388653
7.564,-0.174678076152844,0.0385463636602214
7.578,-0.174793206752638,0.0469464348405697
7.592,-0.174727699427093,0.0551511464882214
7.606,-0.174532491767157,0.0632591600614734
7.62,-0.174211580631423,0.0713784741179684
7.634,-0.173721770511763,0.0796083947423337
7.648,-0.172979045488899,0.0880225171708253
7.662,-0.17187080576966,0.0966551050587463
7.676,-0.170272359603969,0.105492837854419
7.69,-0.168065413565955,0.114473179167282
7.704,-0.165155966189567,0.123489693001743
7.718,-0.161489047268515,0.132403632076893
7.732,-0.157058167139285,0.141060195143466
7.746,-0.151908094440594,0.149307145594206
7.76,-0.14613055779132,0.157013119477267
7.774,-0.139853516267436,0.164082992986466
7.788,-0.133225598166602,0.170468127322484
7.802,-0.126398012639551,0.176170094056145
7.816,-0.119521249897052,0.181230754865765
7.83,-0.112735585738274,0.185749431332263
7.844,-0.10604784714157,0.189871561834558
7.858,-0.0994562612957761,0.193705109106398
7.872,-0.0929210852263807,0.197339964455944
7.886,-0.0863750507990131,0.200836678558228
7.9,-0.0797366048193517,0.204220072526855
7.914,-0.0729238815122207,0.207478152120757
7.928,-0.0658674494188349,0.21056593910829
7.942,-0.0585202738260033,0.213413172828391
7.956,-0.0508639296177505,0.215934418800905
7.97,-0.0429107618429179,0.218039991887766
7.984,-0.0347022969349989,0.21964624208794
7.998,-0.026304657370804,0.220684094397404
8.012,-0.0178019721441761,0.221105181771196
8.026,-0.0092888019600319,0.22088535697856
8.04,-0.000862454972813111,0.220025727509758
8.054,0.00738416937422404,0.218551575759351
8.068,0.0153688210343861,0.216509596882733
8.082,0.0230250291402536,0.21396384179478
8.096,0.0303060196599282,0.210990653167114
8.11,0.0371873153899013,0.20767279589025
8.124,0.0436678452088384,0.204092965124988
8.138,0.0497693177988265,0.200326930345276
8.152,0.0555336028875129,0.196436730892227
8.166,0.0610179592307188,0.192464531330404
8.18,0.0662881703781772,0.188427904863907
8.194,0.071409975015824,0.184317368472594
8.208,0.0764395499081731,0.18009688943493
8.222,0.0814141372256495,0.175707798900634
8.236,0.0863441161681865,0.171076106312666
8.25,0.0912078292519471,0.166122672969215
8.264,0.0959767980137112,0.160727036425272
8.278,0.100504233039051,0.154870306899188
8.292,0.10467744109606,0.148547865815757
8.306,0.108381598267769,0.141793803450181
8.32,0.111513810136936,0.134680006293664
8.334,0.113996097128305,0.127310101769608
8.348,0.115785429187091,0.119808961922841
8.362,0.116879325522216,0.112309141382524
8.376,0.117316158774275,0.104936095182712
8.39,0.117170058220356,0.0977942161911664
8.404,0.11654107500672,0.090955624507027
8.418,0.115541938436792,0.0844532550044342
8.432,0.11428320146213,0.0782791882943998
8.446,0.112858785108306,0.0723884467986105
8.46,0.111333864732188,0.0667077355865463
8.474,0.109736713772158,0.0611479477738353
8.488,0.108055584271685,0.0556187611337733
8.502,0.106241032729655,0.0500433851296088
8.516,0.104213382887025,0.0443715048321928
8.53,0.101874344614845,0.0385887078080632
8.544,0.0991212637591012,0.0327211399807763
8.558,0.0958621295990243,0.0268347590738592
8.572,0.0920293599286433,0.0210292620831128
8.586,0.0875905353849482,0.0154274668487499
8.6,0.0825546497466797,0.0101615355808369
8.614,0.0769730342587891,0.00535785730258287
8.628,0.0709348261948688,0.00112259412359009
8.642,0.0645575889897764,-0.00247018848643187
8.656,0.0579743499274389,-0.00538623870327596
8.67,0.0513188056096958,-0.00763368602052933
8.684,0.0447106825201563,-0.00926017525925829
8.698,0.0382911983619537,-0.0103361344980322
8.712,0.032085894678899,-0.0110051405949563
8.726,0.0260774327732561,-0.0113769714166307
8.74,0.0202281649654789,-0.0115360602406887
8.754,0.0144752989674422,-0.0115393778512297
8.768,0.00874292480635023,-0.0114103250993792
8.782,0.00295498295970479,-0.0111373146302962
8.796,-0.00295251853092683,-0.010676879319355
8.81,-0.00902147928490392,-0.00996058473566414
8.824,-0.0152649024688929,-0.00890462433213685
8.838,-0.0216638479403437,-0.0074207733397699
8.852,-0.028168191166795,-0.00542736638576079
8.866,-0.0347008174405445,-0.00285911002019781
8.88,-0.0411645700842272,0.000325207761952219
8.894,-0.0474510795785492,0.00413774827043756
8.908,-0.0534505159762418,0.00855972505004201
8.922,-0.0590613054973933,0.0135426283946215
8.936,-0.0641989087890396,0.0190123709346035
8.95,-0.0688028562874515,0.024875933597651
8.964,-0.0728413710974721,0.0310298943166649
8.978,-0.07631308761855,0.0373700475817423
8.992,-0.0792456040400334,0.0438011820358002
9.006,-0.081690891886923,0.0502459990727503
9.02,-0.0837179147137191,0.0566521580662842
9.034,-0.0854031508174386,0.0629965510673766
9.048,-0.0868200247674904,0.069286155858025
9.062,-0.0880284740292124,0.0755551821919668
9.076,-0.0890659580496178,0.0818586767482821
9.09,-0.089941122820198,0.0882632281205877
9.104,-0.0906310572767646,0.0948358405505005
9.118,-0.0910826450940919,0.101632350075488
9.132,-0.0912171078998393,0.108715782986311
9.146,-0.0909121864159853,0.11608485117104
9.16,-0.0900665857618468,0.123663646608405
9.174,-0.0886030940465925,0.131373151118015
9.188,-0.0864695139284442,0.139110592768141
9.202,-0.0836452744997775,0.146759187231768
9.216,-0.0801442765309956,0.154199477469
9.23,-0.0760137001641763,0.161320870199427
9.244,-0.0713290017418172,0.168031987929695
9.258,-0.0661857713817201,0.174268640973296
9.272,-0.0606894664395862,0.179998538917678
9.286,-0.0549442481647215,0.18522225888932
9.3,-0.0490422182113129,0.189970419745292
9.314,-0.0430542822467026,0.194297431952353
9.328,-0.0370236746502419,0.198272564066401
9.342,-0.0309628831423889,0.201969357945116
9.356,-0.0248543419790115,0.205454612022503
9.37,-0.0186548480260678,0.208778217330999
