"Freq [GHz]","re(S(Antenna1_1_p1,Antenna1_1_p1)) []","im(S(Antenna1_1_p1,Antenna1_1_p1)) []"
3,0.078673683584332,0.209604502360416
3.002,0.0931708773667789,0.204174462265931
3.004,0.107324452675538,0.197947040751602
3.006,0.12109429685103,0.190941830322238
3.008,0.134441329252346,0.183180328134868
3.01,0.147327588436696,0.174685884450465
3.012,0.159716315871789,0.165483648385737
3.014,0.171572037536807,0.155600508154209
3.016,0.182860642936581,0.145065029885531
3.018,0.193549460832493,0.133907391011721
3.02,0.203607332092554,0.122159311908989
3.022,0.21300468006208,0.109853983283735
3.024,0.221713576055318,0.0970259912914804
3.026,0.229707803267402,0.0837112386775988
3.028,0.236962915605051,0.0699468647290486
3.03,0.243456293833497,0.0557711610266057
3.032,0.249167197436271,0.0412234858875359
3.034,0.254076812683667,0.026344175929118
3.036,0.258168296904948,0.0111744557539576
3.038,0.261426818158651,-0.00424365427137493
3.04,0.263839591494751,-0.0198674320922317
3.042,0.26539591050184,-0.0356535496034833
3.044,0.266087174331999,-0.0515581695773189
3.046,0.265906910795577,-0.0675370439030298
3.048,0.264850795117744,-0.0835456127358278
3.05,0.26291666344832,-0.0995391045590013
3.052,0.260104523016155,-0.115472636742964
3.054,0.256416556519126,-0.131301316641987
3.056,0.251857123240632,-0.146980342824654
3.058,0.246432754383415,-0.162465106417314
3.06,0.240152144511442,-0.177711291941058
3.062,0.233026138590599,-0.192674978731995
3.064,0.223264999418978,-0.20662804813385
3.066,0.212162272237627,-0.219788077111201
3.068,0.200360472112744,-0.232318683080899
3.07,0.187893201880469,-0.244185326418538
3.072,0.174795682445624,-0.255355159736101
3.074,0.161104671525996,-0.265797100126215
3.076,0.146858379234029,-0.275481898967749
3.078,0.132096380988121,-0.284382206686798
3.08,0.116859526946074,-0.292472634466401
3.082,0.101189849553639,-0.299729810797688
3.084,0.0851304678015748,-0.306132435264445
3.086,0.0687254894850855,-0.311661326152468
3.088,0.052019911860086,-0.316299465474377
3.09,0.0350595194413142,-0.320032037899957
3.092,0.0178907807379699,-0.322846466281439
3.094,0.000560743223270474,-0.324732441762533
3.096,-0.016883072954915,-0.325681949259441
3.098,-0.034392782450343,-0.325689288401485
3.1,-0.0519202430206665,-0.324751089418488
3.102,-0.0694171646017876,-0.322866324061515
3.104,-0.0868352187933183,-0.32003631154316
3.106,-0.104126148643026,-0.31626472008316
3.108,-0.121241878520914,-0.311557562644777
3.11,-0.138134623760282,-0.305923188247184
3.112,-0.154756999943709,-0.29937226823886
3.114,-0.171062131526448,-0.291917777417026
3.116,-0.187003759768159,-0.283574970178141
3.118,-0.202536349722302,-0.274361352184716
3.12,-0.217615195300843,-0.264296646634018
3.122,-0.232196523690171,-0.253402756314764
3.124,-0.246237597902384,-0.241703719938541
3.126,-0.25873879324431,-0.228124338033613
3.128,-0.269507440084807,-0.212830031989809
3.13,-0.279422088799135,-0.197008992144507
3.132,-0.288458159467454,-0.180705811201256
3.134,-0.296593279502802,-0.163966181674342
3.136,-0.303807331782362,-0.146836791154602
3.138,-0.310082497554379,-0.129365214994088
3.14,-0.31540329519178,-0.111599808509649
3.142,-0.319756613562518,-0.0935895956682743
3.144,-0.323131740385772,-0.0753841576200023
3.146,-0.325520385542604,-0.0570335195474142
3.148,-0.326916699009428,-0.0385880363440817
3.15,-0.327317283882721,-0.0200982776979108
3.152,-0.326721203863956,-0.00161491248998493
3.154,-0.3251299851746,0.0168114070447333
3.156,-0.322547613872434,0.0351301612966818
3.158,-0.318980527142275,0.0532910790950259
3.16,-0.314437598936524,0.071244253045396
3.162,-0.30893012154379,0.0889402542348405
3.164,-0.302471780267197,0.106330246115451
3.166,-0.295078623797783,0.123366096803055
3.168,-0.286769028872726,0.140000490753654
3.17,-0.277563660112851,0.156187037718017
3.172,-0.267485424239027,0.171880380713055
3.174,-0.256559419572529,0.187036300887373
3.176,-0.244812880530211,0.201611821007847
3.178,-0.232275117231286,0.215565305114128
3.18,-0.218977450738587,0.228856556188824
3.182,-0.204953142863271,0.241446910192671
3.184,-0.190237322867942,0.253299326616366
3.186,-0.174866908908969,0.264378476103834
3.188,-0.158614964664332,0.27399096620563
3.19,-0.141145487098383,0.280727958625749
3.192,-0.123394043919563,0.28651716953048
3.194,-0.105408670291048,0.291347585293811
3.196,-0.0872377986076086,0.295210523260435
3.198,-0.0689301479844164,0.29809964431427
3.2,-0.0505346138152071,0.300010961247722
3.202,-0.0321001568178923,0.300942840434398
3.204,-0.0136756924755347,0.300895999615578
3.206,0.0046900191365747,0.299873499518314
3.208,0.0229484829011032,0.297880730830449
3.21,0.0410515771405131,0.294925395964958
3.212,0.0589516609628411,0.291017485652706
3.214,0.0766016801584089,0.28616925060888
3.216,0.0939552713838952,0.280395168323904
3.218,0.110966864484253,0.273711905534391
3.22,0.127591782551541,0.266138275333702
3.222,0.143786339842723,0.257695189984777
3.224,0.159507936945731,0.248405610100096
3.226,0.174715153550507,0.238294488954934
3.228,0.189367837629151,0.227388712500369
3.23,0.203427192536605,0.215717036341982
3.232,0.216855859840387,0.203310018448721
3.234,0.229617999694637,0.190199948454147
3.236,0.241679367080028,0.176420773709279
3.238,0.253007384736877,0.16200802214256
3.24,0.263571212223955,0.146998722278208
3.242,0.273341811140049,0.131431319959471
3.244,0.282292006549115,0.115345593218166
3.246,0.290396544653015,0.0987825641264844
3.248,0.297632145558179,0.0817844088614441
3.25,0.303977552784222,0.0643943652467189
3.252,0.306556097463473,0.0467751609309091
3.254,0.308228917680698,0.0291136950757887
3.256,0.308997948601927,0.0114539355926851
3.258,0.30886717194038,-0.00616041030995655
3.26,0.307842596706055,-0.0236859879755841
3.262,0.30593223538362,-0.0410798859233258
3.264,0.303146076480962,-0.0582997249948066
3.266,0.299496053288104,-0.0753037459218781
3.268,0.294996008783321,-0.092050895072327
3.27,0.289661657020182,-0.108500908397373
3.272,0.283510541326013,-0.124614393321055
3.274,0.276561988538973,-0.140352908387465
3.276,0.268837060307596,-0.155679040957209
3.278,0.260358501473336,-0.170556481719505
3.28,0.251150684753394,-0.184950097996993
3.282,0.241239552837978,-0.198826002990598
3.284,0.230652558013115,-0.212151623291803
3.286,0.21941859811728,-0.224895763289363
3.288,0.207567950937444,-0.237028666396954
3.29,0.195132205647645,-0.248522073427449
3.292,0.182144191690915,-0.2593492782386
3.294,0.168637906003327,-0.269485179473737
3.296,0.154648437777071,-0.27890632941992
3.298,0.140211891357825,-0.287590979604594
3.3,0.125365307670239,-0.295519122750458
3.302,0.110146583464124,-0.302672531306754
3.304,0.0945943892728793,-0.309034792573785
3.306,0.0787480863048232,-0.314591339735952
3.308,0.0626476416874015,-0.31932948001716
3.31,0.0463335428836916,-0.323238418371033
3.312,0.0298467111302312,-0.326309277816961
3.314,0.0132284141549227,-0.328535116131683
3.316,-0.00347982174238232,-0.329910938204806
3.318,-0.0202362999930659,-0.330433705065458
3.32,-0.0369992424150947,-0.3301023389861
3.322,-0.0537268779388108,-0.328917724168444
3.324,-0.0703775313192502,-0.326882704515403
3.326,-0.0869097116148062,-0.324002076792066
3.328,-0.103282200327766,-0.320282580077795
3.33,-0.119454139079897,-0.315732881810749
3.332,-0.135385116375876,-0.31036355932541
3.334,-0.151035253843961,-0.304187077883
3.336,-0.166365291392881,-0.29721776579405
3.338,-0.181336670663459,-0.289471783831883
3.34,-0.195911618163076,-0.280967093335202
3.342,-0.210053225980581,-0.271723418997591
3.344,-0.223725531388852,-0.261762208741295
3.346,-0.236893594641695,-0.25110659007232
3.348,-0.249523574471384,-0.239781323313562
3.35,-0.261582801692639,-0.227812750812406
3.352,-0.273039851118434,-0.215228743519008
3.354,-0.283864609992589,-0.202058644431242
3.356,-0.294028344943654,-0.188333208402147
3.358,-0.303503766064206,-0.174084539805522
3.36,-0.312265087419254,-0.159346026855241
3.362,-0.320288086187035,-0.144152273313705
3.364,-0.327550157335138,-0.128539027654804
3.366,-0.334030365834446,-0.112543109986702
3.368,-0.339709496213077,-0.096202336289687
3.37,-0.344570097452076,-0.079555440704346
3.372,-0.348596525524315,-0.0626419956952851
3.374,-0.351774982077634,-0.0455023303946509
3.376,-0.352326559062978,-0.028058330877721
3.378,-0.350229288007905,-0.0105917298248849
3.38,-0.347255415135516,0.00665569592960934
3.382,-0.343419618928545,0.0236418310016887
3.384,-0.33873851953802,0.0403253954877237
3.386,-0.333230635135592,0.0566660314823807
3.388,-0.326916334908342,0.0726243874272835
3.39,-0.319817788394559,0.0881622002545654
3.392,-0.311958910958731,0.103242375149245
3.394,-0.303365306403663,0.117829062724175
3.396,-0.29406420541744,0.131887733121143
3.398,-0.284084401552635,0.145385247941466
3.4,-0.273456184134972,0.158289928609247
3.402,-0.262211267398388,0.170571621570164
3.404,-0.250382718243277,0.18220176112847
3.406,-0.238004879714441,0.193153427524573
3.408,-0.22511329329517,0.203401402755297
3.41,-0.211744618313658,0.212922222038637
3.412,-0.197936549157859,0.221694222124495
3.414,-0.183727730294772,0.229697585652601
3.416,-0.169157670090037,0.236914381158447
3.418,-0.154266652413688,0.243328600427771
3.42,-0.139095646457835,0.248926189999774
3.422,-0.123686216102074,0.253695080818881
3.424,-0.108080427342395,0.257625211434562
3.426,-0.0923207550894373,0.260708549248337
3.428,-0.0764499891049904,0.262939105806765
3.43,-0.0605111393147366,0.264312949038872
3.432,-0.044547340715367,0.264828210336157
3.434,-0.0286017580303461,0.264485088472963
3.436,-0.0127174903107843,0.263285847764719
3.438,0.00306252430991999,0.261234813761245
3.44,0.0186956035627734,0.258338362872051
3.442,0.0341394154760715,0.254604908920282
3.444,0.0493520721400502,0.250044885221742
3.446,0.0642922224155902,0.244670722085208
3.448,0.0789191441189441,0.238496820830055
3.45,0.093192833864132,0.231539523017062
3.452,0.107074097184308,0.223817075988118
3.454,0.120524635013049,0.215349594710465
3.456,0.133507130226164,0.206159018821027
3.458,0.145985331244247,0.196269066866331
3.46,0.157924133395853,0.185705186133531
3.462,0.169289658940784,0.174494499168042
3.464,0.180049333452641,0.162665746273364
3.466,0.190171960759421,0.150249225388748
3.468,0.199627794140619,0.137276727740457
3.47,0.20838860557893,0.123781470962538
3.472,0.216427750864371,0.109798028583157
3.474,0.223720232948305,0.0953622571527667
3.476,0.230242760444588,0.0805112202005731
3.478,0.235973804174807,0.0652831095060031
3.48,0.240893648854314,0.049717164002143
3.482,0.244984442415575,0.0338535863083696
3.484,0.24823024036515,0.0177334570096935
3.486,0.250617047470454,0.00139864697062087
3.488,0.252132854172336,-0.0151082722683488
3.49,0.252767670519366,-0.0317441197331662
3.492,0.252513554519685,-0.0484651977588788
3.494,0.251364637406161,-0.0652273861334234
3.496,0.249317144310624,-0.0819862373032026
3.498,0.246369410442896,-0.0986970725407628
3.5,0.242521893370382,-0.115315078974596
3.502,0.233393880094013,-0.130627273370789
3.504,0.223485237916412,-0.145361920415953
3.506,0.212828279698218,-0.159482142020602
3.508,0.201456980398605,-0.172952729931874
3.51,0.189406895496179,-0.185740218104261
3.512,0.176715076386517,-0.197812951526751
3.514,0.163419982352804,-0.209141150404608
3.516,0.149561390806149,-0.219696970693779
3.518,0.135180304192329,-0.229454560685759
3.52,0.120318854761883,-0.238390112340571
3.522,0.105020207400656,-0.246481909765369
3.524,0.0893284603180446,-0.253710371336026
3.526,0.0732885441904017,-0.260058089058991
3.528,0.0569461194572171,-0.26550986207053
3.53,0.0403474725478576,-0.270052726070464
3.532,0.0235394108968357,-0.273675977987351
3.534,0.00656915714572383,-0.276371195272071
3.536,-0.0105157575400084,-0.27813225151667
3.538,-0.0276676005308008,-0.278955326195296
3.54,-0.0448385450578928,-0.278838909824027
3.542,-0.0619807776655899,-0.277783805136327
3.544,-0.0790466054390934,-0.275793121970892
3.546,-0.0959885629439534,-0.272872268268553
3.548,-0.112759518513108,-0.26902893667494
3.55,-0.129312779825388,-0.264273084945532
3.552,-0.145602198465255,-0.258616913149716
3.554,-0.161582273237503,-0.252074835370414
3.556,-0.177208252227543,-0.244663446695808
3.558,-0.192436233127865,-0.236401486399624
3.56,-0.207223261541188,-0.227309795906361
3.562,-0.221527428070767,-0.217411272837767
3.564,-0.235307962518271,-0.206730820636788
3.566,-0.248525325449585,-0.19529529366504
3.568,-0.261141298628854,-0.183133439269783
3.57,-0.273119071020985,-0.170275834416159
3.572,-0.284423323062795,-0.156754819580309
3.574,-0.295020307602875,-0.142604428698773
3.576,-0.304877927310154,-0.127860315469322
3.578,-0.313965809151018,-0.112559675798149
3.58,-0.322255375334696,-0.0967411679880471
3.582,-0.329719910426445,-0.0804448288618938
3.584,-0.336334624427847,-0.0637119873154281
3.586,-0.342076712923281,-0.0465851750429618
3.588,-0.346925412391332,-0.0291080348492693
3.59,-0.350862051479524,-0.0113252259305087
3.592,-0.353870098340368,0.0067176725033946
3.594,-0.35593520362619,0.0249742599929042
3.596,-0.357045238939686,0.0433974154850127
3.598,-0.357190330936436,0.0619393996312538
3.6,-0.356362890774915,0.0805519586939147
3.602,-0.354557639208652,0.0991864296952031
3.604,-0.351771626714248,0.117793846824523
3.606,-0.348004249047856,0.136325048657379
3.608,-0.343257258121555,0.154730786245731
3.61,-0.337534768189663,0.172961831683875
3.612,-0.330843256733579,0.19096908707107
3.614,-0.323191561232117,0.208703693552163
3.616,-0.314590870902483,0.226117140417385
3.618,-0.305054712995169,0.243161373952213
3.62,-0.294598935223933,0.259788905527749
3.622,-0.28324168270984,0.275952919841376
3.624,-0.271003370516011,0.291607381416501
3.626,-0.256090875347253,0.304735554468957
3.628,-0.238800347886255,0.315054495246018
3.63,-0.221081623335392,0.324432953842026
3.632,-0.202982584330616,0.332853787392214
3.634,-0.184551778791281,0.340302157843419
3.636,-0.165838315267298,0.346765556697032
3.638,-0.146891756742624,0.352233826915574
3.64,-0.127762013152007,0.356699179279794
3.642,-0.108499234736094,0.360156204378117
3.644,-0.0891537031286625,0.362601880304495
3.646,-0.0697757234288959,0.364035575634481
3.648,-0.050415515431488,0.364459048142369
3.65,-0.031123105127991,0.363876438114814
3.652,-0.0119482161914391,0.362294258008372
3.654,0.00705983813705235,0.359721376990059
3.656,0.0258522627510625,0.356169000791335
3.658,0.0443808877290725,0.351650647097174
3.66,0.0625982746133278,0.3461821159831
3.662,0.0804578217521396,0.339781456304622
3.664,0.0979138684342575,0.332468926535559
3.666,0.114921797908029,0.324266951544626
3.668,0.131438138407405,0.315200073993718
3.67,0.147420663011465,0.305294901936872
3.672,0.162828487537166,0.294580050496339
3.674,0.177622165476677,0.283086079991896
3.676,0.191763781501123,0.270845428101875
3.678,0.205217042022357,0.25789233823972
3.68,0.217947362383735,0.244262782838502
3.682,0.229921951130538,0.229994381847996
3.684,0.241109890791081,0.215126317364822
3.686,0.251482214881506,0.199699242535783
3.688,0.261011980531408,0.183755187497914
3.69,0.269674336614538,0.167337460245573
3.692,0.277446587259714,0.150490543844961
3.694,0.284308250112316,0.133259989548954
3.696,0.290241108817123,0.115692306999731
3.698,0.29522926069921,0.097834851032212
3.7,0.299259157131565,0.0797357050169773
3.702,0.302319638496243,0.0614435627760558
3.704,0.30440196227016,0.0430076077374144
3.706,0.30549982429685,0.0244773908031718
3.708,0.305609373741132,0.00590270701816853
3.71,0.304729220363892,-0.0126665283314285
3.712,0.302860435198172,-0.0311804037113104
3.714,0.300006544254151,-0.049589134962628
3.716,0.29617351512823,-0.0678431879272213
3.718,0.291369737238634,-0.0858933996983333
3.72,0.285605994755407,-0.103691097903255
3.722,0.278895434034753,-0.121188217506552
3.724,0.271253523805092,-0.138337415188624
3.726,0.262698011083639,-0.155092180053402
3.728,0.253248870126763,-0.171406940982824
3.73,0.242928247534181,-0.187237170362891
3.732,0.231760401635538,-0.202539483705194
3.734,0.219771638788216,-0.217271734567177
3.736,0.206990244507246,-0.231393105722553
3.738,0.193446412332655,-0.244864195878819
3.74,0.179172168617026,-0.257647101180339
3.742,0.164201295087622,-0.269705492771974
3.744,0.148569249104115,-0.281004690228827
3.746,0.132313081296161,-0.29151172968177
3.748,0.11547135162596,-0.301195428585677
3.75,0.0980840441809058,-0.310026445387743
3.752,0.0797898880616632,-0.31507044475696
3.754,0.0612957931626113,-0.31917421363333
3.756,0.0426475081955737,-0.322331168147167
3.758,0.023890908514897,-0.324536863645747
3.76,0.00507190094282331,-0.325788986847266
3.762,-0.0137636701407718,-0.326087345421607
3.764,-0.0325701149676958,-0.325433852974563
3.766,-0.0513019891231823,-0.323832511087814
3.768,-0.0699141825809878,-0.321289388241947
3.77,-0.0883620071481378,-0.317812595124792
3.772,-0.106601282249069,-0.313412257503033
3.774,-0.124588419016923,-0.308100485711926
3.776,-0.142280502802671,-0.301891341196406
3.778,-0.159635373761137,-0.294800800917312
3.78,-0.176611706112256,-0.28684671831892
3.782,-0.193169084936578,-0.278048781638837
3.784,-0.209268082133514,-0.268428470328277
3.786,-0.224870329769503,-0.25800900724013
3.788,-0.239938591461631,-0.246815310433653
3.79,-0.254436832480396,-0.234873939938122
3.792,-0.268330287343754,-0.22221304401315
3.794,-0.28158552506331,-0.208862301840365
3.796,-0.294170512792929,-0.194852863679698
3.798,-0.306054676420037,-0.18021728932324
3.8,-0.317208959530742,-0.164989483380535
3.802,-0.327605879271555,-0.149204628630849
3.804,-0.337219579823018,-0.132899117080444
3.806,-0.346025883093936,-0.116110478965827
3.808,-0.354002336939135,-0.0988773092473454
3.81,-0.361128259898683,-0.0812391924411393
3.812,-0.367384783452322,-0.0632366255312516
3.814,-0.371817198679327,-0.0444653344275949
3.816,-0.374990923411134,-0.0253631779892874
3.818,-0.377205647361795,-0.00613840159667681
3.82,-0.378457576819515,0.0131629223210093
3.822,-0.378745035881208,0.0324946364159451
3.824,-0.378068467311058,0.0518105915482093
3.826,-0.376430429403447,0.0710647399257063
3.828,-0.373835588330307,0.0902112281378404
3.83,-0.370290707552824,0.109204489840653
3.832,-0.365804632577532,0.127999337934692
3.834,-0.360388271737072,0.146551056226695
3.836,-0.354054573576239,0.164815489912157
3.838,-0.346818500224375,0.182749135958033
3.84,-0.338696996235708,0.20030923078322
3.842,-0.329708954679719,0.217453838642946
3.844,-0.319875178764246,0.234141936641916
3.846,-0.309218339874577,0.250333499199842
3.848,-0.297762932112351,0.265989580671911
3.85,-0.285535223518686,0.281072395325764
3.852,-0.272563202866465,0.295545396175694
3.854,-0.258876524407265,0.309373350773894
3.856,-0.244506448058915,0.322522414657896
3.858,-0.22948577722016,0.334960202752573
3.86,-0.213848793299394,0.346655857724442
3.862,-0.197631186944862,0.357580115485348
3.864,-0.180869986564199,0.367705367541984
3.866,-0.16360348452161,0.377005720987126
3.868,-0.14587116010142,0.385457054327836
3.87,-0.127713600397187,0.393037070645338
3.872,-0.109172418536014,0.399725347280662
3.874,-0.090290170208165,0.405503381339612
3.876,-0.0707265560125851,0.409452220510025
3.878,-0.0506479197694314,0.411507117283737
3.88,-0.0305270020592847,0.412550043575132
3.882,-0.0104128721852816,0.412581312927585
3.884,0.00964550435095805,0.411603524098635
3.886,0.0295993686960782,0.409621552814179
3.888,0.0494002709701538,0.406642540081546
3.89,0.0690001720332823,0.40267587515086
3.892,0.0883515444317824,0.397733174313705
3.894,0.107407472445355,0.391828255627782
3.896,0.126121750707655,0.384977108355933
3.898,0.144448981631799,0.377197859307707
3.9,0.162344671481376,0.368510733871477
3.902,0.179765323976519,0.358938013325032
3.904,0.196668533133591,0.348503988212594
3.906,0.213013072836013,0.337234906976287
3.908,0.228758984632704,0.325158921530258
3.91,0.243867663659595,0.312306028265956
3.912,0.25830194057863,0.298708005577432
3.914,0.272026162327716,0.284398347895994
3.916,0.285006268474057,0.269412195824132
3.918,0.297209865762475,0.253786263259288
3.92,0.308606298349377,0.237558760798802
3.922,0.319166715212324,0.220769316818207
