"Freq [GHz]","re(S(Tx_p1,Tx_p1)) []","im(S(Tx_p1,Tx_p1)) []"
1,-0.03568188322,-0.1150017074
1.01,-0.03977805855,-0.1135115086
1.02,-0.04382718323,-0.1118730944
1.03,-0.0478233062,-0.1100877589
1.04,-0.05176055305,-0.1081570495
1.05,-0.05563313398,-0.1060827589
1.06,-0.05943535109,-0.1038669178
1.07,-0.06316160515,-0.1015117863
1.08,-0.06680640181,-0.09901984727
1.09,-0.07036435742,-0.09639379843
1.1,-0.07383020429,-0.09363654553
1.11,-0.07719879567,-0.09075119541
1.12,-0.0804651103,-0.08774104933
1.13,-0.08362425669,-0.08460959659
1.14,-0.08667147712,-0.0813605084
1.15,-0.08960215141,-0.07799763198
1.16,-0.09241180055,-0.07452498492
1.17,-0.09509609007,-0.07094674975
1.18,-0.09765083347,-0.06726726886
1.19,-0.1000719954,-0.06349103949
1.2,-0.102355695,-0.05962270899
1.21,-0.104498209,-0.05566707037
1.22,-0.1064959751,-0.0516290578
1.23,-0.1083455952,-0.0475137425
1.24,-0.1100438388,-0.04332632852
1.25,-0.1115876466,-0.03907214881
1.26,-0.1129741339,-0.03475666119
1.27,-0.1142005945,-0.03038544445
1.28,-0.1152645049,-0.02596419442
1.29,-0.1161635275,-0.02149871996
1.3,-0.1168955158,-0.01699493893
1.31,-0.1174585183,-0.01245887405
1.32,-0.117850783,-0.007896648558
1.33,-0.1180707622,-0.003314481766
1.34,-0.1181171175,0.001281315657
1.35,-0.1179887248,0.00588434662
1.36,-0.1176846791,0.01048813284
1.37,-0.1172043001,0.01508612036
1.38,-0.1165471373,0.01967168547
1.39,-0.1157129756,0.02423814094
1.4,-0.1147018402,0.02877874265
1.41,-0.1135140024,0.03328669671
1.42,-0.112149985,0.03775516695
1.43,-0.1106105673,0.04217728292
1.44,-0.1088967902,0.04654614834
1.45,-0.1070099615,0.05085485004
1.46,-0.1049516604,0.05509646746
1.47,-0.1027237422,0.05926408255
1.48,-0.1003283425,0.06335079024
1.49,-0.09776788122,0.06734970946
1.5,-0.09504506591,0.07125399452
1.51,-0.09216289506,0.07505684714
1.52,-0.08912466063,0.07875152883
1.53,-0.0859339502,0.08233137378
1.54,-0.08259464849,0.08578980217
1.55,-0.07911093826,0.08912033394
1.56,-0.07548730061,0.0923166028
1.57,-0.07172851452,0.09537237077
1.58,-0.06783965568,0.09828154287
1.59,-0.06382609456,0.1010381822
1.6,-0.05969349358,0.103636525
1.61,-0.05544780358,0.1060709963
1.62,-0.05109525929,0.1083362254
1.63,-0.04664237393,0.1104270613
1.64,-0.04209593296,0.1123385884
1.65,-0.03746298679,0.1140661423
1.66,-0.03275084257,0.1156053248
1.67,-0.02796705506,0.1169520196
1.68,-0.02311941647,0.1181024071
1.69,-0.01821594535,0.1190529793
1.7,-0.0132648745,0.119800554
1.71,-0.008274637945,0.1203422891
1.72,-0.00325385694,0.1206756957
1.73,0.001788674965,0.1207986511
1.74,0.006844007746,0.1207094111
1.75,0.01190305162,0.1204066214
1.76,0.01695659463,0.1198893289
1.77,0.02199532097,0.1191569908
1.78,0.0270098302,0.1182094845
1.79,0.0319906571,0.1170471153
1.8,0.0369282922,0.1156706235
1.81,0.04181320298,0.1140811909
1.82,0.04663585562,0.1122804452
1.83,0.05138673721,0.1102704644
1.84,0.05605637846,0.1080537789
1.85,0.06063537673,0.1056333734
1.86,0.06511441938,0.1030126866
1.87,0.06948430731,0.1001956104
1.88,0.07373597868,0.09718648716
1.89,0.07786053269,0.09399010615
1.9,0.08184925327,0.09061169813
1.91,0.08569363279,0.087056929
1.92,0.08938539549,0.08333189183
1.93,0.09291652067,0.07944309763
1.94,0.09627926551,0.0753974647
1.95,0.0994661875,0.07120230672
1.96,0.1024701663,0.06686531942
1.97,0.1052844249,0.06239456601
1.98,0.1079025505,0.05779846132
1.99,0.1103185139,0.05308575467
2,0.1125266886,0.04826551161
2.01,0.114521869,0.04334709444
2.02,0.1162992872,0.03834014165
2.03,0.117854629,0.03325454635
2.04,0.1191840488,0.02810043366
2.05,0.1202841831,0.02288813723
2.06,0.1211521627,0.01762817484
2.07,0.121785624,0.01233122333
2.08,0.1221827184,0.007008092705
2.09,0.1223421207,0.001669699744
2.1,0.1222630357,-0.003672959032
2.11,0.1219452036,-0.009008834778
2.12,0.1213889037,-0.01432685412
2.13,0.1205949566,-0.01961594721
2.14,0.1195647246,-0.02486507598
2.15,0.1183001111,-0.03006326248
2.16,0.116803558,-0.03519961712
2.17,0.1150780411,-0.04026336694
2.18,0.1131270651,-0.04524388359
2.19,0.1109546556,-0.05013071098
2.2,0.1085653508,-0.05491359265
2.21,0.1059641909,-0.05958249852
2.22,0.1031567059,-0.06412765118
2.23,0.1001489028,-0.0685395514
2.24,0.09694725036,-0.07280900299
2.25,0.09355866325,-0.07692713673
2.26,0.08999048429,-0.08088543341
2.27,0.08625046579,-0.08467574591
2.28,0.08234674957,-0.08829032009
2.29,0.0782878458,-0.09172181465
2.3,0.07408261079,-0.09496331972
2.31,0.06974022376,-0.09800837416
2.32,0.06527016276,-0.1008509815
2.33,0.06068217966,-0.1034856248
2.34,0.05598627441,-0.1059072792
2.35,0.05119266867,-0.1081114243
2.36,0.04631177885,-0.110094054
2.37,0.04135418861,-0.1118516851
2.38,0.03633062104,-0.1133813645
2.39,0.03125191052,-0.1146806745
2.4,0.02612897435,-0.115747737
2.41,0.02097278432,-0.1165812156
2.42,0.01579433824,-0.1171803162
2.43,0.01060463156,-0.1175447863
2.44,0.005414629193,-0.1176749125
2.45,0.0002352375809,-0.1175715164
2.46,-0.004922722857,-0.1172359491
2.47,-0.01004854481,-0.116670084
2.48,-0.01513166066,-0.1158763084
2.49,-0.02016166835,-0.1148575133
2.5,-0.02512835667,-0.1136170824
2.51,-0.03002172963,-0.1121588791
2.52,-0.03483203006,-0.1104872326
2.53,-0.03954976223,-0.1086069228
2.54,-0.04416571346,-0.1065231639
2.55,-0.04867097474,-0.1042415867
2.56,-0.05305696015,-0.1017682208
2.57,-0.05731542516,-0.09910947443
2.58,-0.06143848367,-0.0962721149
2.59,-0.06541862385,-0.09326324709
2.6,-0.06924872261,-0.0900902919
2.61,-0.07292205883,-0.08676096391
2.62,-0.07643232515,-0.08328324842
2.63,-0.07977363844,-0.07966537819
2.64,-0.08294054889,-0.07591580968
2.65,-0.08592804766,-0.07204319913
2.66,-0.08873157318,-0.06805637835
2.67,-0.09134701603,-0.06396433051
2.68,-0.09377072242,-0.05977616581
2.69,-0.09599949635,-0.05550109727
2.7,-0.09803060035,-0.05114841671
2.71,-0.09986175492,-0.04672747081
2.72,-0.1014911367,-0.04224763766
2.73,-0.1029173752,-0.03771830353
2.74,-0.1041395487,-0.03314884018
2.75,-0.1051571785,-0.02854858267
2.76,-0.1059702222,-0.02392680772
2.77,-0.106579066,-0.01929271277
2.78,-0.1069845158,-0.0146553957
2.79,-0.1071877875,-0.01002383531
2.8,-0.1071904962,-0.005406872613
2.81,-0.1069946445,-0.0008131930025
2.82,-0.1066026102,0.003748690747
2.83,-0.1060171331,0.008270454509
2.84,-0.1052413014,0.0127439779
2.85,-0.104278537,0.01716135838
2.86,-0.1031325807,0.02151492437
2.87,-0.1018074768,0.02579724733
2.88,-0.1003075574,0.03000115283
2.89,-0.09863742616,0.03411973058
2.9,-0.09680194204,0.0381463434
2.91,-0.09480620269,0.04207463516
2.92,-0.09265552785,0.04589853778
2.93,-0.0903554426,0.04961227703
2.94,-0.08791166068,0.05321037757
2.95,-0.08533006785,0.05668766676
2.96,-0.0826167054,0.06003927773
2.97,-0.07977775383,0.06326065142
2.98,-0.07681951683,0.06634753767
2.99,-0.07374840543,0.06929599562
3,-0.07057092263,0.0721023931
3.01,-0.06729364832,0.07476340535
3.02,-0.06392322465,0.07727601295
3.03,-0.06046634188,0.07963749909
3.04,-0.05692972472,0.08184544614
3.05,-0.05332011914,0.08389773165
3.06,-0.04964427981,0.08579252381
3.07,-0.04590895806,0.08752827633
3.08,-0.04212089043,0.08910372294
3.09,-0.03828678784,0.09051787149
3.1,-0.03441332534,0.09176999763
3.11,-0.03050713252,0.09285963822
3.12,-0.02657478451,0.09378658453
3.13,-0.02262279356,0.09455087516
3.14,-0.01865760129,0.09515278889
3.15,-0.01468557154,0.09559283731
3.16,-0.0107129837,0.09587175749
3.17,-0.006746026798,0.09599050458
3.18,-0.002790793949,0.09595024442
3.19,0.001146722541,0.09575234624
3.2,0.005060635615,0.09539837543
3.21,0.008945167413,0.09489008643
3.22,0.01279465277,0.09422941583
3.23,0.0166035423,0.09341847558
3.24,0.0203664051,0.09245954644
3.25,0.02407793104,0.09135507171
3.26,0.02773293286,0.09010765114
3.27,0.03132634783,0.08872003513
3.28,0.03485323931,0.08719511922
3.29,0.03830879798,0.08553593885
3.3,0.04168834295,0.08374566439
3.31,0.04498732277,0.08182759651
3.32,0.04820131626,0.0797851618
3.33,0.05132603334,0.07762190868
3.34,0.05435731579,0.07534150357
3.35,0.057291138,0.07294772739
3.36,0.06012360785,0.07044447222
3.37,0.06285096748,0.06783573825
3.38,0.06546959435,0.06512563096
3.39,0.06797600224,0.06231835842
3.4,0.07036684251,0.05941822885
3.41,0.07263890545,0.05642964824
3.42,0.07478912188,0.05335711817
3.43,0.07681456485,0.05020523365
3.44,0.07871245163,0.04697868104
3.45,0.08048014589,0.043682236
3.46,0.08211516006,0.04032076145
3.47,0.08361515804,0.03689920544
3.48,0.08497795797,0.033422599
3.49,0.08620153537,0.02989605387
3.5,0.08728402645,0.02632476006
3.51,0.08822373158,0.02271398329
3.52,0.08901911906,0.01906906217
3.53,0.08966882899,0.01539540521
3.54,0.09017167738,0.01169848752
3.55,0.0905266603,0.007983847213
3.56,0.09073295832,0.004257081541
3.57,0.09078994086,0.0005238426225
3.58,0.09069717076,-0.003210167146
3.59,0.09045440883,-0.006939200087
3.6,0.09006161838,-0.01065746864
3.61,0.08951896979,-0.01435915118
3.62,0.08882684493,-0.01803839826
3.63,0.08798584161,-0.0216893393
3.64,0.08699677775,-0.02530608971
3.65,0.08586069545,-0.02888275853
3.66,0.08457886486,-0.03241345637
3.67,0.08315278771,-0.035892304
3.68,0.08158420064,-0.0393134412
3.69,0.07987507811,-0.04267103616
3.7,0.07802763497,-0.04595929522
3.71,0.0760443286,-0.04917247308
3.72,0.0739278606,-0.05230488331
3.73,0.07168117797,-0.05535090931
3.74,0.06930747375,-0.05830501554
3.75,0.06681018714,-0.06116175905
3.76,0.06419300296,-0.0639158013
3.77,0.06145985048,-0.06656192023
3.78,0.05861490166,-0.06909502249
3.79,0.05566256863,-0.07151015583
3.8,0.05260750051,-0.07380252164
3.81,0.04945457943,-0.0759674875
3.82,0.04620891589,-0.07800059983
3.83,0.04287584334,-0.07989759639
3.84,0.03946091192,-0.08165441884
3.85,0.0359698815,-0.08326722509
3.86,0.0324087139,-0.08473240144
3.87,0.02878356436,-0.08604657459
3.88,0.02510077218,-0.08720662327
3.89,0.02136685064,-0.08820968952
3.9,0.01758847614,-0.08905318968
3.91,0.01377247661,-0.08973482481
3.92,0.009925819166,-0.09025259066
3.93,0.00605559712,-0.0906047871
3.94,0.002169016259,-0.09079002694
3.95,-0.001726619476,-0.09080724402
3.96,-0.00562392294,-0.09065570076
3.97,-0.009515439293,-0.09033499479
3.98,-0.01339366205,-0.08984506489
3.99,-0.0172510496,-0.0891861961
4,-0.02108004219,-0.08835902392
4.01,-0.02487307926,-0.08736453763
4.02,-0.02862261714,-0.08620408269
4.03,-0.03232114702,-0.08487936213
4.04,-0.03596121316,-0.08339243704
4.05,-0.03953543122,-0.08174572593
4.06,-0.04303650671,-0.07994200319
4.07,-0.04645725356,-0.07798439643
4.08,-0.04979061249,-0.07587638277
4.09,-0.05302966949,-0.07362178416
4.1,-0.05616767403,-0.07122476153
4.11,-0.05919805705,-0.06868980798
4.12,-0.06211444871,-0.0660217409
4.13,-0.06491069582,-0.06322569302
4.14,-0.06758087876,-0.06030710252
4.15,-0.07011932799,-0.05727170208
4.16,-0.07252064003,-0.05412550698
4.17,-0.07477969281,-0.05087480231
4.18,-0.07689166037,-0.04752612918
4.19,-0.07885202683,-0.04408627013
4.2,-0.08065659965,-0.04056223369
4.21,-0.08230152197,-0.03696123816
4.22,-0.08378328413,-0.03329069463
4.23,-0.08509873431,-0.02955818933
4.24,-0.08624508812,-0.02577146538
4.25,-0.08721993725,-0.02193840387
4.26,-0.08802125703,-0.01806700455
4.27,-0.088647413,-0.01416536596
4.28,-0.08909716626,-0.01024166523
4.29,-0.08936967782,-0.006304137507
4.3,-0.0894645117,-0.002361055196
4.31,-0.08938163692,0.001579293056
4.32,-0.08912142831,0.005508623456
4.33,-0.08868466614,0.009418678223
4.34,-0.08807253454,0.01330124672
4.35,-0.08728661878,0.01714818648
4.36,-0.08632890134,0.02095144409
4.37,-0.08520175685,0.02470307583
4.38,-0.0839079458,0.02839526797
4.39,-0.08245060727,0.03202035679
4.4,-0.08083325036,0.03557084801
4.41,-0.07905974472,0.03903943589
4.42,-0.07713430993,0.04241902161
4.43,-0.07506150391,0.04570273109
4.44,-0.07284621031,0.04888393214
4.45,-0.0704936251,0.05195625079
4.46,-0.06800924209,0.05491358689
4.47,-0.06539883783,0.05775012884
4.48,-0.06266845556,0.06046036737
4.49,-0.05982438856,0.06303910852
4.5,-0.05687316277,0.06548148544
4.51,-0.05382151885,0.06778296937
4.52,-0.05067639371,0.06993937945
4.53,-0.04744490149,0.0719468915
4.54,-0.04413431427,0.07380204569
4.55,-0.04075204231,0.07550175311
4.56,-0.03730561412,0.07704330121
4.57,-0.03380265625,0.07842435806
4.58,-0.03025087302,0.0796429755
4.59,-0.02665802612,0.08069759113
4.6,-0.02303191429,0.08158702919
4.61,-0.01938035299,0.08231050019
4.62,-0.0157111543,0.08286759955
4.63,-0.01203210695,0.08325830505
4.64,-0.008350956702,0.0834829732
4.65,-0.004675386977,0.08354233452
4.66,-0.00101299997,0.08343748785
4.67,0.002628701835,0.08316989358
4.68,0.006242333613,0.08274136591
4.69,0.009820645583,0.08215406423
4.7,0.01335653977,0.08141048353
4.71,0.01684308611,0.08051344402
4.72,0.0202735378,0.07946607992
4.73,0.02364134598,0.07827182746
4.74,0.02694017351,0.07693441227
4.75,0.030163908,0.07545783602
4.76,0.03330667394,0.07384636253
4.77,0.03636284398,0.07210450333
4.78,0.03932704924,0.07023700269
4.79,0.04219418876,0.06824882235
4.8,0.04495943793,0.06614512575
4.81,0.04761825604,0.06393126208
4.82,0.05016639281,0.06161274999
4.83,0.05259989394,0.05919526122
4.84,0.05491510579,0.05668460404
4.85,0.05710867893,0.05408670666
4.86,0.05917757093,0.05140760064
4.87,0.06111904801,0.04865340436
4.88,0.06293068592,0.04583030659
4.89,0.06461036983,0.04294455023
4.9,0.06615629331,0.04000241633
4.91,0.06756695652,0.03701020824
4.92,0.0688411635,0.03397423626
4.93,0.0699780187,0.03090080252
4.94,0.07097692269,0.02779618631
4.95,0.07183756718,0.02466662992
4.96,0.0725599293,0.02151832483
4.97,0.07314426529,0.01835739861
4.98,0.07359110348,0.01518990218
4.99,0.07390123678,0.01202179782
5,0.07407571458,0.008858947668
5.01,0.07411583422,0.005707102934
5.02,0.074023132,0.002571893712
5.03,0.07379937381,-0.0005411805193
5.04,0.07344654537,-0.003626759723
5.05,0.07296684227,-0.006679631441
5.06,0.07236265971,-0.009694738246
5.07,0.07163658201,-0.01266718448
5.08,0.07079137205,-0.01559224235
5.09,0.06982996051,-0.01846535722
5.1,0.06875543516,-0.0212821524
5.11,0.06757103003,-0.02403843307
5.12,0.06628011465,-0.02673018969
5.13,0.06488618338,-0.0293536007
5.14,0.06339284478,-0.03190503458
5.15,0.06180381119,-0.03438105136
5.16,0.06012288848,-0.03677840353
5.17,0.0583539659,-0.03909403635
5.18,0.05650100638,-0.04132508765
5.19,0.05456803688,-0.04346888719
5.2,0.05255913916,-0.04552295548
5.21,0.05047844088,-0.04748500213
5.22,0.04833010692,-0.04935292388
5.23,0.04611833122,-0.05112480221
5.24,0.0438473288,-0.05279890059
5.25,0.04152132838,-0.05437366143
5.26,0.03914456518,-0.05584770279
5.27,0.03672127427,-0.05721981481
5.28,0.03425568424,-0.05848895597
5.29,0.03175201133,-0.05965424912
5.3,0.02921445393,-0.06071497744
5.31,0.02664718747,-0.06167058027
5.32,0.02405435974,-0.06252064885
5.33,0.02144008657,-0.06326492205
5.34,0.0188084479,-0.06390328204
5.35,0.0161634842,-0.06443575003
5.36,0.01350919323,-0.06486248201
5.37,0.01084952717,-0.06518376457
5.38,0.008188390019,-0.06540001085
5.39,0.005529635315,-0.06551175648
5.4,0.002877064115,-0.06551965583
5.41,0.0002344232307,-0.06542447823
5.42,-0.002394596303,-0.06522710449
5.43,-0.005006360568,-0.06492852347
5.44,-0.007597293911,-0.06452982899
5.45,-0.01016387995,-0.06403221675
5.46,-0.01270266243,-0.06343698161
5.47,-0.01521024601,-0.06274551497
5.48,-0.01768329695,-0.06195930243
5.49,-0.02011854372,-0.06107992156
5.5,-0.02251277765,-0.06010903998
5.51,-0.0248628535,-0.05904841355
5.52,-0.02716569009,-0.05789988477
5.53,-0.02941827098,-0.05666538141
5.54,-0.03161764516,-0.05534691522
5.55,-0.0337609279,-0.05394658088
5.56,-0.03584530161,-0.05246655503
5.57,-0.03786801692,-0.05090909543
5.58,-0.03982639378,-0.04927654028
5.59,-0.04171782281,-0.04757130758
5.6,-0.04353976676,-0.04579589454
5.61,-0.04528976212,-0.04395287709
5.62,-0.04696542093,-0.0420449094
5.63,-0.0485644328,-0.04007472336
5.64,-0.05008456708,-0.03804512809
5.65,-0.05152367521,-0.03595900939
5.66,-0.0528796933,-0.03381932913
5.67,-0.05415064487,-0.03162912448
5.68,-0.05533464376,-0.02939150718
5.69,-0.05642989724,-0.02710966249
5.7,-0.0574347093,-0.02478684811
5.71,-0.05834748401,-0.02242639289
5.72,-0.05916672917,-0.02003169526
5.73,-0.05989105994,-0.01760622157
5.74,-0.06051920266,-0.01515350408
5.75,-0.06104999878,-0.01267713876
5.76,-0.0614824088,-0.01018078272
5.77,-0.06181551633,-0.00766815151
5.78,-0.06204853212,-0.005143015944
5.79,-0.06218079816,-0.002609198731
5.8,-0.06221179171,-7.057072847E-05
5.81,-0.0621411293,0.002468953116
5.82,-0.06196857072,0.005005418166
5.83,-0.06169402276,0.007534834831
5.84,-0.06131754305,0.01005318364
5.85,-0.06083934351,0.01255642067
5.86,-0.06025979381,0.01504048328
5.87,-0.05957942449,0.01750129617
5.88,-0.05879892993,0.01993477783
5.89,-0.05791917101,0.02233684722
5.9,-0.05694117747,0.02470343078
5.91,-0.05586614999,0.02703046971
5.92,-0.05469546188,0.02931392759
5.93,-0.05343066045,0.0315497981
5.94,-0.05207346798,0.03373411315
5.95,-0.05062578218,0.03586295105
5.96,-0.0490896764,0.037932445
5.97,-0.04746739921,0.03993879163
5.98,-0.04576137358,0.04187825973
5.99,-0.04397419563,0.04374719905
6,-0.04210863276,0.04554204919
