"Freq [GHz]","re(S(Tx_p1,Tx_p1)) []","im(S(Tx_p1,Tx_p1)) []"
1,-0.00501312687,-0.007974961669
1.01,-0.005278770758,-0.007756369246
1.02,-0.005535763362,-0.007529854208
1.03,-0.005783921251,-0.007295775341
1.04,-0.006023080943,-0.007054488511
1.05,-0.006253097699,-0.006806345285
1.06,-0.006473844217,-0.006551691693
1.07,-0.006685209259,-0.006290867156
1.08,-0.006887096221,-0.006024203578
1.09,-0.007079421655,-0.005752024593
1.1,-0.007262113764,-0.005474644981
1.11,-0.00743511088,-0.005192370253
1.12,-0.007598359943,-0.004905496386
1.13,-0.007751814995,-0.004614309735
1.14,-0.007895435691,-0.004319087085
1.15,-0.008029185867,-0.004020095866
1.16,-0.008153032148,-0.003717594514
1.17,-0.008266942623,-0.003411832967
1.18,-0.008370885605,-0.003103053298
1.19,-0.008464828471,-0.002791490469
1.2,-0.008548736605,-0.002477373206
1.21,-0.008622572446,-0.002160924972
1.22,-0.008686294659,-0.001842365042
1.23,-0.008739857417,-0.001521909656
1.24,-0.008783209833,-0.001199773246
1.25,-0.00881629551,-0.0008761697239
1.26,-0.008839052244,-0.0005513138152
1.27,-0.008851411869,-0.0002254224263
1.28,-0.008853300249,0.0001012839656
1.29,-0.00884463742,0.0004285799164
1.3,-0.008825337883,0.0007562336236
1.31,-0.008795311039,0.001084005555
1.32,-0.008754461785,0.001411647107
1.33,-0.008702691239,0.001738899314
1.34,-0.008639897617,0.002065491608
1.35,-0.00856597724,0.002391140656
1.36,-0.008480825671,0.002715549275
1.37,-0.008384338979,0.003038405444
1.38,-0.008276415114,0.003359381423
1.39,-0.008156955387,0.003678132978
1.4,-0.008025866056,0.003994298745
1.41,-0.007883059988,0.004307499718
1.42,-0.007728458401,0.00461733888
1.43,-0.007561992676,0.004923400988
1.44,-0.007383606209,0.005225252506
1.45,-0.007193256315,0.005522441707
1.46,-0.006990916151,0.005814498931
1.47,-0.00677657665,0.00610093702
1.48,-0.006550248467,0.006381251913
1.49,-0.006311963891,0.006654923422
1.5,-0.006061778747,0.006921416173
1.51,-0.005799774242,0.00718018072
1.52,-0.005526058765,0.007430654823
1.53,-0.005240769607,0.007672264899
1.54,-0.004944074606,0.007904427621
1.55,-0.004636173687,0.008126551687
1.56,-0.0043173003,0.00833803972
1.57,-0.003987722729,0.008538290327
1.58,-0.003647745272,0.008726700276
1.59,-0.00329770927,0.008902666804
1.6,-0.002937993989,0.009065590039
1.61,-0.002569017327,0.009214875515
1.62,-0.002191236351,0.009349936791
1.63,-0.001805147651,0.009470198134
1.64,-0.001411287505,0.009575097277
1.65,-0.001010231844,0.009664088222
1.66,-0.0006025960207,0.009736644083
1.67,-0.0001890343691,0.009792259946
1.68,0.0002297604437,0.009830455744
1.69,0.0006530582757,0.009850779116
1.7,0.00108009258,0.009852808245
1.71,0.001510061687,0.009836154662
1.72,0.001942130294,0.009800465984
1.73,0.002375431166,0.00974542859
1.74,0.002809067036,0.009670770211
1.75,0.003242112707,0.009576262416
1.76,0.003673617343,0.009461722981
1.77,0.004102606953,0.009327018132
1.78,0.004528087045,0.009172064644
1.79,0.004949045454,0.008996831773
1.8,0.005364455322,0.008801343034
1.81,0.005773278237,0.008585677776
1.82,0.006174467493,0.008349972586
1.83,0.006566971485,0.008094422465
1.84,0.006949737206,0.00781928181
1.85,0.007321713841,0.007524865157
1.86,0.007681856444,0.007211547708
1.87,0.008029129671,0.006879765606
1.88,0.008362511573,0.006530015982
1.89,0.008680997412,0.006162856739
1.9,0.008983603494,0.005778906099
1.91,0.009269371005,0.005378841892
1.92,0.009537369824,0.004963400584
1.93,0.009786702295,0.004533376065
1.94,0.01001650696,0.004089618173
1.95,0.0102259622,0.003633030975
1.96,0.01041428981,0.003164570797
1.97,0.01058075845,0.002685244021
1.98,0.01072468699,0.002196104636
1.99,0.01084544772,0.001698251574
2,0.01094246935,0.001192825817
2.01,0.01101523996,0.0006810073007
2.02,0.01106330965,0.0001640116176
2.03,0.01108629303,-0.0003569134678
2.04,0.01108387154,-0.0008804916776
2.05,0.01105579551,-0.00140542204
2.06,0.01100188599,-0.001930382857
2.07,0.01092203633,-0.002454035802
2.08,0.01081621354,-0.002975030136
2.09,0.01068445936,-0.003492007022
2.1,0.01052689108,-0.004003603921
2.11,0.01034370204,-0.004508459059
2.12,0.01013516194,-0.005005215933
2.13,0.009901616781,-0.005492527854
2.14,0.009643488584,-0.005969062496
2.15,0.009361274769,-0.006433506443
2.16,0.009055547296,-0.006884569704
2.17,0.008726951496,-0.007320990185
2.18,0.00837620463,-0.007741538102
2.19,0.008004094171,-0.008145020307
2.2,0.007611475805,-0.008530284516
2.21,0.007199271178,-0.008896223423
2.22,0.006768465377,-0.009241778676
2.23,0.006320104162,-0.009565944702
2.24,0.005855290963,-0.009867772367
2.25,0.005375183639,-0.01014637245
2.26,0.004880991029,-0.01040091892
2.27,0.004373969291,-0.010630652
2.28,0.003855418054,-0.01083488103
2.29,0.003326676393,-0.01101298703
2.3,0.002789118642,-0.01116442511
2.31,0.002244150059,-0.01128872651
2.32,0.001693202372,-0.01138550048
2.33,0.001137729203,-0.01145443582
2.34,0.0005792014046,-0.01149530215
2.35,1.910232125E-05,-0.01150795089
2.36,-0.0005410770093,-0.01149231598
2.37,-0.00109984269,-0.01144841426
2.38,-0.001655702816,-0.01137634556
2.39,-0.002207172335,-0.01127629254
2.4,-0.002752777873,-0.01114852017
2.41,-0.003291062539,-0.01099337496
2.42,-0.003820590664,-0.01081128386
2.43,-0.004339952464,-0.01060275291
2.44,-0.004847768615,-0.01036836557
2.45,-0.005342694713,-0.01010878082
2.46,-0.005823425611,-0.00982473092
2.47,-0.006288699603,-0.009517019013
2.48,-0.006737302453,-0.009186516372
2.49,-0.007168071248,-0.008834159481
2.5,-0.007579898057,-0.00846094686
2.51,-0.007971733388,-0.008067935681
2.52,-0.008342589427,-0.007656238188
2.53,-0.008691543043,-0.007227017927
2.54,-0.009017738563,-0.006781485807
2.55,-0.009320390286,-0.006320896007
2.56,-0.009598784746,-0.005846541749
2.57,-0.009852282703,-0.00535975094
2.58,-0.01008032086,-0.004861881721
2.59,-0.01028241332,-0.004354317928
2.6,-0.01045815272,-0.003838464475
2.61,-0.01060721111,-0.003315742705
2.62,-0.01072934058,-0.002787585694
2.63,-0.01082437347,-0.002255433553
2.64,-0.01089222247,-0.001720728727
2.65,-0.01093288029,-0.001184911323
2.66,-0.01094641911,-0.0006494144799
2.67,-0.01093298978,-0.0001156597951
2.68,-0.01089282062,0.000414947173
2.69,-0.01082621614,0.0009410213058
2.7,-0.01073355536,0.001461202218
2.71,-0.0106152899,0.001974158423
2.72,-0.01047194189,0.00247859136
2.73,-0.01030410157,0.002973239268
2.74,-0.01011242474,0.00345688088
2.75,-0.009897629957,0.003928338951
2.76,-0.009660495546,0.00438648358
2.77,-0.009401856442,0.00483023533
2.78,-0.009122600852,0.005258568141
2.79,-0.00882366677,0.005670512003
2.8,-0.008506038359,0.006065155413
2.81,-0.008170742199,0.006441647585
2.82,-0.007818843444,0.006799200409
2.83,-0.007451441885,0.007137090174
2.84,-0.007069667932,0.007454659027
2.85,-0.006674678556,0.007751316176
2.86,-0.006267653182,0.008026538839
2.87,-0.005849789561,0.008279872931
2.88,-0.005422299638,0.008510933497
2.89,-0.004986405433,0.008719404887
2.9,-0.004543334945,0.008905040673
2.91,-0.004094318104,0.00906766333
2.92,-0.003640582777,0.009207163657
2.93,-0.003183350852,0.009323499972
2.94,-0.002723834408,0.009416697072
2.95,-0.002263231988,0.009486844962
2.96,-0.001802724989,0.009534097383
2.97,-0.001343474179,0.009558670123
2.98,-0.0008866163551,0.009560839137
2.99,-0.0004332611543,0.009540938487
3,1.551197526E-05,0.009499358099
3.01,0.0004586566303,0.009436541368
3.02,0.0008951621289,0.009352982616
3.03,0.001324055999,0.009249224408
3.04,0.001744406273,0.009125854753
3.05,0.002155323579,0.008983504198
3.06,0.002555963032,0.008822842823
3.07,0.002945525913,0.008644577168
3.08,0.003323261136,0.008449447083
3.09,0.003688466505,0.008238222539
3.1,0.004040489751,0.008011700399
3.11,0.004378729363,0.007770701171
3.12,0.004702635199,0.007516065747
3.13,0.00501170889,0.007248652163
3.14,0.005305504037,0.006969332367
3.15,0.005583626201,0.006678989028
3.16,0.005845732698,0.006378512395
3.17,0.006091532199,0.006068797209
3.18,0.006320784146,0.005750739694
3.19,0.00653329798,0.00542523463
3.2,0.006728932214,0.005093172516
3.21,0.006907593323,0.004755436843
3.22,0.007069234497,0.004412901479
3.23,0.007213854242,0.00406642818
3.24,0.00734149485,0.003716864223
3.25,0.007452240741,0.003365040185
3.26,0.007546216705,0.003011767867
3.27,0.007623586027,0.002657838361
3.28,0.007684548538,0.002304020276
3.29,0.007729338581,0.001951058121
3.3,0.007758222913,0.00159967085
3.31,0.007771498558,0.001250550568
3.32,0.00776949061,0.000904361404
3.33,0.007752550019,0.0005617385446
3.34,0.007721051348,0.0002232874361
3.35,0.007675390536,-0.0001104168543
3.36,0.007615982655,-0.0004388301158
3.37,0.007543259692,-0.0007614393137
3.38,0.007457668361,-0.001077762756
3.39,0.007359667941,-0.00138735011
3.4,0.007249728179,-0.001689782279
3.41,0.007128327233,-0.001984671132
3.42,0.006995949699,-0.002271659114
3.43,0.006853084698,-0.00255041872
3.44,0.006700224055,-0.002820651862
3.45,0.006537860563,-0.003082089118
3.46,0.006366486349,-0.003334488889
3.47,0.00618659133,-0.003577636456
3.48,0.005998661791,-0.003811342965
3.49,0.005803179061,-0.004035444324
3.5,0.005600618313,-0.004249800053
3.51,0.005391447476,-0.004454292066
3.52,0.005176126266,-0.00464882342
3.53,0.004955105342,-0.004833317021
3.54,0.00472882558,-0.005007714314
3.55,0.004497717464,-0.005171973948
3.56,0.004262200608,-0.005326070451
3.57,0.004022683383,-0.005469992891
3.58,0.003779562666,-0.005603743571
3.59,0.003533223705,-0.005727336729
3.6,0.003284040082,-0.005840797278
3.61,0.003032373792,-0.005944159589
3.62,0.002778575416,-0.00603746631
3.63,0.002522984383,-0.006120767249
3.64,0.00226592933,-0.006194118318
3.65,0.002007728537,-0.006257580537
3.66,0.001748690436,-0.006311219117
3.67,0.001489114189,-0.006355102627
3.68,0.001229290327,-0.006389302228
3.69,0.0009695014361,-0.00641389101
3.7,0.0007100228931,-0.006428943409
3.71,0.0004511236298,-0.00643453472
3.72,0.0001930669292,-0.006430740704
3.73,-6.38887624E-05,-0.00641763729
3.74,-0.0003194890132,-0.006395300369
3.75,-0.0005734825823,-0.006363805694
3.76,-0.0008256206028,-0.006323228859
3.77,-0.001075655781,-0.006273645389
3.78,-0.00132334162,-0.006215130903
3.79,-0.00156843167,-0.006147761378
3.8,-0.001810678826,-0.006071613494
3.81,-0.002049834661,-0.005986765054
3.82,-0.002285648821,-0.005893295488
3.83,-0.002517868477,-0.005791286421
3.84,-0.002746237839,-0.005680822313
3.85,-0.002970497746,-0.00556199115
3.86,-0.003190385328,-0.005434885191
3.87,-0.003405633749,-0.005299601767
3.88,-0.003615972042,-0.005156244106
3.89,-0.003821125018,-0.005004922196
3.9,-0.004020813277,-0.004845753676
3.91,-0.004214753305,-0.004678864731
3.92,-0.004402657671,-0.004504391002
3.93,-0.00458423531,-0.004322478495
3.94,-0.004759191911,-0.004133284474
3.95,-0.00492723039,-0.003936978348
3.96,-0.005088051464,-0.003733742522
3.97,-0.005241354309,-0.003523773218
3.98,-0.005386837314,-0.003307281257
3.99,-0.005524198917,-0.00308449279
4,-0.005653138522,-0.002855649972
4.01,-0.005773357495,-0.002621011572
4.02,-0.005884560237,-0.002380853515
4.03,-0.005986455319,-0.002135469344
4.04,-0.006078756683,-0.001885170603
4.05,-0.006161184892,-0.001630287125
4.06,-0.006233468441,-0.001371167235
4.07,-0.006295345095,-0.001108177848
4.08,-0.006346563275,-0.0008417044695
4.09,-0.006386883457,-0.0005721510873
4.1,-0.006416079602,-0.0002999399571
4.11,-0.006433940587,-2.551127674E-05
4.12,-0.006440271641,0.0002506772508
4.13,-0.00643489577,0.0005281509681
4.14,-0.006417655177,0.0008064189272
4.15,-0.006388412641,0.001084974666
4.16,-0.006347052877,0.001363297094
4.17,-0.006293483846,0.001640851497
4.18,-0.006227638018,0.001917090637
4.19,-0.006149473574,0.002191455962
4.2,-0.006058975541,0.002463378926
4.21,-0.005956156856,0.00273228239
4.22,-0.00584105934,0.002997582123
4.23,-0.005713754588,0.003258688396
4.24,-0.005574344763,0.003515007642
4.25,-0.005422963279,0.003765944203
4.26,-0.005259775386,0.004010902136
4.27,-0.005084978627,0.004249287087
4.28,-0.004898803191,0.004480508207
4.29,-0.004701512124,0.00470398012
4.3,-0.00449340143,0.004919124923
4.31,-0.004274800025,0.00512537421
4.32,-0.004046069569,0.00532217112
4.33,-0.003807604155,0.005508972387
4.34,-0.003559829864,0.005685250392
4.35,-0.003303204182,0.0058504952
4.36,-0.003038215278,0.006004216586
4.37,-0.002765381147,0.006145946016
4.38,-0.002485248617,0.006275238605
4.39,-0.002198392222,0.006391675012
4.4,-0.001905412945,0.006494863286
4.41,-0.001606936831,0.006584440641
4.42,-0.001303613485,0.006660075152
4.43,-0.0009961144404,0.00672146737
4.44,-0.0006851314227,0.006768351841
4.45,-0.0003713745034,0.006800498525
4.46,-5.557015242E-05,0.006817714107
4.47,0.0002615408025,0.006819843187
4.48,0.0005792053023,0.006806769353
4.49,0.0008966602624,0.00677841612
4.5,0.001213134847,0.006734747742
4.51,0.001527852807,0.006675769875
4.52,0.001840034865,0.006601530103
4.53,0.00214890115,0.006512118313
4.54,0.002453673661,0.006407666921
4.55,0.00275357875,0.006288350946
4.56,0.003047849627,0.006154387923
4.57,0.003335728859,0.006006037665
4.58,0.003616470869,0.005843601872
4.59,0.003889344411,0.005667423569
4.6,0.004153635019,0.005477886408
4.61,0.004408647424,0.005275413801
4.62,0.00465370791,0.005060467908
4.63,0.004888166625,0.004833548479
4.64,0.005111399817,0.004595191542
4.65,0.005322811993,0.004345967964
4.66,0.005521837994,0.004086481865
4.67,0.005707944975,0.003817368905
4.68,0.005880634279,0.003539294455
4.69,0.0060394432,0.003252951641
4.7,0.00618394663,0.002959059281
4.71,0.006313758577,0.002658359725
4.72,0.006428533551,0.002351616595
4.73,0.006527967812,0.002039612443
4.74,0.006611800473,0.001723146335
4.75,0.006679814458,0.001403031357
4.76,0.006731837303,0.001080092083
4.77,0.006767741802,0.0007551619729
4.78,0.006787446497,0.0004290807539
4.79,0.006790916002,0.0001026917591
4.8,0.006778161168,-0.0002231607419
4.81,0.006749239085,-0.0005476342228
4.82,0.006704252918,-0.0008698905746
4.83,0.00664335158,-0.001189098766
4.84,0.00656672925,-0.00150443748
4.85,0.006474624718,-0.001815097711
4.86,0.006367320593,-0.002120285327
4.87,0.006245142333,-0.002419223563
4.88,0.006108457149,-0.002711155462
4.89,0.005957672747,-0.002995346237
4.9,0.005793235938,-0.003271085548
4.91,0.005615631112,-0.003537689696
4.92,0.005425378582,-0.003794503707
4.93,0.00522303281,-0.004040903315
4.94,0.005009180516,-0.004276296832
4.95,0.004784438681,-0.004500126889
4.96,0.004549452457,-0.00471187206
4.97,0.004304892974,-0.004911048341
4.98,0.004051455084,-0.005097210501
4.99,0.003789855017,-0.005269953285
5,0.003520827983,-0.005428912469
5.01,0.003245125719,-0.005573765766
5.02,0.002963513992,-0.005704233585
5.03,0.002676770069,-0.005820079625
5.04,0.002385680165,-0.005921111319
5.05,0.002091036872,-0.006007180124
5.06,0.001793636592,-0.006078181646
5.07,0.001494276969,-0.006134055618
5.08,0.001193754345,-0.006174785714
5.09,0.0008928612305,-0.006200399216
5.1,0.0005923838219,-0.006210966534
5.11,0.0002930995561,-0.006206600564
5.12,-4.22527918E-06,-0.00618745592
5.13,-0.0002988378729,-0.006153728016
5.14,-0.0005900011481,-0.006105652013
5.15,-0.0008769959401,-0.006043501645
5.16,-0.001159123089,-0.005967587908
5.17,-0.001435705439,-0.005878257647
5.18,-0.001706089736,-0.005775892021
5.19,-0.00196964842,-0.005660904869
5.2,-0.002225781306,-0.005533740978
5.21,-0.002473917147,-0.005394874267
5.22,-0.002713515073,-0.005244805884
5.23,-0.002944065903,-0.005084062237
5.24,-0.003165093336,-0.004913192957
5.25,-0.003376154995,-0.004732768811
5.26,-0.003576843347,-0.004543379565
5.27,-0.003766786481,-0.00434563181
5.28,-0.003945648747,-0.004140146763
5.29,-0.004113131262,-0.003927558044
5.3,-0.004268972267,-0.003708509451
5.31,-0.004412947354,-0.003483652722
5.32,-0.004544869554,-0.003253645316
5.33,-0.004664589285,-0.003019148201
5.34,-0.00477199417,-0.002780823672
5.35,-0.004867008727,-0.002539333202
5.36,-0.004949593926,-0.002295335325
5.37,-0.005019746623,-0.002049483583
5.38,-0.005077498879,-0.001802424512
5.39,-0.005122917163,-0.001554795703
5.4,-0.005156101438,-0.001307223928
5.41,-0.005177184155,-0.001060323339
5.42,-0.005186329139,-0.000814693753
5.43,-0.005183730387,-0.0005709190258
5.44,-0.00516961078,-0.0003295655098
5.45,-0.005144220717,-9.118061635E-05
5.46,-0.005107836674,0.0001437085254
5.47,-0.0050607597,0.0003745963041
5.48,-0.005003313861,0.0006009997551
5.49,-0.004935844622,0.0008224595795
5.5,-0.004858717199,0.001038541052
5.51,-0.004772314873,0.001248834815
5.52,-0.00467703727,0.00145295756
5.53,-0.00457329863,0.001650552591
5.54,-0.004461526065,0.001841290278
5.55,-0.004342157803,0.002024868397
5.56,-0.004215641448,0.00220101235
5.57,-0.00408243224,0.002369475282
5.58,-0.003942991339,0.002530038086
5.59,-0.003797784129,0.002682509299
5.6,-0.00364727856,0.002826724898
5.61,-0.003491943519,0.002962547993
5.62,-0.003332247248,0.003089868426
5.63,-0.003168655816,0.003208602274
5.64,-0.003001631638,0.003318691264
5.65,-0.002831632057,0.003420102109
5.66,-0.002659107996,0.00351282576
5.67,-0.002484502667,0.00359687659
5.68,-0.002308250366,0.003672291504
5.69,-0.002130775332,0.003739128996
5.7,-0.001952490697,0.003797468141
5.71,-0.001773797509,0.00384740754
5.72,-0.001595083842,0.003889064229
5.73,-0.001416723993,0.003922572538
5.74,-0.001239077767,0.003948082924
5.75,-0.001062489846,0.003965760786
5.76,-0.0008872892513,0.00397578525
5.77,-0.0007137888896,0.003978347948
5.78,-0.0005422851916,0.003973651791
5.79,-0.0003730578341,0.003961909739
5.8,-0.0002063695503,0.003943343581
5.81,-4.246602263E-05,0.003918182721
5.82,0.0001184241413,0.003886662987
5.83,0.0002760893536,0.00384902546
5.84,0.0004303349136,0.003805515331
5.85,0.0005809828023,0.003756380787
5.86,0.000727871406,0.003701871945
5.87,0.0008708551733,0.003642239814
5.88,0.001009804209,0.003577735317
5.89,0.001144603812,0.003508608346
5.9,0.001275153952,0.003435106888
5.91,0.00140136871,0.003357476193
5.92,0.001523175656,0.003275958005
5.93,0.001640515206,0.003190789858
5.94,0.001753339928,0.003102204426
5.95,0.001861613828,0.003010428947
5.96,0.00196531161,0.002915684705
5.97,0.002064417913,0.002818186582
5.98,0.002158926534,0.002718142674
5.99,0.002248839648,0.002615753977
6,0.002334167017,0.002511214136
