"Freq [GHz]","re(S(Tx_p1,Tx_p1)) []","im(S(Tx_p1,Tx_p1)) []"
1,-0.006402941997,-0.1344506288
1.01,-0.01089870467,-0.1340191472
1.02,-0.01539260495,-0.1334329548
1.03,-0.01987818819,-0.1326911918
1.04,-0.0243489778,-0.131793324
1.05,-0.02879849032,-0.1307391388
1.06,-0.03322025013,-0.129528741
1.07,-0.03760780364,-0.1281625473
1.08,-0.04195473314,-0.1266412816
1.09,-0.0462546701,-0.1249659691
1.1,-0.05050130805,-0.1231379299
1.11,-0.05468841499,-0.1211587729
1.12,-0.05880984536,-0.1190303886
1.13,-0.06285955146,-0.1167549421
1.14,-0.06683159449,-0.1143348657
1.15,-0.07072015499,-0.1117728509
1.16,-0.07451954294,-0.1090718405
1.17,-0.07822420725,-0.1062350203
1.18,-0.08182874484,-0.1032658106
1.19,-0.08532790923,-0.1001678573
1.2,-0.08871661864,-0.0969450234
1.21,-0.09198996359,-0.09360137955
1.22,-0.09514321412,-0.09014119507
1.23,-0.09817182643,-0.08656892859
1.24,-0.1010714491,-0.08288921861
1.25,-0.103837929,-0.07910687404
1.26,-0.1064673163,-0.07522686458
1.27,-0.1089558697,-0.07125431117
1.28,-0.1113000609,-0.0671944763
1.29,-0.1134965782,-0.06305275437
1.3,-0.1155423306,-0.05883466202
1.31,-0.1174344507,-0.05454582848
1.32,-0.1191702978,-0.05019198594
1.33,-0.12074746,-0.04577896
1.34,-0.1221637564,-0.04131266011
1.35,-0.1234172391,-0.03679907009
1.36,-0.124506194,-0.03224423876
1.37,-0.1254291422,-0.02765427064
1.38,-0.1261848404,-0.02303531665
1.39,-0.1267722815,-0.01839356507
1.4,-0.1271906945,-0.01373523246
1.41,-0.1274395443,-0.009066554765
1.42,-0.127518531,-0.004393778543
1.43,-0.1274275892,0.0002768477445
1.44,-0.1271668872,0.004939082254
1.45,-0.1267368248,0.009586698185
1.46,-0.1261380327,0.01421349206
1.47,-0.12537137,0.01881329187
1.48,-0.1244379223,0.02337996509
1.49,-0.1233389994,0.02790742655
1.5,-0.1220761329,0.03238964615
1.51,-0.1206510735,0.03682065647
1.52,-0.1190657876,0.0411945602
1.53,-0.1173224548,0.04550553743
1.54,-0.1154234645,0.04974785286
1.55,-0.1133714119,0.05391586275
1.56,-0.111169095,0.05800402185
1.57,-0.1088195102,0.06200689009
1.58,-0.1063258486,0.06591913919
1.59,-0.103691492,0.0697355591
1.6,-0.1009200081,0.07345106432
1.61,-0.09801514626,0.07706070002
1.62,-0.09498083287,0.0805596481
1.63,-0.09182116647,0.08394323302
1.64,-0.08854041283,0.0872069276
1.65,-0.08514299979,0.09034635853
1.66,-0.08163351205,0.09335731184
1.67,-0.07801668572,0.09623573822
1.68,-0.07429740276,0.09897775811
1.69,-0.07048068529,0.1015796667
1.7,-0.06657168971,0.104037939
1.71,-0.06257570073,0.1063492339
1.72,-0.05849812517,0.1085103994
1.73,-0.05434448571,0.1105184766
1.74,-0.05012041444,0.1123707041
1.75,-0.04583164623,0.1140645215
1.76,-0.04148401207,0.115597574
1.77,-0.03708343215,0.1169677154
1.78,-0.03263590885,0.1181730121
1.79,-0.0281475196,0.1192117459
1.8,-0.02362440959,0.1200824174
1.81,-0.01907278433,0.1207837486
1.82,-0.01449890208,0.121314686
1.83,-0.009909066188,0.1216744025
1.84,-0.005309617244,0.1218622998
1.85,-0.0007069251526,0.1218780107
1.86,0.003892618931,0.1217214003
1.87,0.008482610773,0.1213925677
1.88,0.01305664134,0.1208918474
1.89,0.01760830518,0.1202198098
1.9,0.02213120891,0.1193772622
1.91,0.02661897974,0.1183652492
1.92,0.03106527418,0.1171850526
1.93,0.03546378667,0.1158381911
1.94,0.03980825843,0.1143264203
1.95,0.04409248621,0.1126517312
1.96,0.0483103312,0.1108163495
1.97,0.05245572791,0.1088227337
1.98,0.05652269304,0.1066735737
1.99,0.06050533444,0.1043717886
2,0.06439785996,0.1019205238
2.01,0.06819458635,0.09932314843
2.02,0.07188994808,0.09658325203
2.03,0.07547850614,0.09370464106
2.04,0.07895495671,0.09069133486
2.05,0.08231413986,0.08754756137
2.06,0.085551048,0.08427775244
2.07,0.08866083432,0.08088653878
2.08,0.09163882109,0.07737874459
2.09,0.09448050774,0.0737593817
2.1,0.09718157881,0.07003364351
2.11,0.09973791176,0.06620689842
2.12,0.1021455845,0.062284683
2.13,0.1044008827,0.05827269477
2.14,0.1065003068,0.05417678462
2.15,0.1084405792,0.05000294893
2.16,0.1102186505,0.04575732132
2.17,0.1118317055,0.0414461641
2.18,0.1132771699,0.03707585938
2.19,0.1145527154,0.03265289991
2.2,0.1156562647,0.02818387963
2.21,0.1165859974,0.02367548389
2.22,0.1173403533,0.01913447946
2.23,0.1179180376,0.01456770428
2.24,0.1183180239,0.009982056965
2.25,0.1185395579,0.005384486082
2.26,0.1185821601,0.0007819792703
2.27,0.1184456282,-0.00381844786
2.28,0.1181300392,-0.008409762974
2.29,0.1176357508,-0.01298492839
2.3,0.1169634024,-0.01753691262
2.31,0.1161139156,-0.02205870192
2.32,0.1150884942,-0.02654331202
2.33,0.1138886237,-0.03098379987
2.34,0.1125160706,-0.03537327534
2.35,0.1109728802,-0.03970491309
2.36,0.1092613753,-0.04397196423
2.37,0.1073841531,-0.04816776813
2.38,0.1053440825,-0.05228576397
2.39,0.1031443002,-0.05631950238
2.4,0.1007882067,-0.06026265685
2.41,0.09827946168,-0.06410903499
2.42,0.09562197878,-0.06785258974
2.43,0.09281991995,-0.07148743023
2.44,0.08987768929,-0.07500783256
2.45,0.08679992638,-0.07840825024
2.46,0.08359149915,-0.08168332444
2.47,0.08025749623,-0.08482789388
2.48,0.07680321887,-0.08783700446
2.49,0.07323417246,-0.09070591853
2.5,0.06955605751,-0.09343012382
2.51,0.0657747603,-0.09600534193
2.52,0.06189634309,-0.09842753651
2.53,0.05792703398,-0.1006929209
2.54,0.05387321634,-0.1027979656
2.55,0.04974141799,-0.1047394048
2.56,0.04553829998,-0.1065142428
2.57,0.04127064509,-0.1081197599
2.58,0.0369453461,-0.1095535179
2.59,0.03256939372,-0.1108133646
2.6,0.02814986437,-0.1118974379
2.61,0.02369390774,-0.1128041704
2.62,0.01920873412,-0.1135322914
2.63,0.01470160163,-0.1140808305
2.64,0.01017980335,-0.1144491188
2.65,0.005650654255,-0.1146367909
2.66,0.001121478216,-0.1146437857
2.67,-0.003400405167,-0.1144703463
2.68,-0.00790769366,-0.1141170199
2.69,-0.01239311551,-0.113584657
2.7,-0.01684944249,-0.1128744097
2.71,-0.02126950292,-0.1119877294
2.72,-0.02564619452,-0.1109263647
2.73,-0.02997249718,-0.1096923574
2.74,-0.03424148556,-0.1082880392
2.75,-0.03844634151,-0.106716027
2.76,-0.04258036625,-0.1049792179
2.77,-0.04663699234,-0.1030807838
2.78,-0.0506097954,-0.1010241652
2.79,-0.05449250549,-0.09881306482
2.8,-0.05827901821,-0.09645144026
2.81,-0.06196340547,-0.09394349652
2.82,-0.06553992583,-0.09129367793
2.83,-0.06900303458,-0.08850665962
2.84,-0.07234739328,-0.08558733856
2.85,-0.07556787898,-0.08254082418
2.86,-0.07865959291,-0.07937242859
2.87,-0.08161786877,-0.07608765644
2.88,-0.08443828055,-0.07269219442
2.89,-0.08711664975,-0.06919190043
2.9,-0.08964905225,-0.06559279245
2.91,-0.09203182451,-0.06190103713
2.92,-0.09426156932,-0.05812293814
2.93,-0.09633516098,-0.0542649243
2.94,-0.09824974996,-0.05033353746
2.95,-0.1000027669,-0.04633542029
2.96,-0.1015919263,-0.04227730386
2.97,-0.103015229,-0.03816599512
2.98,-0.1042709652,-0.03400836433
2.99,-0.1053577157,-0.02981133237
3,-0.1062743533,-0.02558185806
3.01,-0.1070200434,-0.02132692544
3.02,-0.107594244,-0.01705353113
3.03,-0.1079967055,-0.01276867167
3.04,-0.1082274689,-0.00847933096
3.05,-0.1082868649,-0.004192467854
3.06,-0.1081755114,8.499619588E-05
3.07,-0.1078943106,0.00434618929
3.08,-0.1074444459,0.008584301068
3.09,-0.1068273781,0.01279259449
3.1,-0.1060448411,0.01696441739
3.11,-0.1050988369,0.02109321378
3.12,-0.1039916307,0.02517253487
3.13,-0.1027257448,0.02919604981
3.14,-0.1013039523,0.03315755613
3.15,-0.09972927107,0.03705098978
3.16,-0.09800495606,0.04087043492
3.17,-0.09613449222,0.04461013327
3.18,-0.0941215866,0.04826449307
3.19,-0.09197016014,0.0518280977
3.2,-0.08968433928,0.05529571382
3.21,-0.08726844705,0.05866229915
3.22,-0.08472699405,0.06192300972
3.23,-0.08206466909,0.06507320678
3.24,-0.07928632954,0.06810846318
3.25,-0.07639699159,0.07102456931
3.26,-0.07340182017,0.07381753856
3.27,-0.07030611882,0.07648361229
3.28,-0.06711531933,0.0790192644
3.29,-0.0638349713,0.08142120527
3.3,-0.06047073158,0.08368638534
3.31,-0.05702835363,0.08581199818
3.32,-0.05351367686,0.08779548302
3.33,-0.04993261588,0.08963452683
3.34,-0.04629114979,0.09132706595
3.35,-0.04259531149,0.0928712872
3.36,-0.03885117695,0.09426562854
3.37,-0.03506485464,0.09550877922
3.38,-0.03124247498,0.09659967957
3.39,-0.02739017987,0.09753752023
3.4,-0.02351411239,0.09832174102
3.41,-0.01962040663,0.09895202932
3.42,-0.0157151776,0.09942831807
3.43,-0.01180451141,0.09975078335
3.44,-0.007894455604,0.09991984156
3.45,-0.00399100967,0.09993614621
3.46,-0.0001001158094,0.09980058434
3.47,0.003772350081,0.0995142726
3.48,0.00762058717,0.09907855299
3.49,0.01143887819,0.09849498824
3.5,0.01522159769,0.09776535692
3.51,0.01896321994,0.09689164823
3.52,0.02265832665,0.09587605649
3.53,0.02630161426,0.09472097546
3.54,0.02988790103,0.09342899228
3.55,0.03341213378,0.09200288132
3.56,0.03686939426,0.09044559767
3.57,0.04025490525,0.0887602706
3.58,0.04356403633,0.08695019669
3.59,0.04679230929,0.08501883289
3.6,0.0499354032,0.08296978942
3.61,0.05298915917,0.08080682252
3.62,0.05594958475,0.0785338271
3.63,0.05881285801,0.0761548293
3.64,0.06157533124,0.07367397899
3.65,0.06423353438,0.07109554211
3.66,0.0667841781,0.06842389313
3.67,0.06922415645,0.06566350731
3.68,0.07155054936,0.06281895302
3.69,0.07376062466,0.05989488406
3.7,0.0758518399,0.05689603198
3.71,0.07782184375,0.05382719836
3.72,0.07966847719,0.05069324722
3.73,0.08138977435,0.04749909743
3.74,0.08298396307,0.04424971514
3.75,0.08444946517,0.04095010631
3.76,0.08578489646,0.03760530937
3.77,0.08698906645,0.03422038784
3.78,0.08806097783,0.03080042315
3.79,0.08899982568,0.02735050756
3.8,0.08980499647,0.02387573709
3.81,0.09047606673,0.02038120469
3.82,0.09101280163,0.01687199347
3.83,0.09141515322,0.01335317008
3.84,0.09168325857,0.00982977817
3.85,0.09181743757,0.006306832111
3.86,0.09181819073,0.002789310731
3.87,0.0916861966,-0.0007178487227
3.88,0.09142230915,-0.004209756495
3.89,0.09102755496,-0.007681576081
3.9,0.0905031302,-0.01112852982
3.91,0.08985039755,-0.01454590434
3.92,0.08907088288,-0.01792905584
3.93,0.0881662719,-0.02127341521
3.94,0.08713840658,-0.024574493
3.95,0.08598928159,-0.02782788419
3.96,0.08472104046,-0.03102927287
3.97,0.0833359718,-0.03417443671
3.98,0.08183650533,-0.03725925125
3.99,0.0802252078,-0.04027969411
4,0.07850477894,-0.04323184893
4.01,0.07667804719,-0.0461119093
4.02,0.07474796547,-0.04891618238
4.03,0.07271760681,-0.05164109247
4.04,0.07059015996,-0.0542831844
4.05,0.0683689249,-0.05683912677
4.06,0.06605730833,-0.05930571502
4.07,0.06365881907,-0.0616798744
4.08,0.06117706347,-0.06395866275
4.09,0.05861574071,-0.06613927318
4.1,0.05597863808,-0.06821903654
4.11,0.05326962623,-0.07019542385
4.12,0.05049265438,-0.0720660485
4.13,0.04765174547,-0.07382866834
4.14,0.04475099132,-0.07548118769
4.15,0.04179454768,-0.07702165912
4.16,0.03878662937,-0.07844828518
4.17,0.03573150523,-0.07975941992
4.18,0.03263349321,-0.08095357035
4.19,0.0294969553,-0.08202939774
4.2,0.02632629251,-0.08298571875
4.21,0.02312593979,-0.08382150646
4.22,0.01990036094,-0.0845358913
4.23,0.01665404349,-0.08512816177
4.24,0.01339149356,-0.08559776508
4.25,0.01011723072,-0.08594430766
4.26,0.006835782783,-0.08616755546
4.27,0.003551680626,-0.08626743422
4.28,0.0002694529846,-0.08624402951
4.29,-0.003006378785,-0.08609758666
4.3,-0.00627130594,-0.08582851056
4.31,-0.009520837596,-0.08543736529
4.32,-0.01275050599,-0.08492487362
4.33,-0.01595587174,-0.08429191633
4.34,-0.01913252912,-0.08353953145
4.35,-0.02227611128,-0.08266891322
4.36,-0.02538229559,-0.08168141102
4.37,-0.02844680881,-0.08057852808
4.38,-0.03146543238,-0.07936191998
4.39,-0.03443400765,-0.07803339311
4.4,-0.03734844107,-0.07659490283
4.41,-0.04020470936,-0.07504855154
4.42,-0.04299886471,-0.07339658656
4.43,-0.04572703988,-0.07164139779
4.44,-0.04838545324,-0.06978551528
4.45,-0.05097041386,-0.06783160657
4.46,-0.05347832646,-0.06578247379
4.47,-0.05590569633,-0.06364105074
4.48,-0.0582491342,-0.06141039958
4.49,-0.06050536099,-0.05909370752
4.5,-0.06267121253,-0.05669428324
4.51,-0.06474364416,-0.0542155531
4.52,-0.06671973526,-0.05166105721
4.53,-0.06859669362,-0.04903444535
4.54,-0.0703718598,-0.04633947259
4.55,-0.07204271121,-0.04357999486
4.56,-0.07360686625,-0.04075996427
4.57,-0.07506208814,-0.03788342424
4.58,-0.07640628874,-0.0349545045
4.59,-0.07763753208,-0.03197741589
4.6,-0.07875403787,-0.02895644503
4.61,-0.07975418471,-0.02589594872
4.62,-0.08063651319,-0.02280034836
4.63,-0.08139972876,-0.01967412402
4.64,-0.08204270445,-0.01652180852
4.65,-0.08256448331,-0.01334798126
4.66,-0.08296428073,-0.010157262
4.67,-0.08324148638,-0.006954304446
4.68,-0.08339566613,-0.00374378974
4.69,-0.08342656353,-0.0005304198537
4.7,-0.08333410114,0.002681089137
4.71,-0.08311838162,0.005886013869
4.72,-0.08277968851,0.009079630586
4.73,-0.08231848675,0.01225722211
4.74,-0.08173542298,0.01541408488
4.75,-0.08103132544,0.01854553601
4.76,-0.08020720377,0.02164692045
4.77,-0.0792642483,0.02471361812
4.78,-0.07820382929,0.02774105105
4.79,-0.07702749563,0.03072469058
4.8,-0.07573697346,0.0336600645
4.81,-0.07433416431,0.03654276421
4.82,-0.0728211431,0.03936845176
4.83,-0.07120015571,0.04213286697
4.84,-0.06947361628,0.04483183433
4.85,-0.06764410431,0.04746126998
4.86,-0.06571436127,0.05001718846
4.87,-0.0636872871,0.05249570945
4.88,-0.0615659363,0.05489306434
4.89,-0.05935351376,0.05720560267
4.9,-0.05705337033,0.05942979845
4.91,-0.05466899804,0.06156225629
4.92,-0.05220402512,0.06359971734
4.93,-0.04966221072,0.0655390651
4.94,-0.04704743933,0.06737733096
4.95,-0.044363715,0.06911169956
4.96,-0.04161515528,0.07073951391
4.97,-0.03880598494,0.07225828029
4.98,-0.03594052945,0.07366567285
4.99,-0.03302320826,0.07495953802
5,-0.03005852782,0.07613789853
5.01,-0.02705107451,0.0771989573
5.02,-0.02400550726,0.07814110085
5.03,-0.02092655011,0.07896290259
5.04,-0.01781898455,0.07966312565
5.05,-0.01468764176,0.08024072544
5.06,-0.01153739465,0.08069485191
5.07,-0.008373149893,0.08102485145
5.08,-0.005199839792,0.08123026838
5.09,-0.002022414058,0.08131084623
5.1,0.001154168441,0.08126652853
5.11,0.004324947995,0.08109745931
5.12,0.007484972407,0.08080398324
5.13,0.01062930535,0.0803866454
5.14,0.01375303476,0.07984619064
5.15,0.01685128113,0.07918356266
5.16,0.01991920588,0.07839990265
5.17,0.0229520196,0.07749654761
5.18,0.02594499025,0.07647502826
5.19,0.02889345124,0.07533706669
5.2,0.03179280947,0.07408457348
5.21,0.03463855324,0.07271964468
5.22,0.03742625996,0.07124455827
5.23,0.04015160376,0.06966177036
5.24,0.04281036296,0.06797391105
5.25,0.04539842731,0.06618377996
5.26,0.04791180504,0.06429434143
5.27,0.0503466297,0.0623087194
5.28,0.0526991668,0.06023019204
5.29,0.05496582019,0.05806218606
5.3,0.05714313813,0.05580827074
5.31,0.05922781925,0.05347215166
5.32,0.06121671801,0.0510576643
5.33,0.06310685008,0.04856876724
5.34,0.06489539729,0.04600953527
5.35,0.06657971232,0.04338415218
5.36,0.06815732303,0.04069690344
5.37,0.06962593651,0.03795216867
5.38,0.07098344277,0.03515441389
5.39,0.07222791807,0.03230818373
5.4,0.07335762793,0.02941809337
5.41,0.07437102975,0.02648882051
5.42,0.07526677511,0.02352509709
5.43,0.07604371163,0.02053170108
5.44,0.07670088459,0.01751344805
5.45,0.07723753804,0.01447518281
5.46,0.07765311561,0.01142177096
5.47,0.07794726096,0.008358090437
5.48,0.07811981783,0.005289023055
5.49,0.07817082971,0.002219446092
5.5,0.07810053916,-0.0008457761137
5.51,0.07790938678,-0.003901800504
5.52,0.07759800979,-0.006943813572
5.53,0.07716724022,-0.009967039541
5.54,0.07661810287,-0.01296674845
5.55,0.07595181277,-0.01593826412
5.56,0.07516977239,-0.01887697197
5.57,0.07427356851,-0.0217783267
5.58,0.07326496877,-0.02463785983
5.59,0.07214591785,-0.02745118698
5.6,0.07091853341,-0.03021401508
5.61,0.06958510171,-0.03292214928
5.62,0.06814807293,-0.03557149965
5.63,0.06661005625,-0.03815808771
5.64,0.06497381464,-0.04067805267
5.65,0.06324225938,-0.04312765743
5.66,0.06141844443,-0.04550329431
5.67,0.05950556047,-0.04780149051
5.68,0.05750692881,-0.05001891333
5.69,0.05542599506,-0.05215237503
5.7,0.05326632263,-0.05419883747
5.71,0.05103158605,-0.05615541638
5.72,0.0487255642,-0.05801938536
5.73,0.04635213327,-0.05978817958
5.74,0.04391525978,-0.06145939913
5.75,0.04141899329,-0.06303081203
5.76,0.03886745922,-0.06450035702
5.77,0.03626485138,-0.0658661459
5.78,0.03361542466,-0.0671264656
5.79,0.03092348747,-0.06827977994
5.8,0.0281933943,-0.06932473101
5.81,0.02542953817,-0.07026014029
5.82,0.0226363431,-0.07108500937
5.83,0.01981825664,-0.07179852041
5.84,0.01697974236,-0.07240003627
5.85,0.01412527238,-0.07288910024
5.86,0.01125932004,-0.07326543562
5.87,0.008386352538,-0.07352894481
5.88,0.005510823676,-0.07367970825
5.89,0.002637166745,-0.07371798297
5.9,-0.0002302125373,-0.07364420087
5.91,-0.003086942955,-0.07345896676
5.92,-0.005928694586,-0.07316305604
5.93,-0.008751185466,-0.07275741222
5.94,-0.0115501881,-0.0722431441
5.95,-0.01432153579,-0.0716215227
5.96,-0.01706112884,-0.07089397801
5.97,-0.01976494057,-0.07006209544
5.98,-0.02242902307,-0.06912761213
5.99,-0.02504951289,-0.06809241293
6,-0.0276226364,-0.06695852629
