"Freq [GHz]","re(S(Tx_p1,Tx_p1)) []","im(S(Tx_p1,Tx_p1)) []"
1,-0.003835627671,-0.003682404411
1.01,-0.003960649097,-0.003490182885
1.02,-0.004076157179,-0.00329372352
1.03,-0.004181992237,-0.003093533714
1.04,-0.004278025566,-0.002890126925
1.05,-0.004364159512,-0.00268402062
1.06,-0.004440327412,-0.002475734252
1.07,-0.004506493407,-0.002265787259
1.08,-0.004562652134,-0.002054697096
1.09,-0.004608828286,-0.001842977324
1.1,-0.004645076062,-0.001631135729
1.11,-0.004671478502,-0.001419672517
1.12,-0.004688146706,-0.001209078562
1.13,-0.00469521896,-0.0009998337262
1.14,-0.004692859751,-0.0007924052563
1.15,-0.0046812587,-0.0005872462632
1.16,-0.0046606294,-0.0003847942849
1.17,-0.004631208177,-0.0001854699419
1.18,-0.004593252779,1.032431157E-05
1.19,-0.004547040992,0.0002022053378
1.2,-0.004492869205,0.0003898103631
1.21,-0.00443105091,0.0005727979201
1.22,-0.00436191517,0.0007508486815
1.23,-0.004285805041,0.0009236661854
1.24,-0.004203075961,0.001090977448
1.25,-0.004114094125,0.001252533465
1.26,-0.004019234837,0.0014081096
1.27,-0.003918880858,0.001557505863
1.28,-0.003813420753,0.001700547072
1.29,-0.00370324724,0.001837082906
1.3,-0.003588755565,0.001966987853
1.31,-0.003470341883,0.002090161041
1.32,-0.003348401683,0.002206525973
1.33,-0.003223328232,0.002316030157
1.34,-0.003095511075,0.002418644629
1.35,-0.002965334575,0.002514363399
1.36,-0.002833176505,0.002603202782
1.37,-0.002699406704,0.002685200664
1.38,-0.002564385797,0.00276041567
1.39,-0.002428463981,0.002828926265
1.4,-0.002291979889,0.002890829774
1.41,-0.00215525953,0.002946241348
1.42,-0.002018615311,0.002995292856
1.43,-0.001882345146,0.003038131732
1.44,-0.001746731652,0.00307491977
1.45,-0.001612041438,0.003105831882
1.46,-0.001478524482,0.003131054811
1.47,-0.001346413609,0.003150785826
1.48,-0.001215924063,0.003165231392
1.49,-0.00108725317,0.003174605818
1.5,-0.0009605801048,0.003179129907
1.51,-0.0008360657533,0.003179029599
1.52,-0.000713852666,0.003174534617
1.53,-0.0005940651111,0.003165877127
1.54,-0.0004768092195,0.003153290418
1.55,-0.0003621732205,0.003137007599
1.56,-0.0002502277675,0.003117260338
1.57,-0.0001410263499,0.003094277622
1.58,-3.460578735E-05,0.003068284571
1.59,6.90131952E-05,0.003039501296
1.6,0.0001698253173,0.003008141807
1.61,0.0002678400208,0.00297441298
1.62,0.000363080681,0.002938513588
1.63,0.0004555837544,0.002900633393
1.64,0.0005453978701,0.002860952317
1.65,0.0006325828687,0.002819639676
1.66,0.0007172087943,0.002776853498
1.67,0.000799354846,0.002732739921
1.68,0.0008791082939,0.00268743267
1.69,0.0009565633664,0.002641052615
1.7,0.001031820114,0.002593707427
1.71,0.001104983257,0.002545491304
1.72,0.001176161019,0.002496484797
1.73,0.001245463965,0.002446754721
1.74,0.001313003826,0.002396354148
1.75,0.001378892348,0.002345322494
1.76,0.001443240145,0.002293685691
1.77,0.001506155572,0.002241456436
1.78,0.001567743627,0.002188634535
1.79,0.001628104888,0.002135207319
1.8,0.001687334476,0.002081150141
1.81,0.001745521073,0.002026426946
1.82,0.001802745981,0.001970990917
1.83,0.001859082233,0.001914785186
1.84,0.001914593763,0.001857743611
1.85,0.001969334643,0.00179979161
1.86,0.002023348374,0.001740847052
1.87,0.002076667256,0.001680821204
1.88,0.002129311828,0.001619619713
1.89,0.002181290383,0.001557143635
1.9,0.00223259856,0.001493290502
1.91,0.002283219024,0.001427955407
1.92,0.002333121218,0.001361032124
1.93,0.00238226121,0.001292414241
1.94,0.002430581615,0.0012219963
1.95,0.00247801161,0.001149674952
1.96,0.002524467036,0.001075350101
1.97,0.002569850579,0.0009989260506
1.98,0.002614052044,0.0009203126324
1.99,0.002656948707,0.0008394263165
2,0.002698405757,0.0007561912987
2.01,0.002738276817,0.0006705405564
2.02,0.002776404536,0.0005824168682
2.03,0.002812621275,0.0004917737924
2.04,0.002846749847,0.0003985765979
2.05,0.002878604347,0.000302803143
2.06,0.002907991029,0.0002044446977
2.07,0.002934709264,0.0001035067032
2.08,0.002958552544,9.465836212E-09
2.09,0.002979309547,-0.0001060112194
2.1,0.002996765249,-0.0002145035194
2.11,0.003010702078,-0.0003253990913
2.12,0.003020901111,-0.0004386126915
2.13,0.003027143304,-0.0005540418677
2.14,0.003029210744,-0.0006715667375
2.15,0.003026887928,-0.0007910498543
2.16,0.003019963061,-0.0009123361632
2.17,0.003008229353,-0.001035253047
2.18,0.002991486329,-0.001159610465
2.19,0.002969541136,-0.00128520118
2.2,0.002942209833,-0.001411801086
2.21,0.002909318672,-0.001539169613
2.22,0.002870705361,-0.001667050238
2.23,0.00282622029,-0.001795171076
2.24,0.00277572773,-0.001923245556
2.25,0.002719106993,-0.002050973197
2.26,0.00265625354,-0.002178040448
2.27,0.002587080045,-0.002304121623
2.28,0.002511517397,-0.002428879907
2.29,0.002429515645,-0.002551968435
2.3,0.002341044872,-0.002673031442
2.31,0.002246096,-0.002791705479
2.32,0.002144681514,-0.002907620686
2.33,0.002036836114,-0.003020402127
2.34,0.001922617272,-0.003129671166
2.35,0.001802105713,-0.003235046898
2.36,0.001675405793,-0.003336147616
2.37,0.001542645793,-0.003432592305
2.38,0.00140397811,-0.003524002175
2.39,0.001259579353,-0.003610002205
2.4,0.00110965034,-0.003690222711
2.41,0.0009544159857,-0.003764300911
2.42,0.0007941251006,-0.003831882505
2.43,0.0006290500755,-0.00389262324
2.44,0.0004594864701,-0.003946190467
2.45,0.000285752497,-0.003992264683
2.46,0.0001081884062,-0.004030541043
2.47,-7.284423162E-05,-0.004060730842
2.48,-0.0002569633384,-0.004082562966
2.49,-0.0004437672392,-0.004095785284
2.5,-0.0006328356646,-0.00410016601
2.51,-0.0008237308445,-0.004095494988
2.52,-0.001015998688,-0.004081584927
2.53,-0.001209170047,-0.004058272568
2.54,-0.001402762059,-0.004025419769
2.55,-0.001596279562,-0.003982914519
2.56,-0.001789216583,-0.003930671868
2.57,-0.00198105789,-0.003868634763
2.58,-0.002171280599,-0.003796774794
2.59,-0.002359355841,-0.003715092851
2.6,-0.002544750471,-0.003623619667
2.61,-0.002726928824,-0.003522416268
2.62,-0.002905354499,-0.003411574315
2.63,-0.003079492176,-0.003291216335
2.64,-0.003248809456,-0.003161495843
2.65,-0.003412778709,-0.00302259735
2.66,-0.003570878939,-0.002874736262
2.67,-0.003722597641,-0.002718158659
2.68,-0.003867432659,-0.002553140965
2.69,-0.004004894024,-0.0023799895
2.7,-0.004134505777,-0.002199039924
2.71,-0.004255807759,-0.002010656556
2.72,-0.004368357374,-0.001815231601
2.73,-0.004471731302,-0.001613184251
2.74,-0.004565527167,-0.001404959687
2.75,-0.004649365155,-0.001191027976
2.76,-0.004722889558,-0.0009718828709
2.77,-0.004785770267,-0.0007480405041
2.78,-0.004837704176,-0.0005200379986
2.79,-0.004878416514,-0.0002884319837
2.8,-0.004907662091,-5.379702957E-05
2.81,-0.004925226453,0.0001832759976
2.82,-0.004930926941,0.0004221816534
2.83,-0.004924613651,0.0006623017013
2.84,-0.00490617029,0.0009030069595
2.85,-0.004875514919,0.001143659203
2.86,-0.004832600595,0.001383613117
2.87,-0.004777415889,0.001622218286
2.88,-0.004709985288,0.001858821227
2.89,-0.004630369483,0.002092767442
2.9,-0.004538665527,0.002323403499
2.91,-0.004435006882,0.002550079118
2.92,-0.004319563328,0.002772149272
2.93,-0.004192540761,0.002988976281
2.94,-0.004054180858,0.003199931896
2.95,-0.003904760624,0.003404399375
2.96,-0.003744591813,0.003601775523
2.97,-0.00357402023,0.003791472708
2.98,-0.003393424912,0.003972920843
2.99,-0.003203217192,0.004145569309
3,-0.003003839648,0.004308888837
3.01,-0.002795764944,0.004462373328
3.02,-0.00257949456,0.0046055416
3.03,-0.002355557416,0.004737939071
3.04,-0.002124508406,0.004859139356
3.05,-0.001886926826,0.004968745785
3.06,-0.001643414717,0.005066392827
3.07,-0.00139459513,0.005151747414
3.08,-0.001141110299,0.005224510174
3.09,-0.0008836197571,0.005284416552
3.1,-0.0006227983746,0.005331237819
3.11,-0.000359334343,0.005364781971
3.12,-9.392710602E-05,0.005384894513
3.13,0.0001727147561,0.005391459117
3.14,0.0004398756799,0.005384398158
3.15,0.0007068353036,0.005363673132
3.16,0.0009728706756,0.005329284934
3.17,0.001237258479,0.005281274024
3.18,0.001499277264,0.005219720445
3.19,0.001758209684,0.005144743733
3.2,0.00201334472,0.005056502676
3.21,0.002263979892,0.004955194961
3.22,0.002509423457,0.004841056685
3.23,0.002748996559,0.004714361741
3.24,0.002982035362,0.004575421079
3.25,0.003207893124,0.004424581846
3.26,0.003425942226,0.004262226408
3.27,0.003635576144,0.004088771251
3.28,0.003836211347,0.003904665776
3.29,0.004027289138,0.003710390979
3.3,0.004208277398,0.003506458034
3.31,0.004378672267,0.003293406766
3.32,0.004537999715,0.003071804044
3.33,0.00468581703,0.002842242074
3.34,0.004821714208,0.002605336613
3.35,0.004945315225,0.002361725105
3.36,0.005056279213,0.00211206475
3.37,0.005154301517,0.001857030504
3.38,0.005239114633,0.001597313024
3.39,0.005310489034,0.001333616566
3.4,0.005368233865,0.00106665683
3.41,0.005412197519,0.0007971587827
3.42,0.005442268082,0.0005258544399
3.43,0.005458373658,0.0002534806347
3.44,0.005460482552,-1.922322995E-05
3.45,0.005448603339,-0.0002915174346
3.46,0.005422784794,-0.0005626641943
3.47,0.005383115691,-0.0008319299012
3.48,0.005329724487,-0.001098587349
3.49,0.005262778862,-0.001361917935
3.5,0.005182485152,-0.001621213829
3.51,0.005089087644,-0.001875780104
3.52,0.004982867759,-0.00212493682
3.53,0.004864143119,-0.002368021057
3.54,0.004733266498,-0.002604388891
3.55,0.00459062466,-0.002833417295
3.56,0.004436637099,-0.003054505977
3.57,0.004271754674,-0.003267079138
3.58,0.004096458144,-0.003470587143
3.59,0.003911256623,-0.00366450811
3.6,0.003716685938,-0.003848349394
3.61,0.003513306911,-0.004021648986
3.62,0.003301703578,-0.004183976798
3.63,0.003082481319,-0.004334935849
3.64,0.002856264952,-0.004474163335
3.65,0.002623696752,-0.00460133159
3.66,0.002385434436,-0.004716148927
3.67,0.002142149101,-0.004818360367
3.68,0.00189452313,-0.004907748239
3.69,0.001643248078,-0.004984132666
3.7,0.001389022525,-0.005047371921
3.71,0.001132549931,-0.005097362672
3.72,0.0008745364821,-0.005134040085
3.73,0.0006156889336,-0.005157377821
3.74,0.0003567124717,-0.005167387902
3.75,9.830858593E-05,-0.005164120457
3.76,-0.0001588270319,-0.005147663346
3.77,-0.0004140065586,-0.00511814167
3.78,-0.0006665520733,-0.005075717164
3.79,-0.0009157975464,-0.005020587477
3.8,-0.001161090779,-0.004952985337
3.81,-0.001401795286,-0.00487317762
3.82,-0.001637292113,-0.004781464309
3.83,-0.001866981594,-0.004678177352
3.84,-0.002090285024,-0.004563679436
3.85,-0.002306646262,-0.004438362662
3.86,-0.002515533247,-0.004302647143
3.87,-0.002716439425,-0.004156979513
3.88,-0.002908885088,-0.004001831378
3.89,-0.003092418613,-0.003837697681
3.9,-0.003266617605,-0.003665095023
3.91,-0.003431089934,-0.003484559914
3.92,-0.003585474672,-0.003296646981
3.93,-0.003729442917,-0.003101927137
3.94,-0.003862698515,-0.002900985701
3.95,-0.003984978662,-0.002694420502
3.96,-0.004096054405,-0.002482839949
3.97,-0.00419573102,-0.00226686109
3.98,-0.004283848283,-0.002047107661
3.99,-0.004360280631,-0.001824208123
4,-0.004424937201,-0.001598793716
4.01,-0.004477761767,-0.001371496511
4.02,-0.004518732563,-0.001142947482
4.03,-0.004547861996,-0.0009137746018
4.04,-0.004565196253,-0.0006846009622
4.05,-0.004570814807,-0.0004560429345
4.06,-0.004564829818,-0.0002287083648
4.07,-0.004547385431,-3.194817968E-06
4.08,-0.004518656993,0.0002199121269
4.09,-0.004478850158,0.0004400405251
4.1,-0.004428199924,0.0006566336527
4.11,-0.004366969568,0.000869151527
4.12,-0.004295449521,0.001077072356
4.13,-0.004213956147,0.001279893912
4.14,-0.004122830474,0.001477134827
4.15,-0.004022436842,0.00166833581
4.16,-0.0039131615,0.001853060768
4.17,-0.003795411152,0.002030897851
4.18,-0.003669611448,0.002201460397
4.19,-0.003536205434,0.002364387787
4.2,-0.003395651966,0.00251934621
4.21,-0.003248424096,0.002666029321
4.22,-0.003095007422,0.002804158809
4.23,-0.00293589843,0.002933484867
4.24,-0.002771602819,0.003053786557
4.25,-0.002602633811,0.003164872085
4.26,-0.002429510471,0.003266578966
4.27,-0.002252756021,0.003358774107
4.28,-0.002072896169,0.003441353774
4.29,-0.001890457453,0.003514243478
4.3,-0.0017059656,0.003577397764
4.31,-0.001519943918,0.0036307999
4.32,-0.001332911716,0.003674461488
4.33,-0.001145382763,0.003708421979
4.34,-0.0009578637802,0.003732748106
4.35,-0.0007708529883,0.003747533237
4.36,-0.0005848387005,0.00375289665
4.37,-0.0004002979695,0.00374898273
4.38,-0.0002176952938,0.003735960101
4.39,-3.748138536E-05,0.003714020686
4.4,0.0001399079971,0.003683378707
4.41,0.0003140531466,0.00364426963
4.42,0.0004845514355,0.00359694905
4.43,0.0006510182683,0.003541691532
4.44,0.0008130879594,0.003478789406
4.45,0.0009704145322,0.003408551524
4.46,0.001122672439,0.003331301982
4.47,0.0012695572,0.003247378814
4.48,0.00141078596,0.003157132656
4.49,0.00154609796,0.003060925404
4.5,0.001675254934,0.002959128842
4.51,0.001798041412,0.002852123272
4.52,0.001914264945,0.002740296138
4.53,0.002023756251,0.002624040646
4.54,0.002126369275,0.002503754398
4.55,0.002221981165,0.002379838032
4.56,0.002310492181,0.002252693872
4.57,0.002391825513,0.002122724615
4.58,0.002465927034,0.001990332019
4.59,0.002532764973,0.001855915642
4.6,0.002592329519,0.001719871598
4.61,0.00264463236,0.00158259136
4.62,0.002689706151,0.001444460595
4.63,0.002727603925,0.001305858051
4.64,0.002758398441,0.001167154483
4.65,0.00278218148,0.001028711639
4.66,0.002799063086,0.0008908812924
4.67,0.002809170759,0.0007540043293
4.68,0.002812648606,0.0006184099004
4.69,0.002809656449,0.0004844146279
4.7,0.002800368899,0.0003523218764
4.71,0.002784974395,0.0002224210874
4.72,0.002763674216,9.498717855E-05
4.73,0.002736681472,-2.971999068E-05
4.74,0.002704220071,-0.000151456087
4.75,0.002666523672,-0.0002699927037
4.76,0.00262383463,-0.0003851176936
4.77,0.002576402932,-0.0004966354347
4.78,0.002524485128,-0.0006043670282
4.79,0.002468343267,-0.0007081504306
4.8,0.002408243841,-0.0008078405196
4.81,0.002344456729,-0.000903309095
4.82,0.002277254168,-0.0009944448169
4.83,0.002206909728,-0.001081153081
4.84,0.002133697317,-0.001163355835
4.85,0.002057890209,-0.001240991335
4.86,0.001979760092,-0.001314013848
4.87,0.001899576162,-0.001382393299
4.88,0.001817604235,-0.001446114867
4.89,0.001734105905,-0.001505178533
4.9,0.00164933774,-0.001559598584
4.91,0.001563550517,-0.001609403067
4.92,0.001476988506,-0.001654633218
4.93,0.001389888794,-0.001695342835
4.94,0.001302480659,-0.001731597636
4.95,0.001214984996,-0.001763474575
4.96,0.001127613791,-0.001791061139
4.97,0.001040569647,-0.001814454618
4.98,0.0009540453622,-0.001833761356
4.99,0.0008682235608,-0.001849095989
5,0.0007832763811,-0.001860580669
5.01,0.0006993652126,-0.00186834428
5.02,0.0006166404895,-0.001872521644
5.03,0.0005352415364,-0.001873252739
5.04,0.0004552964679,-0.001870681901
5.05,0.0003769221394,-0.001864957044
5.06,0.0003002241493,-0.001856228885
5.07,0.0002252968917,-0.001844650177
5.08,0.0001522236573,-0.001830374965
5.09,8.107678194E-05,-0.00181355785
5.1,1.191784015E-05,-0.001794353285
5.11,-5.520211716E-05,-0.00177291488
5.12,-0.0001202422837,-0.001749394747
5.13,-0.0001831717794,-0.001723942867
5.14,-0.0002439692946,-0.001696706486
5.15,-0.0003026227,-0.001667829548
5.16,-0.0003591286241,-0.001637452159
5.17,-0.0004134920014,-0.001605710093
5.18,-0.0004657255936,-0.001572734328
5.19,-0.0005158494875,-0.001538650627
5.2,-0.0005638905712,-0.001503579161
5.21,-0.0006098819928,-0.001467634165
5.22,-0.0006538626032,-0.001430923647
5.23,-0.0006958763879,-0.001393549133
5.24,-0.0007359718886,-0.001355605455
5.25,-0.0007742016194,-0.001317180587
5.26,-0.0008106214799,-0.001278355516
5.27,-0.0008452901671,-0.001239204169
5.28,-0.0008782685918,-0.001199793366
5.29,-0.0009096192991,-0.001160182833
5.3,-0.0009394058976,-0.001120425237
5.31,-0.0009676925006,-0.001080566278
5.32,-0.0009945431802,-0.00104064481
5.33,-0.001020021438,-0.001000693002
5.34,-0.001044189693,-0.0009607365365
5.35,-0.001067108795,-0.0009207948412
5.36,-0.001088837556,-0.0008808813538
5.37,-0.001109432309,-0.0008410038174
5.38,-0.001128946494,-0.000801164605
5.39,-0.001147430274,-0.0007613610702
5.4,-0.001164930178,-0.0007215859226
5.41,-0.001181488781,-0.0006818276255
5.42,-0.001197144412,-0.0006420708126
5.43,-0.001211930901,-0.0006022967228
5.44,-0.001225877355,-0.0005624836481
5.45,-0.001239007978,-0.0005226073958
5.46,-0.001251341921,-0.000482641758
5.47,-0.001262893171,-0.000442558989
5.48,-0.001273670475,-0.0004023302873
5.49,-0.00128367731,-0.0003619262778
5.5,-0.001292911876,-0.0003213174944
5.51,-0.001301367136,-0.000280474858
5.52,-0.001309030887,-0.0002393701485
5.53,-0.001315885871,-0.0001979764688
5.54,-0.001321909915,-0.0001562686963
5.55,-0.001327076111,-0.0001142239223
5.56,-0.001331353019,-7.182187489E-05
5.57,-0.001334704914,-2.904532388E-05
5.58,-0.001337092049,1.411953417E-05
5.59,-0.001338470959,5.768271299E-05
5.6,-0.001338794781,0.0001016500976
5.61,-0.001338013604,0.0001460231311
5.62,-0.001336074841,0.0001907985284
5.63,-0.001332923622,0.000235968019
5.64,-0.001328503203,0.0002815181199
5.65,-0.001322755394,0.0003274299394
5.66,-0.001315621003,0.0003736790133
5.67,-0.001307040285,0.0004202351748
5.68,-0.001296953405,0.0004670624573
5.69,-0.001285300911,0.0005141190322
5.7,-0.001272024206,0.0005613571817
5.71,-0.001257066024,0.0006087233057
5.72,-0.001240370907,0.0006561579646
5.73,-0.001221885679,0.0007035959568
5.74,-0.001201559913,0.0007509664304
5.75,-0.001179346393,0.0007981930297
5.76,-0.001155201563,0.000845194075
5.77,-0.001129085967,0.0008918827753
5.78,-0.001100964676,0.0009381674727
5.79,-0.00107080769,0.0009839519184
5.8,-0.001038590333,0.001029135577
5.81,-0.001004293615,0.001073613962
5.82,-0.0009679045852,0.001117278992
5.83,-0.0009294166467,0.001160019383
5.84,-0.0008888298557,0.001201721051
5.85,-0.0008461511875,0.001242267549
5.86,-0.0008013947755,0.001281540511
5.87,-0.0007545821189,0.001319420129
5.88,-0.0007057422591,0.001355785634
5.89,-0.0006549119233,0.00139051579
5.9,-0.0006021356349,0.001423489414
5.91,-0.000547465789,0.001454585885
5.92,-0.0004909626933,0.001483685677
5.93,-0.0004326945739,0.001510670884
5.94,-0.0003727375447,0.001535425757
5.95,-0.000311175542,0.001557837237
5.96,-0.0002481002229,0.001577795478
5.97,-0.0001836108276,0.001595194381
5.98,-0.0001178140079,0.001609932105
5.99,-5.082361934E-05,0.001621911579
6,1.723951934E-05,0.001631040995
