"Freq [GHz]","re(S(Tx_p1,Tx_p1)) []","im(S(Tx_p1,Tx_p1)) []"
1,-0.03261112949,-0.07518243865
1.01,-0.03542523865,-0.07389051838
1.02,-0.038199208,-0.07249144305
1.03,-0.04092866812,-0.07098617051
1.04,-0.04360928112,-0.06937583451
1.05,-0.04623674494,-0.06766174223
1.06,-0.04880679755,-0.06584537202
1.07,-0.05131522107,-0.06392837133
1.08,-0.05375784578,-0.06191255495
1.09,-0.05613055423,-0.05979990338
1.1,-0.05842928533,-0.05759256143
1.11,-0.06065003844,-0.05529283701
1.12,-0.06278887773,-0.05290320006
1.13,-0.06484193651,-0.05042628162
1.14,-0.06680542185,-0.04786487301
1.15,-0.06867561935,-0.04522192509
1.16,-0.07044889808,-0.04250054755
1.17,-0.07212171589,-0.03970400823
1.18,-0.0736906248,-0.03683573238
1.19,-0.07515227683,-0.03389930187
1.2,-0.07650342998,-0.03089845435
1.21,-0.07774095459,-0.02783708213
1.22,-0.07886183987,-0.02471923101
1.23,-0.07986320088,-0.02154909879
1.24,-0.08074228556,-0.01833103354
1.25,-0.08149648227,-0.01506953159
1.26,-0.08212332736,-0.01176923506
1.27,-0.08262051311,-0.008434929109
1.28,-0.08298589582,-0.005071538705
1.29,-0.08321750408,-0.001684124893
1.3,-0.08331354718,0.001722119392
1.31,-0.08327242367,0.00514187408
1.32,-0.08309272992,0.008569697279
1.33,-0.0827732688,0.01200003118
1.34,-0.08231305829,0.0154272086
1.35,-0.08171134002,0.01884546012
1.36,-0.08096758774,0.02224892193
1.37,-0.08008151564,0.02563164432
1.38,-0.07905308637,0.0289876008
1.39,-0.0778825189,0.032310698
1.4,-0.07657029598,0.03559478615
1.41,-0.07511717125,0.03883367027
1.42,-0.07352417589,0.04202112204
1.43,-0.0717926248,0.0451508923
1.44,-0.0699241222,0.04821672419
1.45,-0.06792056665,0.05121236684
1.46,-0.06578415536,0.05413158975
1.47,-0.06351738783,0.05696819759
1.48,-0.06112306869,0.05971604558
1.49,-0.05860430973,0.06236905529
1.5,-0.05596453109,0.06492123089
1.51,-0.05320746146,0.06736667576
1.52,-0.05033713743,0.06969960935
1.53,-0.04735790179,0.07191438435
1.54,-0.04427440083,0.07400550405
1.55,-0.04109158057,0.07596763977
1.56,-0.03781468196,0.07779564841
1.57,-0.03444923498,0.07948458991
1.58,-0.03100105153,0.0810297447
1.59,-0.02747621741,0.08242663091
1.6,-0.02388108296,0.0836710214
1.61,-0.02022225274,0.08475896045
1.62,-0.01650657399,0.08568678003
1.63,-0.0127411241,0.08645111566
1.64,-0.008933196875,0.08704892164
1.65,-0.005090287859,0.08747748575
1.66,-0.001220078542,0.08773444316
1.67,0.002669580375,0.08781778959
1.68,0.006570686687,0.08772589366
1.69,0.01047510529,0.08745750828
1.7,0.01437458764,0.08701178105
1.71,0.01826079202,0.08638826364
1.72,0.02212530455,0.08558692002
1.73,0.02595966084,0.08460813358
1.74,0.02975536825,0.08345271295
1.75,0.03350392875,0.0821218966
1.76,0.03719686208,0.08061735615
1.77,0.04082572945,0.07894119826
1.78,0.04438215739,0.0770959652
1.79,0.04785786185,0.07508463396
1.8,0.05124467245,0.07291061396
1.81,0.05453455663,0.07057774333
1.82,0.05771964386,0.06809028367
1.83,0.06079224956,0.06545291339
1.84,0.06374489887,0.06267071963
1.85,0.06657034994,0.05974918865
1.86,0.06926161687,0.05669419486
1.87,0.07181199204,0.05351198843
1.88,0.07421506785,0.05020918149
1.89,0.0764647577,0.04679273303
1.9,0.07855531616,0.04326993247
1.91,0.08048135825,0.03964838199
1.92,0.08223787774,0.03593597765
1.93,0.08382026437,0.03214088942
1.94,0.08522431996,0.02827154004
1.95,0.08644627329,0.02433658294
1.96,0.08748279373,0.02034487925
1.97,0.0883310035,0.0163054739
1.98,0.0889884886,0.01222757095
1.99,0.08945330825,0.008120508304
2,0.08972400283,0.003993731768
2.01,0.0897996004,-0.0001432313731
2.02,0.08967962153,-0.004280799171
2.03,0.08936408263,-0.008409362147
2.04,0.08885349768,-0.01251931063
2.05,0.08814887832,-0.01660106218
2.06,0.08725173232,-0.02064508906
2.07,0.08616406045,-0.02464194557
2.08,0.08488835176,-0.02858229516
2.09,0.08342757718,-0.03245693733
2.1,0.08178518165,-0.03625683402
2.11,0.07996507465,-0.03997313561
2.12,0.07797161918,-0.0435972062
2.13,0.07580961935,-0.04712064834
2.14,0.07348430651,-0.05053532686
2.15,0.07100132393,-0.05383339189
2.16,0.06836671031,-0.05700730093
2.17,0.06558688191,-0.0600498399
2.18,0.06266861357,-0.06295414302
2.19,0.05961901856,-0.06571371157
2.2,0.05644552745,-0.06832243141
2.21,0.05315586604,-0.07077458918
2.22,0.04975803232,-0.07306488714
2.23,0.04626027278,-0.0751884566
2.24,0.04267105795,-0.07714086993
2.25,0.03899905739,-0.07891815107
2.26,0.03525311414,-0.08051678453
2.27,0.03144221882,-0.08193372285
2.28,0.0275754834,-0.08316639252
2.29,0.02366211472,-0.0842126983
2.3,0.01971138804,-0.08507102604
2.31,0.01573262041,-0.08574024388
2.32,0.01173514426,-0.0862197019
2.33,0.007728281138,-0.08650923027
2.34,0.003721315699,-0.08660913586
2.35,-0.0002765298958,-0.08652019736
2.36,-0.004256121124,-0.08624365892
2.37,-0.008208435704,-0.08578122245
2.38,-0.01212458755,-0.08513503852
2.39,-0.01599585005,-0.08430769586
2.4,-0.01981367846,-0.08330220974
2.41,-0.02356973156,-0.08212200905
2.42,-0.02725589231,-0.08077092228
2.43,-0.0308642875,-0.07925316241
2.44,-0.03438730636,-0.07757331082
2.45,-0.03781761814,-0.07573630027
2.46,-0.04114818843,-0.07374739705
2.47,-0.04437229438,-0.07161218234
2.48,-0.04748353862,-0.06933653288
2.49,-0.05047586203,-0.06692660112
2.5,-0.05334355512,-0.06438879475
2.51,-0.05608126819,-0.06172975584
2.52,-0.05868402014,-0.05895633969
2.53,-0.06114720605,-0.05607559332
2.54,-0.06346660329,-0.05309473392
2.55,-0.06563837653,-0.05002112705
2.56,-0.06765908129,-0.04686226497
2.57,-0.06952566625,-0.04362574497
2.58,-0.07123547438,-0.04031924792
2.59,-0.07278624277,-0.03695051692
2.6,-0.07417610126,-0.03352733641
2.61,-0.07540356993,-0.03005751156
2.62,-0.07646755549,-0.02654884809
2.63,-0.07736734656,-0.02300913266
2.64,-0.07810260795,-0.01944611377
2.65,-0.07867337391,-0.01586748328
2.66,-0.07908004055,-0.01228085862
2.67,-0.07932335732,-0.008693765685
2.68,-0.07940441772,-0.005113622548
2.69,-0.07932464927,-0.001547723876
2.7,-0.07908580275,0.001996773763
2.71,-0.07868994094,0.005512865758
2.72,-0.07813942668,0.008993712447
2.73,-0.07743691053,0.01243265121
2.74,-0.07658531799,0.01582320764
2.75,-0.07558783635,0.01915910586
2.76,-0.07444790131,0.02243427785
2.77,-0.07316918329,0.02564287191
2.78,-0.07175557366,0.02877926018
2.79,-0.07021117084,0.03183804533
2.8,-0.06854026635,0.03481406629
2.81,-0.06674733088,0.03770240315
2.82,-0.06483700046,0.04049838125
2.83,-0.06281406273,0.04319757438
2.84,-0.06068344338,0.0457958073
2.85,-0.05845019282,0.04828915739
2.86,-0.05611947311,0.0506739557
2.87,-0.0536965452,0.0529467872
2.88,-0.05118675644,0.05510449051
2.89,-0.0485955286,0.05714415693
2.9,-0.04592834611,0.05906312897
2.91,-0.04319074485,0.06085899835
2.92,-0.0403883013,0.06252960353
2.93,-0.03752662223,0.06407302683
2.94,-0.03461133474,0.06548759115
2.95,-0.03164807686,0.06677185639
2.96,-0.02864248863,0.06792461553
2.97,-0.02560020358,0.06894489053
2.98,-0.0225268408,0.06983192801
2.99,-0.0194279974,0.07058519471
3,-0.01630924142,0.07120437293
3.01,-0.01317610527,0.07168935584
3.02,-0.01003407952,0.07204024274
3.03,-0.006888607152,0.07225733429
3.04,-0.00374507817,0.07234112787
3.05,-0.0006088246088,0.07229231282
3.06,0.002514884133,0.07211176595
3.07,0.005620845634,0.07180054697
3.08,0.008703928506,0.07135989415
3.09,0.0117590762,0.07079122012
3.1,0.01478131055,0.07009610774
3.11,0.01776573519,0.06927630625
3.12,0.02070753873,0.06833372744
3.13,0.02360199784,0.06727044215
3.14,0.02644448023,0.06608867684
3.15,0.02923044755,0.06479081037
3.16,0.03195545825,0.06337937093
3.17,0.03461517047,0.06185703317
3.18,0.03720534484,0.0602266154
3.19,0.03972184745,0.05849107701
3.2,0.04216065283,0.05665351594
3.21,0.04451784696,0.05471716627
3.22,0.04678963055,0.05268539593
3.23,0.04897232225,0.05056170436
3.24,0.05106236217,0.0483497203
3.25,0.05305631547,0.04605319952
3.26,0.05495087613,0.04367602254
3.27,0.0567428709,0.04122219233
3.28,0.05842926344,0.03869583183
3.29,0.06000715862,0.03610118146
3.3,0.06147380699,0.03344259641
3.31,0.06282660947,0.03072454379
3.32,0.06406312212,0.02795159954
3.33,0.06518106112,0.02512844515
3.34,0.0661783079,0.02225986408
3.35,0.06705291431,0.01935073783
3.36,0.067803108,0.01640604185
3.37,0.06842729776,0.0134308409
3.38,0.06892407899,0.01043028421
3.39,0.06929223916,0.007409600165
3.4,0.06953076324,0.004374090576
3.41,0.06963883916,0.001329124576
3.42,0.06961586309,-0.001719867962
3.43,0.06946144467,-0.004767403443
3.44,0.06917541211,-0.007807952023
3.45,0.068757817,-0.01083594554
3.46,0.06820893901,-0.01384578593
3.47,0.06752929024,-0.01683185405
3.48,0.06671961928,-0.01978851902
3.49,0.06578091489,-0.02271014797
3.5,0.06471440935,-0.0255911162
3.51,0.06352158128,-0.02842581784
3.52,0.0622041581,-0.03120867679
3.53,0.06076411783,-0.03393415812
3.54,0.05920369048,-0.03659677978
3.55,0.05752535878,-0.03919112467
3.56,0.05573185825,-0.04171185289
3.57,0.05382617672,-0.04415371436
3.58,0.05181155305,-0.0465115616
3.59,0.04969147524,-0.04878036261
3.6,0.04746967771,-0.05095521402
3.61,0.0451501379,-0.05303135416
3.62,0.04273707206,-0.05500417626
3.63,0.04023493022,-0.0568692416
3.64,0.03764839043,-0.05862229257
3.65,0.03498235212,-0.06025926558
3.66,0.03224192867,-0.06177630388
3.67,0.02943243922,-0.06316977003
3.68,0.02655939955,-0.06443625813
3.69,0.02362851233,-0.06557260569
3.7,0.02064565639,-0.06657590511
3.71,0.01761687538,-0.06744351462
3.72,0.01454836561,-0.06817306886
3.73,0.01144646315,-0.06876248867
3.74,0.008317630274,-0.06920999046
3.75,0.005168441215,-0.06951409477
3.76,0.002005567304,-0.06967363416
3.77,-0.001164238483,-0.06968776032
3.78,-0.004334157518,-0.06955595034
3.79,-0.007497322009,-0.06927801218
3.8,-0.01064683194,-0.06885408913
3.81,-0.01377577239,-0.0682846635
3.82,-0.0168772312,-0.06757055916
3.83,-0.01994431693,-0.06671294325
3.84,-0.02297017696,-0.06571332678
3.85,-0.02594801587,-0.06457356419
3.86,-0.02887111379,-0.0632958519
3.87,-0.03173284485,-0.06188272575
3.88,-0.03452669552,-0.06033705743
3.89,-0.03724628292,-0.05866204973
3.9,-0.03988537288,-0.05686123082
3.91,-0.04243789777,-0.05493844738
3.92,-0.04489797403,-0.05289785671
3.93,-0.04725991932,-0.05074391781
3.94,-0.04951826918,-0.04848138141
3.95,-0.05166779319,-0.04611527897
3.96,-0.0537035106,-0.0436509108
3.97,-0.05562070522,-0.04109383316
3.98,-0.05741493967,-0.0384498445
3.99,-0.0590820689,-0.03572497083
4,-0.06061825277,-0.03292545029
4.01,-0.06201996792,-0.03005771693
4.02,-0.06328401856,-0.02712838383
4.03,-0.06440754646,-0.02414422552
4.04,-0.06538803978,-0.02111215981
4.05,-0.06622334097,-0.01803922913
4.06,-0.06691165353,-0.01493258132
4.07,-0.06745154768,-0.01179945015
4.08,-0.06784196492,-0.008647135349
4.09,-0.0680822214,-0.005482982488
4.1,-0.06817201013,-0.002314362638
4.11,-0.06811140204,0.0008513481032
4.12,-0.06790084582,0.004006789118
4.13,-0.06754116657,0.007144635747
4.14,-0.06703356328,0.01025761966
4.15,-0.06637960516,0.01333854907
4.16,-0.06558122674,0.01638032867
4.17,-0.06464072186,0.01937597928
4.18,-0.06356073656,0.02231865707
4.19,-0.06234426081,0.02520167239
4.2,-0.06099461924,0.02801850796
4.21,-0.0595154608,0.0307628366
4.22,-0.05791074742,0.03342853822
4.23,-0.05618474176,0.03600971612
4.24,-0.054341994,0.03850071254
4.25,-0.05238732787,0.04089612341
4.26,-0.05032582578,0.04319081213
4.27,-0.04816281329,0.04537992256
4.28,-0.04590384286,0.04745889101
4.29,-0.04355467699,0.04942345717
4.3,-0.0411212708,0.05126967412
4.31,-0.03860975415,0.05299391721
4.32,-0.03602641332,0.0545928919
4.33,-0.0333776723,0.05606364047
4.34,-0.03067007392,0.05740354761
4.35,-0.02791026058,0.05861034495
4.36,-0.02510495506,0.05968211436
4.37,-0.02226094106,0.06061729018
4.38,-0.01938504387,0.06141466033
4.39,-0.01648411106,0.06207336621
4.4,-0.01356499334,0.06259290163
4.41,-0.01063452556,0.06297311052
4.42,-0.007699508082,0.06321418359
4.43,-0.004766688376,0.06331665405
4.44,-0.001842743117,0.06328139215
4.45,0.001065739331,0.06310959884
4.46,0.003952275887,0.06280279847
4.47,0.006810505161,0.06236283057
4.48,0.00963420325,0.06179184072
4.49,0.01241729886,0.06109227068
4.5,0.01515388773,0.06026684768
4.51,0.01783824628,0.05931857307
4.52,0.02046484451,0.0582507102
4.53,0.02302835803,0.05706677175
4.54,0.0255236793,0.05577050655
4.55,0.02794592792,0.0543658858
4.56,0.03029046013,0.05285708894
4.57,0.03255287726,0.05124848909
4.58,0.03472903342,0.04954463821
4.59,0.03681504207,0.047750252
4.6,0.03880728185,0.0458701946
4.61,0.0407024013,0.04390946312
4.62,0.04249732277,0.04187317217
4.63,0.04418924534,0.03976653833
4.64,0.04577564683,0.03759486465
4.65,0.04725428494,0.03536352526
4.66,0.0486231975,0.03307795016
4.67,0.04988070181,0.03074361018
4.68,0.05102539325,0.02836600221
4.69,0.052056143,0.02595063468
4.7,0.05297209497,0.02350301351
4.71,0.05377266212,0.02102862831
4.72,0.0544575219,0.01853293911
4.73,0.05502661116,0.01602136347
4.74,0.05548012039,0.0134992642
4.75,0.05581848732,0.0109719375
4.76,0.0560423901,0.008444601706
4.77,0.05615273985,0.005922386631
4.78,0.05615067287,0.003410323478
4.79,0.05603754236,0.0009133353798
4.8,0.05581490984,-0.001563771427
4.81,0.05548453624,-0.004016315791
4.82,0.0550483727,-0.006439749186
4.83,0.05450855119,-0.008829662601
4.84,0.05386737489,-0.01118179278
4.85,0.05312730857,-0.01349202781
4.86,0.05229096871,-0.01575641207
4.87,0.05136111373,-0.01797115057
4.88,0.0503406341,-0.0201326126
4.89,0.04923254261,-0.02223733489
4.9,0.04803996456,-0.02428202403
4.91,0.04676612822,-0.02626355848
4.92,0.0454143553,-0.02817898992
4.93,0.04398805172,-0.03002554411
4.94,0.04249069844,-0.03180062126
4.95,0.04092584265,-0.03350179594
4.96,0.03929708914,-0.03512681651
4.97,0.037608092,-0.03667360414
4.98,0.03586254653,-0.03814025153
4.99,0.03406418155,-0.03952502114
5,0.032216752,-0.04082634321
5.01,0.03032403183,-0.04204281345
5.02,0.02838980732,-0.04317319049
5.03,0.02641787067,-0.04421639307
5.04,0.02441201398,-0.04517149709
5.05,0.02237602356,-0.04603773247
5.06,0.02031367463,-0.04681447987
5.07,0.01822872628,-0.04750126732
5.08,0.01612491685,-0.04809776681
5.09,0.0140059596,-0.04860379077
5.1,0.01187553867,-0.0490192886
5.11,0.009737305409,-0.04934434313
5.12,0.007594874942,-0.04957916717
5.13,0.005451823,-0.0497241001
5.14,0.003311683042,-0.04977960447
5.15,0.001177943584,-0.04974626277
5.16,-0.0009459542445,-0.04962477421
5.17,-0.003056618955,-0.04941595169
5.18,-0.005150710784,-0.04912071884
5.19,-0.007224943623,-0.04874010719
5.2,-0.009276086818,-0.04827525353
5.21,-0.01130096687,-0.04772739734
5.22,-0.01329646906,-0.04709787837
5.23,-0.01525953897,-0.04638813445
5.24,-0.01718718403,-0.0455996993
5.25,-0.01907647499,-0.04473420059
5.26,-0.02092454741,-0.04379335805
5.27,-0.0227286032,-0.04277898174
5.28,-0.02448591214,-0.04169297044
5.29,-0.02619381351,-0.04053731007
5.3,-0.02784971776,-0.03931407226
5.31,-0.02945110825,-0.03802541297
5.32,-0.03099554315,-0.03667357114
5.33,-0.03248065734,-0.03526086738
5.34,-0.03390416458,-0.03378970271
5.35,-0.0352638596,-0.03226255726
5.36,-0.03655762051,-0.03068198893
5.37,-0.03778341125,-0.02905063208
5.38,-0.03893928411,-0.02737119608
5.39,-0.04002338252,-0.02564646381
5.4,-0.04103394387,-0.02387929005
5.41,-0.04196930243,-0.02207259974
5.42,-0.0428278925,-0.02022938611
5.43,-0.04360825151,-0.01835270862
5.44,-0.04430902336,-0.01644569074
5.45,-0.04492896169,-0.0145115175
5.46,-0.04546693337,-0.01255343286
5.47,-0.04592192192,-0.01057473681
5.48,-0.04629303098,-0.008578782262
5.49,-0.04657948787,-0.006568971621
5.5,-0.046780647,-0.004548753155
5.51,-0.04689599337,-0.002521617039
5.52,-0.04692514595,-0.000491091131
5.53,-0.046867861,0.001539263558
5.54,-0.04672403525,0.003565857677
5.55,-0.04649370901,0.005585078652
5.56,-0.04617706905,0.0075932961
5.57,-0.04577445135,0.009586867531
5.58,-0.0452863436,0.01156214435
5.59,-0.04471338751,0.01351547812
5.6,-0.04405638077,0.01544322711
5.61,-0.04331627885,0.01734176312
5.62,-0.04249419637,0.01920747848
5.63,-0.04159140815,0.02103679341
5.64,-0.04060935,0.0228261634
5.65,-0.03954961897,0.02457208699
5.66,-0.03841397335,0.02627111356
5.67,-0.03720433209,0.02791985131
5.68,-0.03592277395,0.02951497541
5.69,-0.03457153604,0.03105323618
5.7,-0.03315301202,0.03253146731
5.71,-0.03166974969,0.03394659423
5.72,-0.03012444818,0.03529564232
5.73,-0.02851995465,0.03657574523
5.74,-0.0268592604,0.03778415301
5.75,-0.02514549653,0.03891824029
5.76,-0.0233819291,0.03997551415
5.77,-0.02157195379,0.04095362197
5.78,-0.01971908998,0.04185035898
5.79,-0.01782697443,0.04266367565
5.8,-0.01589935446,0.04339168471
5.81,-0.01394008057,0.04403266799
5.82,-0.01195309876,0.04458508277
5.83,-0.009942442237,0.04504756789
5.84,-0.007912222821,0.04541894938
5.85,-0.005866621917,0.04569824566
5.86,-0.0038098811,0.0458846723
5.87,-0.001746292365,0.04597764628
5.88,0.0003198119484,0.0459767897
5.89,0.002384069518,0.045881933
5.9,0.00444209866,0.04569311753
5.91,0.006489509171,0.04541059765
5.92,0.008521913358,0.04503484213
5.93,0.01053493722,0.04456653496
5.94,0.01252423176,0.04400657552
5.95,0.01448548431,0.04335607815
5.96,0.01641442999,0.04261637097
5.97,0.01830686303,0.04178899417
5.98,0.0201586482,0.04087569752
5.99,0.021965732,0.0398784373
6,0.0237241538,0.03879937253
