"Freq [GHz]","re(S(Tx_p1,Tx_p1)) []","im(S(Tx_p1,Tx_p1)) []"
1,-0.006857717537,-0.01146637757
1.01,-0.007278421922,-0.01112999178
1.02,-0.007683745514,-0.01077707328
1.03,-0.008072917803,-0.01040836986
1.04,-0.008445212596,-0.01002466959
1.05,-0.008799949941,-0.009626797786
1.06,-0.009136497862,-0.009215613957
1.07,-0.009454273906,-0.008792008698
1.08,-0.009752746489,-0.008356900509
1.09,-0.01003143605,-0.007911232582
1.1,-0.01028991602,-0.007455969567
1.11,-0.01052781356,-0.006992094319
1.12,-0.01074481016,-0.006520604633
1.13,-0.01094064202,-0.00604250999
1.14,-0.01111510019,-0.005558828317
1.15,-0.01126803063,-0.005070582769
1.16,-0.01139933399,-0.004578798552
1.17,-0.01150896525,-0.004084499782
1.18,-0.01159693317,-0.003588706413
1.19,-0.01166329959,-0.003092431214
1.2,-0.01170817855,-0.002596676832
1.21,-0.01173173522,-0.002102432933
1.22,-0.01173418473,-0.001610673431
1.23,-0.01171579082,-0.001122353818
1.24,-0.01167686436,-0.0006384086021
1.25,-0.01161776169,-0.000159748857
1.26,-0.01153888295,0.00031274011
1.27,-0.01144067015,0.0007782009616
1.28,-0.01132360522,0.001235806404
1.29,-0.01118820797,0.001684761123
1.3,-0.01103503388,0.00212430358
1.31,-0.01086467189,0.002553707661
1.32,-0.01067774207,0.00297228418
1.33,-0.01047489325,0.003379382227
1.34,-0.01025680057,0.00377439037
1.35,-0.01002416301,0.004156737691
1.36,-0.009777700874,0.004525894673
1.37,-0.009518153273,0.004881373931
1.38,-0.009246275545,0.005222730781
1.39,-0.00896283671,0.005549563656
1.4,-0.008668616913,0.00586151437
1.41,-0.008364404879,0.006158268219
1.42,-0.008050995399,0.006439553941
1.43,-0.007729186833,0.006705143525
1.44,-0.00739977866,0.00695485187
1.45,-0.007063569079,0.007188536311
1.46,-0.006721352659,0.007406096001
1.47,-0.006373918055,0.007607471166
1.48,-0.006022045792,0.007792642227
1.49,-0.005666506133,0.007961628808
1.5,-0.005308057027,0.008114488622
1.51,-0.004947442146,0.008251316249
1.52,-0.004585389022,0.008372241816
1.53,-0.004222607285,0.008477429573
1.54,-0.003859787006,0.008567076387
1.55,-0.00349759715,0.008641410152
1.56,-0.003136684151,0.008700688126
1.57,-0.002777670592,0.008745195199
1.58,-0.002421154022,0.00877524211
1.59,-0.002067705883,0.008791163605
1.6,-0.001717870573,0.008793316563
1.61,-0.001372164624,0.008782078081
1.62,-0.001031076022,0.008757843535
1.63,-0.0006950636431,0.008721024626
1.64,-0.000364556822,0.008672047419
1.65,-3.995504889E-05,0.008611350372
1.66,0.0002783722101,0.008539382385
1.67,0.0005900855676,0.008456600851
1.68,0.0008948756469,0.008363469742
1.69,0.001192462896,0.008260457712
1.7,0.001482597281,0.008148036249
1.71,0.001765057876,0.008026677865
1.72,0.002039652331,0.007896854339
1.73,0.002306216244,0.007759035018
1.74,0.002564612435,0.007613685177
1.75,0.002814730112,0.007461264459
1.76,0.003056483967,0.007302225378
1.77,0.003289813169,0.00713701191
1.78,0.00351468029,0.006966058166
1.79,0.003731070158,0.006789787154
1.8,0.00393898864,0.006608609633
1.81,0.004138461371,0.006422923066
1.82,0.00432953243,0.006233110668
1.83,0.004512262967,0.006039540561
1.84,0.004686729799,0.005842565028
1.85,0.00485302397,0.005642519871
1.86,0.005011249287,0.005439723886
1.87,0.005161520842,0.005234478428
1.88,0.005303963528,0.005027067101
1.89,0.00543871054,0.004817755542
1.9,0.005565901902,0.004606791316
1.91,0.005685682982,0.004394403919
1.92,0.005798203048,0.004180804879
1.93,0.005903613834,0.003966187959
1.94,0.006002068146,0.003750729464
1.95,0.006093718506,0.003534588638
1.96,0.00617871584,0.003317908159
1.97,0.006257208215,0.003100814714
1.98,0.006329339637,0.002883419672
1.99,0.006395248906,0.002665819824
2,0.006455068543,0.00244809821
2.01,0.006508923781,0.002230325006
2.02,0.006556931643,0.00201255849
2.03,0.006599200092,0.001794846052
2.04,0.006635827263,0.00157722527
2.05,0.006666900791,0.001359725031
2.06,0.00669249722,0.001142366689
2.07,0.006712681506,0.0009251652673
2.08,0.006727506621,0.0007081306792
2.09,0.006737013241,0.0004912689813
2.1,0.006741229542,0.0002745836357
2.11,0.006740171084,5.807678387E-05
2.12,0.006733840802,-0.0001582494776
2.13,0.006722229084,-0.0003743918259
2.14,0.006705313957,-0.0005903444518
2.15,0.00668306136,-0.0008060978174
2.16,0.006655425517,-0.001021637438
2.17,0.006622349398,-0.001236942696
2.18,0.006583765272,-0.001451985688
2.19,0.00653959535,-0.001666730121
2.2,0.006489752508,-0.001881130253
2.21,0.006434141093,-0.002095129888
2.22,0.006372657803,-0.002308661438
2.23,0.006305192645,-0.002521645038
2.24,0.006231629956,-0.002733987746
2.25,0.006151849489,-0.002945582808
2.26,0.006065727556,-0.003156309004
2.27,0.005973138229,-0.003366030078
2.28,0.005873954576,-0.003574594258
2.29,0.005768049953,-0.003781833858
2.3,0.005655299318,-0.003987564983
2.31,0.005535580582,-0.004191587321
2.32,0.005408775979,-0.004393684034
2.33,0.005274773451,-0.004593621752
2.34,0.005133468043,-0.004791150662
2.35,0.004984763302,-0.0049860047
2.36,0.004828572668,-0.005177901844
2.37,0.004664820856,-0.00536654451
2.38,0.004493445221,-0.00555162004
2.39,0.004314397095,-0.005732801305
2.4,0.004127643097,-0.005909747386
2.41,0.003933166399,-0.006082104372
2.42,0.003730967952,-0.006249506233
2.43,0.003521067664,-0.006411575797
2.44,0.003303505513,-0.006567925812
2.45,0.003078342602,-0.006718160087
2.46,0.002845662146,-0.006861874721
2.47,0.002605570383,-0.006998659407
2.48,0.002358197408,-0.0071280988
2.49,0.00210369792,-0.007249773968
2.5,0.001842251878,-0.007363263885
2.51,0.001574065075,-0.007468146998
2.52,0.001299369599,-0.007564002833
2.53,0.001018424205,-0.007650413649
2.54,0.0007315145793,-0.007726966132
2.55,0.0004389534966,-0.007793253116
2.56,0.0001410808676,-0.007848875335
2.57,-0.0001617363225,-0.007893443183
2.58,-0.000469104191,-0.0079265785
2.59,-0.0007806022458,-0.007947916346
2.6,-0.001095783791,-0.007957106781
2.61,-0.001414176444,-0.007953816636
2.62,-0.001735282771,-0.007937731258
2.63,-0.002058581032,-0.007908556237
2.64,-0.002383526047,-0.007866019099
2.65,-0.002709550158,-0.007809870958
2.66,-0.003036064322,-0.007739888124
2.67,-0.003362459289,-0.007655873655
2.68,-0.0036881069,-0.007557658851
2.69,-0.004012361479,-0.007445104682
2.7,-0.004334561324,-0.007318103138
2.71,-0.004654030287,-0.007176578502
2.72,-0.004970079448,-0.007020488542
2.73,-0.005282008871,-0.006849825602
2.74,-0.005589109438,-0.006664617604
2.75,-0.005890664753,-0.006464928947
2.76,-0.006185953117,-0.006250861295
2.77,-0.006474249564,-0.006022554255
2.78,-0.006754827948,-0.005780185946
2.79,-0.007026963078,-0.005523973439
2.8,-0.007289932898,-0.005254173082
2.81,-0.007543020695,-0.004971080694
2.82,-0.007785517336,-0.004675031638
2.83,-0.008016723523,-0.004366400758
2.84,-0.008235952058,-0.004045602186
2.85,-0.008442530112,-0.00371308902
2.86,-0.008635801489,-0.003369352861
2.87,-0.008815128877,-0.003014923226
2.88,-0.008979896081,-0.002650366824
2.89,-0.009129510219,-0.002276286691
2.9,-0.009263403894,-0.001893321211
2.91,-0.009381037314,-0.001502142992
2.92,-0.009481900357,-0.001103457622
2.93,-0.009565514586,-0.0006980022993
2.94,-0.009631435188,-0.0002865443383
2.95,-0.009679252843,0.0001301204373
2.96,-0.00970859551,0.0005511694215
2.97,-0.009719130125,0.0009757550596
2.98,-0.009710564205,0.001403006787
2.99,-0.009682647346,0.00183203307
3,-0.009635172617,0.002261923536
3.01,-0.009567977843,0.0026917512
3.02,-0.009480946763,0.003120574763
3.03,-0.009374010068,0.003547440996
3.04,-0.009247146311,0.003971387186
3.05,-0.009100382682,0.004391443643
3.06,-0.008933795645,0.004806636265
3.07,-0.00874751144,0.005215989148
3.08,-0.008541706439,0.005618527231
3.09,-0.008316607352,0.006013278974
3.1,-0.008072491295,0.00639927906
3.11,-0.007809685699,0.006775571101
3.12,-0.007528568072,0.007141210366
3.13,-0.007229565613,0.007495266487
3.14,-0.006913154673,0.007836826166
3.15,-0.006579860059,0.008164995854
3.16,-0.006230254197,0.008478904408
3.17,-0.005864956145,0.0087777057
3.18,-0.00548463045,0.009060581192
3.19,-0.005089985873,0.009326742445
3.2,-0.004681773965,0.009575433571
3.21,-0.004260787504,0.009805933616
3.22,-0.003827858803,0.01001755886
3.23,-0.003383857882,0.01020966503
3.24,-0.002929690519,0.01038164942
3.25,-0.002466296172,0.01053295291
3.26,-0.0019946458,0.0106630619
3.27,-0.001515739558,0.01077151006
3.28,-0.001030604406,0.01085788006
3.29,-0.0005402916031,0.01092180506
3.3,-4.587413133E-05,0.01096297019
3.31,0.000451555978,0.01098111378
3.32,0.0009508903837,0.01097602852
3.33,0.001451007245,0.01094756245
3.34,0.001950774087,0.01089561978
3.35,0.002449050721,0.01082016163
3.36,0.002944692203,0.01072120646
3.37,0.003436551826,0.01059883057
3.38,0.003923484138,0.01045316819
3.39,0.004404347976,0.0102844116
3.4,0.0048780095,0.01009281098
3.41,0.005343345239,0.009878674173
3.42,0.005799245107,0.00964236617
3.43,0.006244615411,0.009384308562
3.44,0.006678381829,0.009104978746
3.45,0.00709949234,0.008804908998
3.46,0.00750692012,0.008484685387
3.47,0.007899666366,0.008144946525
3.48,0.008276763074,0.007786382173
3.49,0.008637275724,0.007409731696
3.5,0.008980305901,0.007015782366
3.51,0.009304993815,0.006605367532
3.52,0.009610520728,0.006179364651
3.53,0.00989611128,0.005738693189
3.54,0.01016103569,0.005284312396
3.55,0.01040461188,0.004817218966
3.56,0.01062620738,0.004338444577
3.57,0.01082524124,0.003849053337
3.58,0.01100118568,0.003350139125
3.59,0.01115356765,0.002842822839
3.6,0.01128197029,0.00232824957
3.61,0.01138603413,0.00180758569
3.62,0.01146545822,0.00128201589
3.63,0.0115200011,0.0007527401393
3.64,0.01154948154,0.0002209706145
3.65,0.0115537792,-0.0003120714233
3.66,0.01153283509,-0.0008451587778
3.67,0.0114866518,-0.001377061491
3.68,0.01141529369,-0.001906550027
3.69,0.0113188868,-0.002432398465
3.7,0.01119761865,-0.002953387683
3.71,0.01105173783,-0.003468308524
3.72,0.01088155346,-0.003975964949
3.73,0.01068743448,-0.004475177147
3.74,0.01046980874,-0.004964784607
3.75,0.01022916196,-0.005443649144
3.76,0.009966036537,-0.005910657857
3.77,0.009681030164,-0.006364726027
3.78,0.009374794335,-0.006804799939
3.79,0.009048032676,-0.007229859612
3.8,0.008701499145,-0.007638921448
3.81,0.008335996097,-0.008031040775
3.82,0.007952372206,-0.008405314284
3.83,0.007551520279,-0.008760882357
3.84,0.007134374937,-0.009096931269
3.85,0.006701910188,-0.009412695271
3.86,0.006255136899,-0.009707458535
3.87,0.005795100163,-0.009980556963
3.88,0.00532287658,-0.01023137986
3.89,0.004839571459,-0.01045937145
3.9,0.004346315934,-0.01066403225
3.91,0.00384426403,-0.01084492028
3.92,0.003334589656,-0.01100165214
3.93,0.00281848356,-0.01113390389
3.94,0.00229715024,-0.01124141178
3.95,0.001771804821,-0.01132397285
3.96,0.001243669915,-0.01138144532
3.97,0.0007139724654,-0.01141374881
3.98,0.0001839405818,-0.01142086444
3.99,-0.0003451996114,-0.01140283475
4,-0.0008722271204,-0.01135976341
4.01,-0.001395929202,-0.01129181478
4.02,-0.001915104452,-0.0111992134
4.03,-0.002428565859,-0.01108224317
4.04,-0.002935143801,-0.01094124648
4.05,-0.003433688995,-0.01077662315
4.06,-0.003923075376,-0.0105888292
4.07,-0.004402202907,-0.01037837552
4.08,-0.004870000307,-0.01014582636
4.09,-0.005325427689,-0.009891797688
4.1,-0.005767479111,-0.00961695541
4.11,-0.006195185019,-0.009322013489
4.12,-0.006607614583,-0.009007731915
4.13,-0.007003877923,-0.008674914569
4.14,-0.007383128209,-0.008324406982
4.15,-0.007744563643,-0.00795709398
4.16,-0.008087429303,-0.007573897252
4.17,-0.008411018861,-0.007175772813
4.18,-0.008714676154,-0.006763708396
4.19,-0.008997796618,-0.006338720772
4.2,-0.009259828575,-0.005901852998
4.21,-0.009500274366,-0.00545417162
4.22,-0.009718691342,-0.004996763816
4.23,-0.009914692695,-0.004530734508
4.24,-0.01008794814,-0.004057203437
4.25,-0.01023818442,-0.003577302217
4.26,-0.01036518569,-0.003092171374
4.27,-0.01046879375,-0.002602957378
4.28,-0.01054890803,-0.002110809677
4.29,-0.01060548556,-0.001616877742
4.3,-0.01063854067,-0.001122308131
4.31,-0.0106481446,-0.0006282415788
4.32,-0.01063442494,-0.0001358101184
4.33,-0.01059756493,0.0003538657476
4.34,-0.01053780259,0.000839679832
4.35,-0.01045542974,0.001320542987
4.36,-0.01035079089,0.001795385766
4.37,-0.01022428195,0.002263161008
4.38,-0.01007634884,0.002722846349
4.39,-0.009907485989,0.003173446647
4.4,-0.009718234702,0.003613996312
4.41,-0.009509181393,0.00404356154
4.42,-0.009280955746,0.00446124245
4.43,-0.009034228751,0.004866175102
4.44,-0.008769710652,0.005257533413
4.45,-0.008488148811,0.005634530946
4.46,-0.008190325479,0.005996422585
4.47,-0.007877055501,0.00634250608
4.48,-0.007549183948,0.006672123466
4.49,-0.007207583694,0.006984662349
4.5,-0.00685315293,0.007279557058
4.51,-0.006486812645,0.00755628966
4.52,-0.006109504056,0.007814390842
4.53,-0.005722186016,0.008053440646
4.54,-0.005325832395,0.008273069072
4.55,-0.004921429444,0.008472956532
4.56,-0.004509973159,0.008652834174
4.57,-0.004092466631,0.00881248406
4.58,-0.003669917419,0.0089517392
4.59,-0.003243334921,0.009070483459
4.6,-0.002813727785,0.009168651323
4.61,-0.002382101328,0.009246227524
4.62,-0.001949455011,0.009303246546
4.63,-0.001516779943,0.009339791989
4.64,-0.001085056439,0.009355995819
4.65,-0.0006552516379,0.009352037483
4.66,-0.0002283171718,0.009328142915
4.67,0.0001948130846,0.009284583425
4.68,0.0006132251991,0.009221674473
4.69,0.001026027285,0.009139774343
4.7,0.001432351521,0.009039282712
4.71,0.00183135608,0.008920639129
4.72,0.002222226967,0.008784321396
4.73,0.002604179759,0.008630843871
4.74,0.002976461239,0.008460755693
4.75,0.003338350932,0.008274638925
4.76,0.003689162528,0.008073106644
4.77,0.004028245191,0.007856800958
4.78,0.004354984766,0.00762639098
4.79,0.004668804857,0.007382570747
4.8,0.004969167795,0.007126057101
4.81,0.005255575487,0.006857587534
4.82,0.005527570143,0.006577918013
4.83,0.005784734887,0.006287820772
4.84,0.006026694241,0.005988082099
4.85,0.006253114497,0.005679500111
4.86,0.00646370396,0.005362882531
4.87,0.006658213082,0.005039044465
4.88,0.00683643447,0.004708806198
4.89,0.006998202784,0.004372991001
4.9,0.007143394516,0.004032422964
4.91,0.007271927659,0.003687924864
4.92,0.00738376127,0.003340316062
4.93,0.007478894916,0.002990410444
4.94,0.007557368032,0.002639014409
4.95,0.007619259164,0.00228692491
4.96,0.007664685123,0.001934927551
4.97,0.007693800046,0.001583794745
4.98,0.007706794366,0.001234283941
4.99,0.007703893702,0.0008871359183
5,0.007685357662,0.0005430731561
5.01,0.007651478582,0.0002027982848
5.02,0.007602580181,-0.0001330073858
5.03,0.007539016167,-0.0004636852513
5.04,0.007461168769,-0.0007886007105
5.05,0.007369447222,-0.001107144373
5.06,0.007264286205,-0.001418733175
5.07,0.007146144227,-0.001722811401
5.08,0.007015501981,-0.00201885161
5.09,0.006872860665,-0.002306355465
5.1,0.006718740277,-0.002584854465
5.11,0.006553677883,-0.00285391058
5.12,0.006378225874,-0.003113116785
5.13,0.006192950214,-0.003362097496
5.14,0.005998428678,-0.003600508914
5.15,0.005795249095,-0.003828039261
5.16,0.005584007595,-0.004044408929
5.17,0.005365306868,-0.00424937053
5.18,0.005139754438,-0.004442708854
5.19,0.004907960962,-0.004624240732
5.2,0.004670538547,-0.004793814811
5.21,0.004428099109,-0.004951311249
5.22,0.00418125276,-0.00509664131
5.23,0.003930606231,-0.005229746891
5.24,0.003676761353,-0.005350599966
5.25,0.003420313568,-0.005459201949
5.26,0.003161850508,-0.005555582994
5.27,0.002901950613,-0.005639801217
5.28,0.002641181823,-0.005711941861
5.29,0.002380100316,-0.005772116398
5.3,0.002119249322,-0.005820461569
5.31,0.001859157996,-0.00585713838
5.32,0.001600340364,-0.005882331042
5.33,0.001343294335,-0.005896245869
5.34,0.001088500789,-0.005899110144
5.35,0.0008364227385,-0.005891170936
5.36,0.0005875045611,-0.005872693897
5.37,0.0003421713125,-0.005843962029
5.38,0.0001008281129,-0.005805274434
5.39,-0.0001361403888,-0.005756945037
5.4,-0.0003683704748,-0.005699301308
5.41,-0.0005955197406,-0.005632682969
5.42,-0.0008172674022,-0.005557440701
5.43,-0.001033314527,-0.005473934848
5.44,-0.001243384189,-0.005382534134
5.45,-0.001447221556,-0.005283614377
5.46,-0.001644593896,-0.005177557229
5.47,-0.001835290523,-0.005064748927
5.48,-0.002019122663,-0.004945579064
5.49,-0.002195923268,-0.004820439391
5.5,-0.00236554675,-0.004689722638
5.51,-0.002527868667,-0.00455382138
5.52,-0.00268278534,-0.004413126923
5.53,-0.002830213418,-0.004268028239
5.54,-0.002970089388,-0.00411891094
5.55,-0.003102369039,-0.003966156289
5.56,-0.003227026868,-0.003810140265
5.57,-0.003344055452,-0.003651232673
5.58,-0.003453464779,-0.003489796298
5.59,-0.003555281531,-0.003326186124
5.6,-0.003649548347,-0.003160748592
5.61,-0.003736323046,-0.002993820924
5.62,-0.003815677828,-0.002825730493
5.63,-0.003887698451,-0.00265679426
5.64,-0.003952483387,-0.002487318257
5.65,-0.004010142964,-0.00231759714
5.66,-0.004060798497,-0.002147913785
5.67,-0.004104581409,-0.001978538959
5.68,-0.004141632346,-0.001809731031
5.69,-0.004172100292,-0.001641735754
5.7,-0.00419614169,-0.001474786099
5.71,-0.00421391956,-0.001309102139
5.72,-0.004225602634,-0.001144890995
5.73,-0.004231364496,-0.000982346833
5.74,-0.004231382747,-0.0008216509128
5.75,-0.004225838176,-0.0006629716841
5.76,-0.00421491396,-0.0005064649359
5.77,-0.004198794888,-0.0003522739893
5.78,-0.004177666604,-0.0002005299357
5.79,-0.004151714889,-5.135191764E-05
5.8,-0.004121124964,9.515255128E-05
5.81,-0.004086080834,0.0002388872282
5.82,-0.004046764661,0.0003797667485
5.83,-0.004003356178,0.0005177162001
5.84,-0.003956032137,0.0006526706694
5.85,-0.003904965803,0.0007845747595
5.86,-0.00385032648,0.0009133820847
5.87,-0.003792279089,0.001039054744
5.88,-0.003730983779,0.001161562778
5.89,-0.003666595588,0.001280883606
5.9,-0.003599264143,0.001397001457
5.91,-0.003529133412,0.00150990679
5.92,-0.003456341487,0.001619595702
5.93,-0.003381020423,0.001726069342
5.94,-0.003303296114,0.001829333317
5.95,-0.003223288216,0.001929397106
5.96,-0.003141110107,0.002026273475
5.97,-0.003056868895,0.002119977902
5.98,-0.002970665461,0.002210528014
5.99,-0.002882594546,0.002297943032
6,-0.002792744874,0.00238224324
