"Freq [GHz]","re(S(Tx_p1,Tx_p1)) []","im(S(Tx_p1,Tx_p1)) []"
1,-0.01386489321,-0.01455437429
1.01,-0.01443275677,-0.01390493405
1.02,-0.01497124659,-0.01323214529
1.03,-0.01547929811,-0.01253740549
1.04,-0.01595592371,-0.0118221617
1.05,-0.01640021453,-0.01108790586
1.06,-0.01681134197,-0.01033616997
1.07,-0.01718855893,-0.009568521397
1.08,-0.01753120081,-0.008786558141
1.09,-0.01783868618,-0.00799190413
1.1,-0.01811051722,-0.007186204579
1.11,-0.01834627996,-0.006371121404
1.12,-0.01854564422,-0.005548328699
1.13,-0.0187083633,-0.004719508306
1.14,-0.01883427352,-0.003886345461
1.15,-0.01892329351,-0.003050524558
1.16,-0.01897542323,-0.002213725012
1.17,-0.01899074295,-0.001377617246
1.18,-0.01896941186,-0.0005438588036
1.19,-0.01891166669,0.0002859094103
1.2,-0.01881782002,0.001110066742
1.21,-0.01868825851,0.001927016267
1.22,-0.018523441,0.002735188111
1.23,-0.01832389647,0.003533042626
1.24,-0.01809022183,0.004319073412
1.25,-0.01782307969,0.005091810176
1.26,-0.01752319596,0.005849821438
1.27,-0.01719135743,0.006591717078
1.28,-0.01682840919,0.00731615072
1.29,-0.01643525208,0.008021821963
1.3,-0.01601283999,0.008707478447
1.31,-0.0155621772,0.009371917771
1.32,-0.0150843156,0.01001398925
1.33,-0.01458035194,0.01063259551
1.34,-0.01405142503,0.01122669398
1.35,-0.01349871293,0.01179529815
1.36,-0.01292343012,0.0123374788
1.37,-0.0123268247,0.01285236498
1.38,-0.01171017556,0.01333914492
1.39,-0.01107478957,0.01379706682
1.4,-0.01042199881,0.01422543945
1.41,-0.009753157786,0.01462363267
1.42,-0.009069640678,0.01499107786
1.43,-0.008372838644,0.01532726818
1.44,-0.007664157122,0.01563175873
1.45,-0.006945013178,0.01590416667
1.46,-0.006216832901,0.01614417115
1.47,-0.00548104882,0.0163515132
1.48,-0.004739097378,0.01652599554
1.49,-0.003992416441,0.01666748224
1.5,-0.00324244285,0.0167758984
1.51,-0.002490610022,0.01685122961
1.52,-0.001738345594,0.01689352149
1.53,-0.000987069113,0.01690287903
1.54,-0.0002381897708,0.01687946595
1.55,0.0005068958115,0.01682350393
1.56,0.001246805756,0.01673527183
1.57,0.001980175056,0.01661510481
1.58,0.002705657654,0.01646339338
1.59,0.003421928478,0.01628058249
1.6,0.004127685434,0.01606717041
1.61,0.00482165135,0.0158237077
1.62,0.005502575884,0.01555079604
1.63,0.006169237374,0.01524908703
1.64,0.006820444661,0.01491928097
1.65,0.007455038861,0.01456212552
1.66,0.008071895087,0.01417841441
1.67,0.008669924141,0.01376898598
1.68,0.009248074151,0.01333472179
1.69,0.00980533217,0.01287654508
1.7,0.01034072572,0.01239541926
1.71,0.01085332432,0.01189234628
1.72,0.01134224092,0.011368365
1.73,0.0118066333,0.01082454951
1.74,0.01224570547,0.01026200735
1.75,0.01265870897,0.009681877708
1.76,0.01304494407,0.009085329616
1.77,0.01340376106,0.008473560005
1.78,0.0137345613,0.00784779177
1.79,0.01403679837,0.007209271767
1.8,0.01430997905,0.006559268759
1.81,0.01455366429,0.005899071318
1.82,0.01476747005,0.00522998567
1.83,0.01495106819,0.004553333498
1.84,0.01510418713,0.003870449702
1.85,0.01522661252,0.003182680104
1.86,0.01531818785,0.002491379118
1.87,0.0153788149,0.001797907379
1.88,0.01540845415,0.001103629331
1.89,0.01540712508,0.000409910777
1.9,0.0153749064,-0.0002818835962
1.91,0.01531193613,-0.000970392729
1.92,0.01521841161,-0.001654261723
1.93,0.01509458945,-0.002332144396
1.94,0.01494078526,-0.003002705857
1.95,0.01475737336,-0.003664625089
1.96,0.01454478634,-0.004316597545
1.97,0.01430351452,-0.004957337741
1.98,0.01403410527,-0.005585581851
1.99,0.01373716223,-0.006200090289
2,0.0134133444,-0.006799650282
2.01,0.01306336509,-0.007383078411
2.02,0.01268799077,-0.007949223138
2.03,0.01228803979,-0.008496967289
2.04,0.01186438099,-0.0090252305
2.05,0.01141793213,-0.009532971615
2.06,0.01094965824,-0.01001919103
2.07,0.0104605699,-0.01048293298
2.08,0.009951721246,-0.01092328772
2.09,0.009424208047,-0.01133939372
2.1,0.008879165512,-0.01173043967
2.11,0.008317766069,-0.01209566644
2.12,0.00774121701,-0.01243436898
2.13,0.007150758026,-0.01274589807
2.14,0.006547658653,-0.01302966195
2.15,0.005933215613,-0.01328512788
2.16,0.005308750074,-0.01351182354
2.17,0.004675604815,-0.01370933831
2.18,0.00403514132,-0.01387732443
2.19,0.003388736802,-0.01401549797
2.2,0.002737781157,-0.01412363976
2.21,0.002083673863,-0.01420159602
2.22,0.001427820833,-0.01424927898
2.23,0.0007716312252,-0.01426666726
2.24,0.0001165142187,-0.0142538061
2.25,-0.0005361242318,-0.01421080744
2.26,-0.001184884657,-0.01413784984
2.27,-0.001828377342,-0.0140351782
2.28,-0.002465225587,-0.01390310335
2.29,-0.003094068959,-0.01374200145
2.3,-0.003713566524,-0.01355231321
2.31,-0.004322400036,-0.01333454298
2.32,-0.0049192771,-0.01308925761
2.33,-0.005502934268,-0.01281708519
2.34,-0.00607214009,-0.01251871364
2.35,-0.00662569808,-0.01219488908
2.36,-0.007162449616,-0.01184641408
2.37,-0.007681276741,-0.01147414575
2.38,-0.008181104873,-0.01107899371
2.39,-0.008660905409,-0.01066191783
2.4,-0.009119698209,-0.01022392595
2.41,-0.009556553965,-0.009766071329
2.42,-0.009970596437,-0.009289450129
2.43,-0.01036100455,-0.008795198632
2.44,-0.01072701434,-0.008284490429
2.45,-0.01106792078,-0.007758533489
2.46,-0.0113830794,-0.007218567124
2.47,-0.01167190779,-0.006665858873
2.48,-0.01193388691,-0.006101701316
2.49,-0.01216856226,-0.005527408806
2.5,-0.0123755448,-0.004944314161
2.51,-0.01255451179,-0.004353765291
2.52,-0.0127052074,-0.003757121801
2.53,-0.01282744311,-0.003155751562
2.54,-0.01292109798,-0.002551027262
2.55,-0.01298611872,-0.001944322952
2.56,-0.01302251954,-0.001337010606
2.57,-0.01303038185,-0.0007304566756
2.58,-0.01300985379,-0.0001260186912
2.59,-0.01296114952,0.0004749581164
2.6,-0.0128845484,0.001071144142
2.61,-0.01278039394,0.001661228676
2.62,-0.01264909264,0.002243923114
2.63,-0.01249111255,0.002817964084
2.64,-0.01230698182,0.003382116495
2.65,-0.01209728694,0.003935176486
2.66,-0.01186267096,0.004475974283
2.67,-0.01160383147,0.00500337693
2.68,-0.01132151845,0.005516290919
2.69,-0.01101653208,0.00601366468
2.7,-0.0106897203,0.006494490946
2.71,-0.01034197636,0.006957808977
2.72,-0.009974236151,0.00740270664
2.73,-0.00958747559,0.007828322333
2.74,-0.009182707758,0.008233846765
2.75,-0.008760980064,0.008618524562
2.76,-0.008323371295,0.008981655724
2.77,-0.007870988614,0.009322596906
2.78,-0.007404964506,0.009640762532
2.79,-0.00692645369,0.009935625744
2.8,-0.006436629984,0.01020671917
2.81,-0.005936683169,0.01045363553
2.82,-0.005427815825,0.01067602806
2.83,-0.004911240177,0.01087361078
2.84,-0.004388174941,0.01104615854
2.85,-0.003859842194,0.01119350699
2.86,-0.003327464272,0.0113155523
2.87,-0.002792260699,0.01141225075
2.88,-0.002255445168,0.01148361814
2.89,-0.001718222573,0.0115297291
2.9,-0.001181786108,0.01155071617
2.91,-0.0006473144284,0.01154676876
2.92,-0.0001159689052,0.01151813202
2.93,0.0004111090493,0.0114651055
2.94,0.0009328005527,0.01138804173
2.95,0.001448011728,0.01128734463
2.96,0.001955676075,0.01116346785
2.97,0.002454756724,0.01101691298
2.98,0.002944248584,0.01084822768
2.99,0.00342318036,0.01065800364
3,0.00389061645,0.01044687456
3.01,0.004345658715,0.01021551398
3.02,0.004787448115,0.009964633042
3.03,0.005215166213,0.009694978247
3.04,0.005628036541,0.009407329077
3.05,0.006025325831,0.009102495631
3.06,0.006406345109,0.008781316197
3.07,0.006770450645,0.008444654806
3.08,0.007117044769,0.008093398754
3.09,0.007445576551,0.00772845612
3.1,0.007755542339,0.007350753274
3.11,0.008046486165,0.00696123239
3.12,0.008318000015,0.006560848962
3.13,0.008569723974,0.00615056935
3.14,0.008801346234,0.005731368336
3.15,0.009012602987,0.005304226722
3.16,0.009203278188,0.004870128958
3.17,0.009373203207,0.00443006082
3.18,0.009522256365,0.003985007131
3.19,0.00965036236,0.003535949543
3.2,0.009757491592,0.003083864373
3.21,0.00984365939,0.002629720512
3.22,0.009908925139,0.002174477391
3.23,0.009953391329,0.001719083037
3.24,0.00997720251,0.001264472185
3.25,0.00998054418,0.0008115644902
3.26,0.009963641593,0.0003612628093
3.27,0.009926758511,-8.554842906E-05
3.28,0.009870195887,-0.0005280047656
3.29,0.0097942905,-0.0009652631652
3.3,0.009699413543,-0.001396503381
3.31,0.009585969161,-0.001820929228
3.32,0.009454392965,-0.002237769768
3.33,0.009305150503,-0.002646280398
3.34,0.009138735713,-0.003045743858
3.35,0.008955669357,-0.003435471134
3.36,0.008756497432,-0.00381480229
3.37,0.008541789581,-0.004183107196
3.38,0.008312137496,-0.004539786181
3.39,0.008068153316,-0.004884270593
3.4,0.007810468036,-0.005216023288
3.41,0.007539729921,-0.005534539022
3.42,0.007256602931,-0.005839344783
3.43,0.006961765165,-0.006130000039
3.44,0.006655907324,-0.006406096912
3.45,0.006339731192,-0.006667260288
3.46,0.006013948147,-0.006913147858
3.47,0.005679277698,-0.007143450097
3.48,0.005336446051,-0.007357890181
3.49,0.00498618471,-0.007556223853
3.5,0.004629229106,-0.007738239227
3.51,0.004266317271,-0.007903756551
3.52,0.003898188533,-0.008052627916
3.53,0.003525582266,-0.008184736926
3.54,0.003149236665,-0.008299998326
3.55,0.002769887563,-0.008398357593
3.56,0.002388267291,-0.008479790491
3.57,0.00200510357,-0.008544302598
3.58,0.001621118444,-0.008591928805
3.59,0.001237027253,-0.00862273278
3.6,0.0008535376421,-0.008636806421
3.61,0.0004713486071,-0.008634269283
3.62,9.114957507E-05,-0.008615267981
3.63,-0.0002863804774,-0.008579975582
3.64,-0.0006605738737,-0.008528590985
3.65,-0.001030775054,-0.008461338278
3.66,-0.001396341358,-0.008378466089
3.67,-0.001756643781,-0.008280246931
3.68,-0.002111067698,-0.008166976527
3.69,-0.002459013562,-0.008038973133
3.7,-0.002799897572,-0.007896576858
3.71,-0.003133152319,-0.007740148963
3.72,-0.003458227409,-0.007570071168
3.73,-0.003774590061,-0.007386744942
3.74,-0.004081725679,-0.007190590796
3.75,-0.004379138415,-0.006982047558
3.76,-0.0046663517,-0.006761571655
3.77,-0.00494290876,-0.006529636373
3.78,-0.005208373119,-0.006286731128
3.79,-0.005462329079,-0.00603336071
3.8,-0.005704382183,-0.005770044533
3.81,-0.005934159662,-0.005497315872
3.82,-0.006151310867,-0.005215721085
3.83,-0.006355507683,-0.004925818834
3.84,-0.006546444928,-0.004628179286
3.85,-0.006723840733,-0.004323383309
3.86,-0.006887436902,-0.004012021652
3.87,-0.007036999267,-0.003694694112
3.88,-0.007172318006,-0.003372008687
3.89,-0.007293207957,-0.003044580716
3.9,-0.007399508905,-0.002713031999
3.91,-0.007491085848,-0.00237798991
3.92,-0.00756782924,-0.002040086485
3.93,-0.007629655215,-0.001699957497
3.94,-0.007676505779,-0.001358241517
3.95,-0.00770834898,-0.001015578957
3.96,-0.007725179044,-0.0006726110914
3.97,-0.007727016491,-0.0003299790727
3.98,-0.007713908208,1.16770785E-05
3.99,-0.007685927495,0.0003517194925
4,-0.007643174072,0.0006895134861
4.01,-0.007585774054,0.001024428611
4.02,-0.00751387988,0.001355839714
4.03,-0.007427670207,0.00168312801
4.04,-0.00732734976,0.00200568216
4.05,-0.007213149132,0.002322899365
4.06,-0.007085324551,0.002634186455
4.07,-0.006944157585,0.002938960991
4.08,-0.006789954808,0.003236652361
4.09,-0.006623047413,0.003526702886
4.1,-0.006443790773,0.00380856891
4.11,-0.006252563951,0.004081721893
4.12,-0.006049769154,0.004345649492
4.13,-0.005835831138,0.004599856629
4.14,-0.005611196553,0.00484386655
4.15,-0.00537633324,0.005077221858
4.16,-0.005131729464,0.005299485534
4.17,-0.004877893101,0.005510241922
4.18,-0.004615350767,0.0057090977
4.19,-0.00434464689,0.005895682809
4.2,-0.004066342736,0.006069651352
4.21,-0.003781015378,0.006230682456
4.22,-0.003489256613,0.006378481088
4.23,-0.003191671837,0.006512778829
4.24,-0.00288887886,0.006633334605
4.25,-0.002581506694,0.006739935354
4.26,-0.002270194277,0.006832396651
4.27,-0.001955589171,0.006910563269
4.28,-0.001638346221,0.006974309679
4.29,-0.001319126167,0.007023540489
4.3,-0.0009985942413,0.007058190813
4.31,-0.0006774187237,0.007078226578
4.32,-0.0003562694791,0.007083644755
4.33,-3.581647115E-05,0.007074473514
4.34,0.0002832717399,0.007050772313
4.35,0.0006003295136,0.007012631901
4.36,0.0009146956533,0.006960174251
4.37,0.001225714936,0.006893552408
4.38,0.001532739639,0.006812950257
4.39,0.00183513107,0.006718582218
4.4,0.002132261074,0.006610692848
4.41,0.002423513544,0.006489556375
4.42,0.002708285893,0.00635547614
4.43,0.002985990526,0.006208783963
4.44,0.003256056259,0.006049839436
4.45,0.003517929726,0.005879029126
4.46,0.003771076734,0.005696765714
4.47,0.004014983589,0.005503487047
4.48,0.00424915836,0.005299655128
4.49,0.004473132106,0.005085755027
4.5,0.004686460042,0.004862293731
4.51,0.004888722641,0.004629798928
4.52,0.005079526684,0.004388817722
4.53,0.005258506234,0.004139915304
4.54,0.005425323539,0.003883673554
4.55,0.005579669869,0.003620689603
4.56,0.005721266269,0.003351574343
4.57,0.005849864233,0.003076950897
4.58,0.0059652463,0.002797453055
4.59,0.006067226559,0.002513723671
4.6,0.006155651073,0.002226413037
4.61,0.006230398211,0.001936177231
4.62,0.006291378892,0.001643676453
4.63,0.006338536737,0.00134957334
4.64,0.006371848129,0.001054531283
4.65,0.006391322186,0.0007592127372
4.66,0.006397000632,0.000464277534
4.67,0.006388957586,0.0001703812078
4.68,0.006367299255,-0.0001218266676
4.69,0.006332163535,-0.000411704121
4.7,0.006283719529,-0.0006986184014
4.71,0.00622216697,-0.0009819475656
4.72,0.006147735563,-0.001261082031
4.73,0.006060684244,-0.001535426086
4.74,0.005961300353,-0.001804399361
4.75,0.005849898737,-0.002067438242
4.76,0.005726820767,-0.002323997239
4.77,0.005592433295,-0.002573550289
4.78,0.005447127532,-0.002815591999
4.79,0.005291317871,-0.003049638828
4.8,0.005125440643,-0.00327523019
4.81,0.004949952821,-0.003491929491
4.82,0.004765330669,-0.003699325089
4.83,0.004572068347,-0.003897031174
4.84,0.004370676474,-0.004084688568
4.85,0.00416168065,-0.004261965441
4.86,0.003945619952,-0.004428557942
4.87,0.003723045399,-0.004584190744
4.88,0.003494518393,-0.004728617504
4.89,0.003260609148,-0.004861621228
4.9,0.003021895108,-0.004983014555
4.91,0.002778959354,-0.005092639943
4.92,0.002532389013,-0.005190369775
4.93,0.002282773675,-0.005276106372
4.94,0.002030703814,-0.005349781915
4.95,0.001776769224,-0.005411358289
4.96,0.001521557482,-0.005460826833
4.97,0.001265652426,-0.005498208011
4.98,0.001009632668,-0.005523551003
4.99,0.0007540701388,-0.005536933213
5,0.0004995286739,-0.005538459704
5.01,0.0002465626377,-0.005528262555
5.02,-4.284402518E-06,-0.005506500151
5.03,-0.000252480954,-0.005473356406
5.04,-0.0004975088211,-0.005429039919
5.05,-0.0007388642715,-0.005373783072
5.06,-0.0009760591417,-0.005307841071
5.07,-0.00120862188,-0.005231490935
5.08,-0.001436098522,-0.005145030436
5.09,-0.001658053602,-0.005048776999
5.1,-0.001874070994,-0.004943066556
5.11,-0.002083754676,-0.004828252369
5.12,-0.002286729428,-0.004704703828
5.13,-0.002482641454,-0.004572805208
5.14,-0.002671158931,-0.004432954425
5.15,-0.002851972478,-0.004285561757
5.16,-0.003024795558,-0.004131048564
5.17,-0.003189364795,-0.003969845999
5.18,-0.003345440226,-0.003802393711
5.19,-0.003492805475,-0.003629138558
5.2,-0.00363126785,-0.003450533317
5.21,-0.003760658377,-0.003267035413
5.22,-0.003880831756,-0.003079105651
5.23,-0.003991666252,-0.002887206979
5.24,-0.004093063518,-0.002691803266
5.25,-0.004184948357,-0.002493358104
5.26,-0.004267268416,-0.002292333643
5.27,-0.004339993827,-0.00208918946
5.28,-0.004403116783,-0.001884381455
5.29,-0.004456651071,-0.001678360799
5.3,-0.004500631545,-0.00147157291
5.31,-0.004535113554,-0.001264456479
5.32,-0.004560172328,-0.001057442542
5.33,-0.004575902322,-0.0008509535965
5.34,-0.004582416516,-0.0006454027706
5.35,-0.004579845697,-0.0004411930404
5.36,-0.00456833769,-0.0002387165005
5.37,-0.004548056578,-3.835368773E-05
5.38,-0.004519181892,0.0001595270426
5.39,-0.004481907782,0.0003545700851
5.4,-0.004436442174,0.0005464330987
5.41,-0.004383005909,0.0007347874669
5.42,-0.004321831882,0.0009193187039
5.43,-0.004253164166,0.001099726806
5.44,-0.00417725714,0.001275726553
5.45,-0.004094374612,0.00144704775
5.46,-0.004004788957,0.001613435429
5.47,-0.003908780245,0.001774649993
5.48,-0.003806635394,0.001930467311
5.49,-0.003698647331,0.002080678772
5.5,-0.003585114163,0.002225091286
5.51,-0.003466338369,0.002363527253
5.52,-0.003342626017,0.002495824478
5.53,-0.003214285995,0.002621836054
5.54,-0.003081629265,0.00274143021
5.55,-0.002944968153,0.002854490117
5.56,-0.002804615653,0.00296091367
5.57,-0.002660884768,0.003060613233
5.58,-0.002514087872,0.003153515363
5.59,-0.002364536115,0.003239560502
5.6,-0.002212538846,0.003318702654
5.61,-0.00205840307,0.003390909039
5.62,-0.001902432947,0.003456159725
5.63,-0.00174492931,0.003514447254
5.64,-0.001586189221,0.00356577625
5.65,-0.001426505557,0.003610163013
5.66,-0.001266166635,0.003647635116
5.67,-0.001105455854,0.003678230988
5.68,-0.0009446513796,0.003701999494
5.69,-0.0007840258528,0.003718999516
5.7,-0.000623846129,0.003729299533
5.71,-0.0004643730435,0.003732977206
5.72,-0.0003058612054,0.003730118962
5.73,-0.0001485588149,0.003720819587
5.74,7.29249389E-06,0.003705181826
5.75,0.000161457788,0.003683315991
5.76,0.0003137089498,0.003655339576
5.77,0.0004638247711,0.003621376886
5.78,0.0006115910289,0.003581558674
5.79,0.0007568005457,0.003536021795
5.8,0.0008992532334,0.003484908866
5.81,0.001038756125,0.003428367947
5.82,0.001175123394,0.003366552225
5.83,0.001308176364,0.003299619725
5.84,0.001437743508,0.00322773302
5.85,0.001563660446,0.003151058967
5.86,0.001685769929,0.003069768449
5.87,0.001803921824,0.002984036134
5.88,0.001917973095,0.00289404024
5.89,0.002027787785,0.002799962322
5.9,0.002133236989,0.002701987059
5.91,0.002234198842,0.002600302062
5.92,0.002330558491,0.002495097684
5.93,0.002422208086,0.00238656684
5.94,0.002509046765,0.00227490484
5.95,0.002590980642,0.002160309221
5.96,0.002667922809,0.002042979588
5.97,0.002739793332,0.001923117463
5.98,0.002806519259,0.001800926132
5.99,0.002868034629,0.001676610494
6,0.002924280496,0.001550376917
