"Freq [GHz]","re(S(Tx_p1,Tx_p1)) []","im(S(Tx_p1,Tx_p1)) []"
1,-0.0180955482,-0.05168981057
1.01,-0.02000173532,-0.05087595563
1.02,-0.02187785021,-0.049987724
1.03,-0.02372051667,-0.04902621567
1.04,-0.0255264219,-0.04799270164
1.05,-0.02729232452,-0.04688861888
1.06,-0.0290150622,-0.04571556481
1.07,-0.03069155892,-0.04447529165
1.08,-0.03231883194,-0.04316970046
1.09,-0.0338939983,-0.04180083493
1.1,-0.03541428097,-0.04037087504
1.11,-0.03687701467,-0.03888213042
1.12,-0.03827965122,-0.03733703366
1.13,-0.03961976456,-0.03573813334
1.14,-0.04089505534,-0.03408808701
1.15,-0.04210335516,-0.03238965404
1.16,-0.04324263035,-0.03064568833
1.17,-0.04431098547,-0.02885913099
1.18,-0.04530666628,-0.02703300294
1.19,-0.04622806245,-0.02517039747
1.2,-0.04707370982,-0.02327447274
1.21,-0.04784229231,-0.02134844438
1.22,-0.04853264342,-0.01939557795
1.23,-0.04914374744,-0.01741918157
1.24,-0.0496747402,-0.01542259846
1.25,-0.05012490959,-0.01340919969
1.26,-0.05049369559,-0.01138237683
1.27,-0.05078069012,-0.009345534873
1.28,-0.05098563646,-0.007302085081
1.29,-0.05110842837,-0.005255438082
1.3,-0.05114910897,-0.003208997025
1.31,-0.05110786921,-0.001166150895
1.32,-0.05098504621,0.0008697320301
1.33,-0.05078112118,0.002895310555
1.34,-0.05049671715,0.004907276779
1.35,-0.05013259648,0.006902362126
1.36,-0.0496896581,0.008877343191
1.37,-0.04916893448,0.01082904739
1.38,-0.0485715885,0.01275435842
1.39,-0.04789891,0.0146502215
1.4,-0.04715231226,0.01651364841
1.41,-0.04633332821,0.01834172229
1.42,-0.04544360654,0.02013160228
1.43,-0.04448490762,0.02188052788
1.44,-0.04345909934,0.0235858231
1.45,-0.04236815273,0.0252449004
1.46,-0.04121413759,0.02685526439
1.47,-0.0399992179,0.02841451529
1.48,-0.03872564724,0.02992035221
1.49,-0.03739576405,0.03137057613
1.5,-0.03601198687,0.03276309272
1.51,-0.03457680951,0.03409591489
1.52,-0.03309279617,0.03536716514
1.53,-0.03156257654,0.03657507769
1.54,-0.02998884081,0.03771800038
1.55,-0.02837433476,0.03879439634
1.56,-0.02672185473,0.03980284549
1.57,-0.0250342427,0.04074204582
1.58,-0.02331438124,0.0416108144
1.59,-0.02156518864,0.0424080883
1.6,-0.01978961388,0.0431329252
1.61,-0.01799063178,0.04378450393
1.62,-0.01617123807,0.04436212467
1.63,-0.01433444458,0.04486520914
1.64,-0.0124832744,0.04529330044
1.65,-0.01062075719,0.04564606285
1.66,-0.008749924404,0.04592328139
1.67,-0.006873804709,0.04612486124
1.68,-0.004995419383,0.04625082697
1.69,-0.003117777808,0.04630132167
1.7,-0.001243873033,0.04627660586
1.71,0.0006233225948,0.04617705632
1.72,0.002480861723,0.04600316475
1.73,0.004325826199,0.04575553624
1.74,0.006155331204,0.04543488774
1.75,0.007966529294,0.04504204621
1.76,0.009756614358,0.04457794687
1.77,0.01152282548,0.04404363111
1.78,0.01326245074,0.04344024444
1.79,0.01497283087,0.04276903425
1.8,0.01665136284,0.0420313475
1.81,0.01829550339,0.04122862824
1.82,0.01990277239,0.04036241511
1.83,0.02147075616,0.03943433868
1.84,0.02299711065,0.0384461187
1.85,0.02447956453,0.03739956129
1.86,0.0259159222,0.036296556
1.87,0.02730406665,0.03513907281
1.88,0.02864196225,0.03392915899
1.89,0.02992765742,0.03266893597
1.9,0.03115928718,0.03136059605
1.91,0.03233507558,0.03000639904
1.92,0.03345333809,0.0286086689
1.93,0.03451248373,0.02716979017
1.94,0.03551101724,0.02569220446
1.95,0.03644754104,0.02417840683
1.96,0.03732075707,0.02263094206
1.97,0.03812946853,0.02105240092
1.98,0.03887258151,0.01944541632
1.99,0.03954910646,0.01781265949
2,0.04015815955,0.01615683601
2.01,0.04069896386,0.01448068186
2.02,0.04117085051,0.01278695935
2.03,0.04157325957,0.01107845312
2.04,0.0419057409,0.009357965964
2.05,0.04216795482,0.00762831473
2.06,0.04235967259,0.00589232611
2.07,0.04248077684,0.004152832445
2.08,0.0425312618,0.002412667485
2.09,0.04251123334,0.0006746621387
2.1,0.04242090892,-0.001058359801
2.11,0.04226061739,-0.002783585939
2.12,0.04203079857,-0.004498219564
2.13,0.04173200271,-0.00619948394
2.14,0.04136488982,-0.007884626587
2.15,0.04093022877,-0.009550923561
2.16,0.04042889629,-0.01119568371
2.17,0.03986187576,-0.0128162529
2.18,0.03923025587,-0.01441001825
2.19,0.0385352291,-0.01597441226
2.2,0.03777809002,-0.01750691701
2.21,0.03696023345,-0.01900506817
2.22,0.03608315241,-0.02046645907
2.23,0.03514843599,-0.02188874468
2.24,0.03415776696,-0.02326964546
2.25,0.03311291924,-0.02460695122
2.26,0.03201575529,-0.02589852487
2.27,0.03086822321,-0.027142306
2.28,0.02967235376,-0.02833631452
2.29,0.02843025724,-0.02947865401
2.3,0.02714412015,-0.03056751512
2.31,0.02581620175,-0.03160117876
2.32,0.02444883049,-0.03257801913
2.33,0.0230444002,-0.03349650675
2.34,0.0216053663,-0.03435521118
2.35,0.02013424173,-0.03515280373
2.36,0.01863359283,-0.03588805991
2.37,0.01710603512,-0.03655986181
2.38,0.01555422887,-0.0371672002
2.39,0.01398087467,-0.03770917657
2.4,0.01238870886,-0.03818500488
2.41,0.01078049879,-0.03859401322
2.42,0.00915903816,-0.0389356452
2.43,0.007527142116,-0.03920946118
2.44,0.005887642378,-0.03941513927
2.45,0.004243382275,-0.03955247615
2.46,0.002597211729,-0.03962138767
2.47,0.0009519822055,-0.03962190921
2.48,-0.0006894583737,-0.03955419585
2.49,-0.002324270737,-0.0394185223
2.5,-0.003949629381,-0.03921528261
2.51,-0.005562727692,-0.03894498968
2.52,-0.007160783051,-0.03860827447
2.53,-0.008741041931,-0.03820588508
2.54,-0.01030078495,-0.03773868551
2.55,-0.0118373319,-0.03720765426
2.56,-0.0133480467,-0.03661388268
2.57,-0.0148303423,-0.03595857307
2.58,-0.01628168552,-0.03524303657
2.59,-0.01769960176,-0.03446869087
2.6,-0.01908167971,-0.03363705767
2.61,-0.02042557582,-0.03274975986
2.62,-0.02172901877,-0.03180851864
2.63,-0.02298981372,-0.0308151503
2.64,-0.02420584652,-0.02977156284
2.65,-0.02537508769,-0.02867975247
2.66,-0.02649559625,-0.02754179979
2.67,-0.02756552344,-0.02635986591
2.68,-0.02858311622,-0.02513618832
2.69,-0.02954672058,-0.02387307665
2.7,-0.03045478467,-0.02257290822
2.71,-0.03130586174,-0.02123812351
2.72,-0.03209861286,-0.01987122143
2.73,-0.03283180941,-0.0184747545
2.74,-0.03350433539,-0.01705132391
2.75,-0.03411518942,-0.01560357444
2.76,-0.03466348665,-0.01413418935
2.77,-0.03514846024,-0.01264588512
2.78,-0.03556946278,-0.01114140616
2.79,-0.03592596736,-0.009623519435
2.8,-0.03621756839,-0.00809500906
2.81,-0.03644398223,-0.006558670846
2.82,-0.03660504748,-0.005017306826
2.83,-0.03670072514,-0.003473719773
2.84,-0.03673109836,-0.00193070771
2.85,-0.03669637205,-0.0003910584422
2.86,-0.03659687219,0.001142455891
2.87,-0.0364330449,0.002667084219
2.88,-0.03620545524,0.004180101902
2.89,-0.03591478581,0.005678816021
2.9,-0.03556183499,0.007160570593
2.91,-0.03514751511,0.008622751708
2.92,-0.03467285023,0.01006279255
2.93,-0.03413897375,0.01147817834
2.94,-0.03354712582,0.01286645111
2.95,-0.03289865049,0.01422521436
2.96,-0.03219499264,0.01555213763
2.97,-0.03143769476,0.01684496081
2.98,-0.03062839347,0.01810149839
2.99,-0.02976881586,0.01931964347
3,-0.02886077574,0.02049737161
3.01,-0.02790616956,0.0216327445
3.02,-0.02690697231,0.02272391339
3.03,-0.02586523321,0.02376912241
3.04,-0.02478307126,0.02476671154
3.05,-0.02366267066,0.02571511949
3.06,-0.02250627613,0.02661288626
3.07,-0.02131618812,0.02745865555
3.08,-0.02009475791,0.02825117686
3.09,-0.01884438262,0.02898930739
3.1,-0.01756750022,0.02967201373
3.11,-0.01626658436,0.03029837323
3.12,-0.01494413928,0.03086757522
3.13,-0.01360269459,0.03137892187
3.14,-0.01224480007,0.03183182888
3.15,-0.01087302048,0.03222582596
3.16,-0.009489930346,0.03256055693
3.17,-0.008098108744,0.03283577968
3.18,-0.006700134153,0.03305136589
3.19,-0.005298579326,0.03320730043
3.2,-0.003896006208,0.03330368058
3.21,-0.002494960929,0.03334071504
3.22,-0.001097968863,0.03331872263
3.23,0.0002924702288,0.03323813082
3.24,0.001673886952,0.03309947405
3.25,0.003043846938,0.03290339179
3.26,0.004399955377,0.03265062643
3.27,0.005739861431,0.03234202096
3.28,0.007061262515,0.03197851645
3.29,0.008361908427,0.03156114933
3.3,0.009639605334,0.03109104856
3.31,0.0108922196,0.03056943255
3.32,0.01211768144,0.02999760594
3.33,0.0133139884,0.02937695628
3.34,0.01447920869,0.02870895053
3.35,0.01561148427,0.02799513139
3.36,0.0167090338,0.0272371136
3.37,0.01777015538,0.02643658007
3.38,0.01879322909,0.0255952779
3.39,0.01977671933,0.02471501434
3.4,0.02071917693,0.02379765269
3.41,0.02161924111,0.02284510805
3.42,0.02247564118,0.02185934312
3.43,0.02328719804,0.02084236384
3.44,0.0240528255,0.01979621511
3.45,0.02477153137,0.01872297639
3.46,0.02544241831,0.01762475731
3.47,0.02606468452,0.01650369331
3.48,0.02663762421,0.01536194125
3.49,0.02716062785,0.01420167504
3.5,0.02763318222,0.01302508128
3.51,0.02805487028,0.01183435499
3.52,0.02842537084,0.01063169532
3.53,0.028744458,0.009419301329
3.54,0.02901200047,0.008199367869
3.55,0.02922796064,0.006974081465
3.56,0.02939239356,0.005745616333
3.57,0.0295054456,0.004516130455
3.58,0.02956735315,0.003287761756
3.59,0.02957844095,0.002062624372
3.6,0.02953912045,0.0008428050365
3.61,0.02944988787,-0.0003696404348
3.62,0.02931132225,-0.001572690529
3.63,0.02912408329,-0.002764361306
3.64,0.02888890905,-0.003942709537
3.65,0.02860661363,-0.005105835712
3.66,0.02827808466,-0.006251886911
3.67,0.02790428068,-0.007379059536
3.68,0.0274862285,-0.008485601894
3.69,0.0270250204,-0.009569816649
3.7,0.02652181128,-0.01063006311
3.71,0.02597781579,-0.01166475938
3.72,0.0253943053,-0.01267238436
3.73,0.02477260486,-0.01365147956
3.74,0.02411409019,-0.01460065086
3.75,0.0234201845,-0.01551856996
3.76,0.02269235536,-0.01640397584
3.77,0.02193211152,-0.01725567599
3.78,0.02114099974,-0.01807254745
3.79,0.0203206016,-0.01885353782
3.8,0.01947253027,-0.01959766597
3.81,0.01859842731,-0.02030402279
3.82,0.01769995953,-0.02097177161
3.83,0.01677881578,-0.0216001486
3.84,0.01583670385,-0.02218846302
3.85,0.01487534729,-0.02273609729
3.86,0.01389648239,-0.02324250698
3.87,0.0129018551,-0.02370722063
3.88,0.01189321805,-0.02412983949
3.89,0.0108723276,-0.02451003711
3.9,0.009840940943,-0.02484755882
3.91,0.008800813256,-0.02514222114
3.92,0.007753694939,-0.025393911
3.93,0.006701328895,-0.02560258498
3.94,0.005645447883,-0.02576826831
3.95,0.004587771949,-0.0258910539
3.96,0.003530005921,-0.02597110122
3.97,0.002473836981,-0.02600863512
3.98,0.001420932321,-0.02600394455
3.99,0.0003729368679,-0.02595738124
4,-0.000668528903,-0.02586935828
4.01,-0.001701871077,-0.02574034865
4.02,-0.002725524326,-0.0255708837
4.03,-0.003737953851,-0.02536155153
4.04,-0.00473765724,-0.02511299541
4.05,-0.005723166243,-0.02482591204
4.06,-0.006693048463,-0.02450104985
4.07,-0.007645908966,-0.02413920725
4.08,-0.0085803918,-0.02374123081
4.09,-0.009495181439,-0.02330801341
4.1,-0.01038900414,-0.02284049245
4.11,-0.01126062923,-0.02233964789
4.12,-0.01210887027,-0.02180650041
4.13,-0.01293258624,-0.02124210946
4.14,-0.01373068249,-0.02064757135
4.15,-0.01450211178,-0.02002401728
4.16,-0.01524587513,-0.0193726114
4.17,-0.01596102262,-0.01869454886
4.18,-0.01664665417,-0.01799105384
4.19,-0.01730192019,-0.01726337759
4.2,-0.01792602216,-0.01651279647
4.21,-0.0185182132,-0.01574060996
4.22,-0.01907779849,-0.01494813876
4.23,-0.0196041357,-0.01413672277
4.24,-0.02009663534,-0.0133077192
4.25,-0.020554761,-0.01246250063
4.26,-0.02097802956,-0.01160245305
4.27,-0.02136601138,-0.01072897397
4.28,-0.02171833038,-0.009843470519
4.29,-0.02203466407,-0.008947357539
4.3,-0.02231474353,-0.008042055726
4.31,-0.02255835338,-0.00712898976
4.32,-0.0227653316,-0.006209586455
4.33,-0.02293556939,-0.005285272933
4.34,-0.02306901095,-0.004357474804
4.35,-0.02316565318,-0.00342761437
4.36,-0.02322554538,-0.002497108845
4.37,-0.02324878884,-0.001567368588
4.38,-0.02323553645,-0.0006397953602
4.39,-0.02318599223,0.0002842194024
4.4,-0.02310041078,0.001203296297
4.41,-0.02297909676,0.002116069642
4.42,-0.02282240423,0.003021189145
4.43,-0.02263073606,0.003917321547
4.44,-0.02240454315,0.004803152253
4.45,-0.02214432376,0.005677386933
4.46,-0.02185062266,0.006538753104
4.47,-0.0215240303,0.007386001688
4.48,-0.02116518198,0.008217908544
4.49,-0.02077475683,0.00903327598
4.5,-0.02035347692,0.009830934235
4.51,-0.01990210619,0.01060974293
4.52,-0.01942144942,0.01136859251
4.53,-0.01891235108,0.01210640561
4.54,-0.01837569422,0.01282213846
4.55,-0.01781239923,0.01351478222
4.56,-0.01722342263,0.01418336423
4.57,-0.01660975575,0.01482694935
4.58,-0.01597242343,0.01544464113
4.59,-0.01531248261,0.01603558304
4.6,-0.01463102093,0.01659895963
4.61,-0.01392915525,0.01713399758
4.62,-0.01320803016,0.01763996685
4.63,-0.01246881642,0.01811618166
4.64,-0.01171270936,0.01856200144
4.65,-0.01094092727,0.01897683183
4.66,-0.01015470972,0.01936012546
4.67,-0.009355315815,0.01971138287
4.68,-0.008544022523,0.0200301532
4.69,-0.007722122823,0.02031603492
4.7,-0.006890923922,0.0205686765
4.71,-0.006051745396,0.02078777699
4.72,-0.00520591731,0.02097308649
4.73,-0.004354778305,0.0211244067
4.74,-0.003499673669,0.02124159123
4.75,-0.002641953367,0.02132454596
4.76,-0.001782970059,0.02137322928
4.77,-0.0009240770979,0.02138765226
4.78,-6.662650755E-05,0.02136787875
4.79,0.0007880330551,0.0213140254
4.8,0.001638558346,0.02122626164
4.81,0.002483613589,0.02110480947
4.82,0.00332187254,0.02094994332
4.83,0.004152020548,0.02076198973
4.84,0.004972756616,0.02054132693
4.85,0.005782795461,0.02028838443
4.86,0.006580869561,0.02000364244
4.87,0.007365731193,0.01968763125
4.88,0.008136154448,0.01934093051
4.89,0.008890937239,0.0189641684
4.9,0.009628903272,0.01855802078
4.91,0.010348904,0.0181232102
4.92,0.01104982053,0.01766050482
4.93,0.01173056553,0.01717071729
4.94,0.01239008503,0.01665470353
4.95,0.01302736026,0.0161133614
4.96,0.01364140937,0.01554762931
4.97,0.01423128917,0.01495848479
4.98,0.01479609671,0.01434694289
4.99,0.01533497091,0.0137140546
5,0.01584709409,0.01306090516
5.01,0.01633169337,0.01238861225
5.02,0.0167880421,0.01169832421
5.03,0.01721546114,0.01099121812
5.04,0.0176133201,0.01026849784
5.05,0.01798103849,0.009531391996
5.06,0.01831808677,0.008781151912
5.07,0.01862398736,0.008019049475
5.08,0.01889831546,0.007246374968
5.09,0.01914069991,0.006464434853
5.1,0.01935082387,0.005674549516
5.11,0.01952842539,0.004878050975
5.12,0.01967329794,0.004076280554
5.13,0.0197852908,0.00327058654
5.14,0.01986430935,0.002462321808
5.15,0.01991031526,0.001652841435
5.16,0.0199233266,0.0008435003017
5.17,0.01990341778,3.56506843E-05
5.18,0.01985071944,-0.0007693601524
5.19,0.01976541821,-0.00157019236
5.2,0.01964775637,-0.002365515905
5.21,0.01949803141,-0.00315401295
5.22,0.01931659542,-0.003934380217
5.23,0.01910385449,-0.004705331333
5.24,0.01886026789,-0.005465599137
5.25,0.01858634722,-0.006213937961
5.26,0.01828265541,-0.006949125865
5.27,0.01794980565,-0.007669966836
5.28,0.01758846023,-0.00837529293
5.29,0.01719932923,-0.009063966364
5.3,0.01678316917,-0.00973488155
5.31,0.01634078155,-0.01038696706
5.32,0.01587301127,-0.01101918755
5.33,0.01538074503,-0.01163054555
5.34,0.0148649096,-0.01222008325
5.35,0.01432647003,-0.01278688417
5.36,0.01376642775,-0.01333007475
5.37,0.01318581865,-0.01384882585
5.38,0.01258571111,-0.01434235415
5.39,0.01196720385,-0.01480992351
5.4,0.01133142388,-0.01525084614
5.41,0.01067952429,-0.01566448376
5.42,0.01001268203,-0.01605024863
5.43,0.009332095621,-0.01640760442
5.44,0.008638982901,-0.01673606709
5.45,0.007934578649,-0.01703520552
5.46,0.007220132231,-0.01730464218
5.47,0.006496905223,-0.01754405357
5.48,0.005766169002,-0.0177531706
5.49,0.005029202342,-0.01793177888
5.5,0.004287288992,-0.01807971887
5.51,0.003541715263,-0.0181968859
5.52,0.002793767615,-0.01828323011
5.53,0.002044730262,-0.01833875631
5.54,0.001295882779,-0.01836352363
5.55,0.0005484977506,-0.01835764517
5.56,-0.0001961615727,-0.0183212875
5.57,-0.0009368435747,-0.01825467003
5.58,-0.001672310542,-0.01815806428
5.59,-0.00240134089,-0.01803179315
5.6,-0.003122731341,-0.01787622993
5.61,-0.003835299055,-0.01769179731
5.62,-0.004537883701,-0.01747896632
5.63,-0.005229349474,-0.0172382551
5.64,-0.005908587041,-0.01697022765
5.65,-0.00657451543,-0.01667549244
5.66,-0.007226083836,-0.01635470103
5.67,-0.00786227336,-0.01600854649
5.68,-0.008482098672,-0.01563776186
5.69,-0.009084609585,-0.01524311848
5.7,-0.00966889255,-0.01482542429
5.71,-0.01023407207,-0.01438552203
5.72,-0.01077931201,-0.01392428742
5.73,-0.01130381684,-0.01344262732
5.74,-0.01180683276,-0.01294147775
5.75,-0.01228764875,-0.01242180195
5.76,-0.0127455975,-0.0118845884
5.77,-0.01318005631,-0.01133084877
5.78,-0.01359044776,-0.01076161587
5.79,-0.01397624047,-0.01017794158
5.8,-0.01433694957,-0.009580894742
5.81,-0.0146721372,-0.008971559079
5.82,-0.01498141287,-0.008351031075
5.83,-0.01526443372,-0.007720417863
5.84,-0.01552090469,-0.00708083512
5.85,-0.01575057858,-0.006433404967
5.86,-0.01595325606,-0.005779253878
5.87,-0.01612878552,-0.005119510612
5.88,-0.01627706286,-0.004455304159
5.89,-0.01639803124,-0.003787761717
5.9,-0.01649168064,-0.003118006692
5.91,-0.0165580474,-0.002447156736
5.92,-0.0165972137,-0.001776321822
5.93,-0.01660930688,-0.001106602353
5.94,-0.01659449877,-0.000439087323
5.95,-0.01655300484,0.0002251474833
5.96,-0.01648508341,0.0008850412317
5.97,-0.01639103467,0.001539549734
5.98,-0.01627119967,0.002187647085
5.99,-0.01612595934,0.002828327239
6,-0.01595573326,0.003460605531
