"Freq [GHz]","re(S(Tx_p1,Tx_p1)) []","im(S(Tx_p1,Tx_p1)) []"
1,-0.03557872962,-0.1144643887
1.01,-0.03971781742,-0.1129866725
1.02,-0.04381085636,-0.1113551031
1.03,-0.0478514263,-0.1095708784
1.04,-0.05183317381,-0.1076354851
1.05,-0.05574982278,-0.1055506913
1.06,-0.0595951844,-0.1033185398
1.07,-0.06336316672,-0.1009413408
1.08,-0.0670477837,-0.0984216646
1.09,-0.07064316379,-0.09576233439
1.1,-0.07414355814,-0.09296641922
1.11,-0.07754334836,-0.09003722665
1.12,-0.080837054,-0.08697829566
1.13,-0.08401933956,-0.08379338946
1.14,-0.08708502129,-0.0804864884
1.15,-0.09002907366,-0.07706178296
1.16,-0.09284663559,-0.07352366672
1.17,-0.09553301643,-0.0698767294
1.18,-0.09808370167,-0.06612574997
1.19,-0.1004943586,-0.06227568976
1.2,-0.1027608416,-0.05833168561
1.21,-0.1048791974,-0.05429904309
1.22,-0.1068456706,-0.0501832297
1.23,-0.1086567077,-0.04598986801
1.24,-0.1103089633,-0.04172472892
1.25,-0.1117993037,-0.03739372477
1.26,-0.1131248124,-0.03300290248
1.27,-0.1142827946,-0.02855843659
1.28,-0.1152707816,-0.02406662224
1.29,-0.1160865354,-0.01953386805
1.3,-0.1167280533,-0.01496668886
1.31,-0.1171935724,-0.01037169837
1.32,-0.1174815735,-0.005755601592
1.33,-0.1175907858,-0.001125187168
1.34,-0.117520191,0.003512680567
1.35,-0.1172690273,0.008151069668
1.36,-0.1168367931,0.01278298893
1.37,-0.1162232518,0.01740139645
1.38,-0.1154284343,0.02199920849
1.39,-0.1144526435,0.02656930856
1.4,-0.1132964573,0.03110455679
1.41,-0.1119607318,0.03559779963
1.42,-0.1104466043,0.0400418798
1.43,-0.1087554957,0.04442964656
1.44,-0.1068891136,0.04875396627
1.45,-0.1048494534,0.0530077333
1.46,-0.1026388011,0.05718388114
1.47,-0.1002597337,0.06127539392
1.48,-0.09771512075,0.06527531815
1.49,-0.09500812483,0.06917677474
1.5,-0.09214220135,0.07297297131
1.51,-0.08912109832,0.0766572147
1.52,-0.08594885528,0.08022292378
1.53,-0.08262980186,0.08366364238
1.54,-0.07916855559,0.08697305248
1.55,-0.07557001923,0.09014498748
1.56,-0.07183937739,0.09317344565
1.57,-0.06798209252,0.09605260364
1.58,-0.0640039002,0.09877683005
1.59,-0.05991080372,0.101340699
1.6,-0.05570906797,0.1037390038
1.61,-0.05140521256,0.1059667703
1.62,-0.04700600421,0.1080192704
1.63,-0.04251844839,0.1098920351
1.64,-0.03794978014,0.111580868
1.65,-0.0333074542,0.1130818574
1.66,-0.02859913434,0.1143913894
1.67,-0.02383268185,0.1155061599
1.68,-0.01901614344,0.1164231861
1.69,-0.0141577382,0.1171398181
1.7,-0.009265843946,0.1176537495
1.71,-0.004348982828,0.1179630278
1.72,0.0005841937898,0.118066064
1.73,0.0055249211,0.1179616415
1.74,0.01046433727,0.1176489247
1.75,0.01539350047,0.1171274662
1.76,0.02030340651,0.1163972138
1.77,0.02518500693,0.1154585166
1.78,0.03002922772,0.1143121295
1.79,0.03482698836,0.1129592179
1.8,0.03956922134,0.1114013608
1.81,0.04424689204,0.1096405528
1.82,0.04885101884,0.1076792054
1.83,0.05337269353,0.1055201472
1.84,0.05780310194,0.103166623
1.85,0.06213354456,0.1006222917
1.86,0.06635545737,0.09789122331
1.87,0.07046043258,0.09497789448
1.88,0.07444023934,0.0918871834
1.89,0.07828684426,0.08862436313
1.9,0.08199243182,0.08519509405
1.91,0.08554942442,0.08160541503
1.92,0.08895050215,0.07786173354
1.93,0.09218862213,0.07397081466
1.94,0.09525703737,0.06993976895
1.95,0.09814931511,0.06577603929
1.96,0.1008593545,0.0614873866
1.97,0.1033814038,0.0570818746
1.98,0.1057100765,0.05256785358
1.99,0.1078403669,0.04795394317
2,0.1097676648,0.04324901423
2.01,0.1114877694,0.0384621699
2.02,0.1129969017,0.03360272581
2.03,0.1142917168,0.02868018951
2.04,0.115369314,0.02370423925
2.05,0.1162272469,0.01868470202
2.06,0.1168635315,0.01363153117
2.07,0.1172766538,0.008554783331
2.08,0.1174655753,0.003464594989
2.09,0.1174297383,-0.00162884132
2.1,0.1171690691,-0.006715301159
2.11,0.1166839804,-0.01178455255
2.12,0.1159753718,-0.01682638051
2.13,0.1150446298,-0.02183061162
2.14,0.1138936259,-0.0267871387
2.15,0.1125247132,-0.03168594529
2.16,0.1109407225,-0.03651713007
2.17,0.1091449561,-0.04127093102
2.18,0.1071411809,-0.04593774927
2.19,0.1049336199,-0.0505081726
2.2,0.1025269428,-0.05497299844
2.21,0.09992625518,-0.05932325638
2.22,0.09713708599,-0.06355023008
2.23,0.09416537466,-0.06764547847
2.24,0.0910174566,-0.07160085626
2.25,0.08770004767,-0.07540853361
2.26,0.0842202277,-0.07906101495
2.27,0.08058542292,-0.08255115692
2.28,0.07680338752,-0.0858721852
2.29,0.07288218428,-0.08901771049
2.3,0.06883016445,-0.09198174324
2.31,0.06465594678,-0.09475870738
2.32,0.06036839597,-0.09734345278
2.33,0.05597660043,-0.09973126662
2.34,0.05148984953,-0.1019178834
2.35,0.04691761038,-0.1038994938
2.36,0.04226950416,-0.1056727523
2.37,0.03755528223,-0.1072347831
2.38,0.03278480191,-0.1085831855
2.39,0.02796800211,-0.1097160369
2.4,0.02311487889,-0.1106318956
2.41,0.01823546102,-0.1113298017
2.42,0.01333978556,-0.1118092761
2.43,0.008437873571,-0.1120703196
2.44,0.003539706144,-0.1121134094
2.45,-0.001344799423,-0.111939495
2.46,-0.006205812994,-0.1115499925
2.47,-0.01103361457,-0.1109467784
2.48,-0.01581861674,-0.1101321808
2.49,-0.02055138664,-0.109108971
2.5,-0.02522266716,-0.1078803532
2.51,-0.02982339761,-0.1064499528
2.52,-0.03434473353,-0.1048218046
2.53,-0.03877806575,-0.1030003392
2.54,-0.04311503864,-0.1009903689
2.55,-0.04734756738,-0.09879707279
2.56,-0.05146785439,-0.0964259805
2.57,-0.0554684047,-0.09388295596
2.58,-0.0593420404,-0.09117417994
2.59,-0.06308191397,-0.0883061321
2.6,-0.06668152062,-0.0852855726
2.61,-0.07013470947,-0.08211952305
2.62,-0.07343569369,-0.07881524719
2.63,-0.07657905949,-0.0753802311
2.64,-0.07955977399,-0.07182216321
2.65,-0.08237319196,-0.06814891402
2.66,-0.08501506145,-0.06436851573
2.67,-0.08748152824,-0.06048914172
2.68,-0.08976913923,-0.05651908607
2.69,-0.09187484469,-0.05246674309
2.7,-0.0937959994,-0.04834058697
2.71,-0.09553036277,-0.04414915158
2.72,-0.09707609789,-0.03990101051
2.73,-0.0984317695,-0.0356047574
2.74,-0.09959634103,-0.03126898661
2.75,-0.1005691707,-0.02690227426
2.76,-0.1013500066,-0.02251315971
2.77,-0.101938981,-0.01811012758
2.78,-0.1023366036,-0.01370159024
2.79,-0.1025437543,-0.009295870873
2.8,-0.102561675,-0.004901187215
2.81,-0.1023919605,-0.0005256358508
2.82,-0.1020365495,0.003822822762
2.83,-0.1014977136,0.008136378584
2.84,-0.1007780474,0.01240738557
2.85,-0.09988045658,0.01662837447
2.86,-0.09880814672,0.02079206493
2.87,-0.09756461082,0.02489137674
2.88,-0.09615361693,0.02891944038
2.89,-0.09457919534,0.03286960671
2.9,-0.0928456255,0.03673545589
2.91,-0.09095742276,0.04051080556
2.92,-0.08891932491,0.04418971813
2.93,-0.08673627862,0.04776650742
2.94,-0.08441342587,0.05123574437
2.95,-0.08195609023,0.05459226215
2.96,-0.07936976327,0.05783116045
2.97,-0.07666009102,0.06094780901
2.98,-0.07383286045,0.06393785055
2.99,-0.0708939862,0.06679720291
3,-0.06784949739,0.06952206062
3.01,-0.0647055247,0.07210889576
3.02,-0.06146828762,0.07455445833
3.03,-0.05814408204,0.07685577588
3.04,-0.05473926807,0.07901015277
3.05,-0.05126025821,0.08101516882
3.06,-0.0477135058,0.08286867747
3.07,-0.04410549384,0.08456880358
3.08,-0.04044272425,0.08611394071
3.09,-0.03673170731,0.08750274809
3.1,-0.03297895173,0.08873414726
3.11,-0.02919095486,0.08980731828
3.12,-0.0253741935,0.09072169584
3.13,-0.02153511496,0.09147696491
3.14,-0.01768012857,0.09207305638
3.15,-0.0138155976,0.09251014236
3.16,-0.009947831493,0.09278863136
3.17,-0.006083078539,0.09290916341
3.18,-0.002227518878,0.09287260495
3.19,0.001612742125,0.09268004376
3.2,0.005431680178,0.09233278375
3.21,0.009223358023,0.09183233975
3.22,0.01298193109,0.09118043228
3.23,0.01670165284,0.09037898231
3.24,0.02037687987,0.08943010606
3.25,0.02400207672,0.08833610981
3.26,0.02757182045,0.08709948476
3.27,0.03108080502,0.08572290192
3.28,0.03452384541,0.08420920712
3.29,0.03789588167,0.08256141601
3.3,0.04119198264,0.08078270918
3.31,0.04440734971,0.07887642731
3.32,0.04753732033,0.07684606644
3.33,0.05057737148,0.07469527325
3.34,0.05352312298,0.07242784047
3.35,0.05637034083,0.07004770223
3.36,0.05911494042,0.0675589296
3.37,0.0617529897,0.06496572608
3.38,0.06428071237,0.06227242312
3.39,0.06669449101,0.0594834757
3.4,0.06899087019,0.05660345788
3.41,0.07116655967,0.05363705835
3.42,0.07321843745,0.05058907595
3.43,0.07514355303,0.04746441514
3.44,0.07693913048,0.04426808147
3.45,0.0786025717,0.04100517688
3.46,0.08013145962,0.03768089497
3.47,0.08152356135,0.0343005162
3.48,0.08277683151,0.03086940288
3.49,0.08388941537,0.02739299405
3.5,0.08485965214,0.02387680027
3.51,0.08568607813,0.02032639814
3.52,0.08636742999,0.0167474247
3.53,0.0869026478,0.01314557162
3.54,0.0872908782,0.009526579146
3.55,0.0875314774,0.005896229886
3.56,0.08762401411,0.002260342303
3.57,0.08756827234,-0.001375235995
3.58,0.08736425415,-0.005004635232
3.59,0.08701218213,-0.008621970677
3.6,0.08651250182,-0.01222135013
3.61,0.08586588387,-0.01579688163
3.62,0.085073226,-0.0193426815
3.63,0.08413565473,-0.02285288253
3.64,0.0830545268,-0.02632164251
3.65,0.08183143035,-0.02974315294
3.66,0.08046818577,-0.03311164804
3.67,0.07896684618,-0.0364214139
3.68,0.07732969754,-0.03966679792
3.69,0.07555925847,-0.04284221839
3.7,0.0736582795,-0.04594217427
3.71,0.07162974205,-0.04896125514
3.72,0.0694768568,-0.05189415126
3.73,0.06720306172,-0.05473566377
3.74,0.06481201954,-0.05748071495
3.75,0.0623076147,-0.06012435859
3.76,0.05969394983,-0.06266179034
3.77,0.05697534163,-0.06508835812
3.78,0.05415631625,-0.06739957242
3.79,0.05124160409,-0.06959111665
3.8,0.04823613405,-0.07165885731
3.81,0.04514502718,-0.07359885408
3.82,0.04197358977,-0.07540736969
3.83,0.03872730591,-0.07708087969
3.84,0.03541182937,-0.07861608188
3.85,0.03203297507,-0.0800099055
3.86,0.02859670982,-0.08125952014
3.87,0.02510914266,-0.08236234431
3.88,0.02157651453,-0.08331605352
3.89,0.01800518757,-0.08411858809
3.9,0.01440163373,-0.08476816036
3.91,0.01077242308,-0.08526326154
3.92,0.007124211515,-0.08560266792
3.93,0.003463728121,-0.0857854466
3.94,-0.0002022379371,-0.08581096059
3.95,-0.003866850866,-0.08567887328
3.96,-0.007523242054,-0.0853891523
3.97,-0.0111645242,-0.08494207269
3.98,-0.0147838057,-0.08433821934
3.99,-0.01837420532,-0.08357848875
4,-0.02192886698,-0.08266409
4.01,-0.02544097483,-0.08159654502
4.02,-0.02890376829,-0.08037768801
4.03,-0.03231055727,-0.07900966415
4.04,-0.03565473738,-0.07749492744
4.05,-0.03892980514,-0.07583623777
4.06,-0.04212937307,-0.0740366572
4.07,-0.04524718472,-0.07209954535
4.08,-0.04827712955,-0.07002855409
4.09,-0.05121325754,-0.06782762132
4.1,-0.0540497936,-0.06550096402
4.11,-0.05678115163,-0.0630530705
4.12,-0.05940194832,-0.06048869184
4.13,-0.06190701642,-0.0578128326
4.14,-0.06429141768,-0.0550307408
4.15,-0.06655045525,-0.0521478972
4.16,-0.06867968558,-0.04917000381
4.17,-0.07067492974,-0.04610297184
4.18,-0.07253228408,-0.04295290892
4.19,-0.07424813037,-0.03972610584
4.2,-0.0758191451,-0.03642902259
4.21,-0.07724230817,-0.03306827398
4.22,-0.0785149108,-0.02965061474
4.23,-0.07963456264,-0.02618292414
4.24,-0.08059919812,-0.02267219028
4.25,-0.0814070819,-0.01912549399
4.26,-0.08205681355,-0.0155499924
4.27,-0.08254733129,-0.01195290231
4.28,-0.08287791493,-0.008341483271
4.29,-0.08304818776,-0.004723020617
4.3,-0.08305811774,-0.001104808285
4.31,-0.08290801759,0.002505868361
4.32,-0.08259854409,0.006101749722
4.33,-0.08213069639,0.009675619105
4.34,-0.08150581344,0.01322031977
4.35,-0.08072557051,0.01672877179
4.36,-0.07979197484,0.02019398878
4.37,-0.07870736032,0.02360909427
4.38,-0.07747438142,0.02696733784
4.39,-0.07609600619,0.03026211088
4.4,-0.07457550845,0.03348696194
4.41,-0.07291645924,0.03663561164
4.42,-0.07112271735,0.03970196707
4.43,-0.0691984193,0.04268013568
4.44,-0.06714796845,0.04556443855
4.45,-0.06497602352,0.04834942308
4.46,-0.06268748644,0.05102987504
4.47,-0.06028748958,0.05360082983
4.48,-0.05778138253,0.05605758318
4.49,-0.05517471819,0.05839570096
4.5,-0.05247323857,0.06061102827
4.51,-0.04968286,0.0626996978
4.52,-0.04680965815,0.0646581372
4.53,-0.04385985254,0.06648307582
4.54,-0.04083979086,0.06817155041
4.55,-0.0377559331,0.06972091012
4.56,-0.03461483542,0.07112882049
4.57,-0.03142313392,0.07239326666
4.58,-0.02818752838,0.07351255567
4.59,-0.02491476588,0.07448531788
4.6,-0.02161162454,0.0753105075
4.61,-0.01828489728,0.0759874023
4.62,-0.01494137567,0.0765156024
4.63,-0.01158783407,0.07689502828
4.64,-0.008231013806,0.07712591791
4.65,-0.004877607801,0.07720882311
4.66,-0.00153424535,0.0771446051
4.67,0.001792522658,0.07693442925
4.68,0.005096238175,0.0765797592
4.69,0.008370549982,0.0760823501
4.7,0.01160922722,0.07544424133
4.71,0.01480617244,0.0746677485
4.72,0.01795543406,0.07375545478
4.73,0.02105121837,0.07271020178
4.74,0.02408790081,0.07153507975
4.75,0.02706003679,0.07023341739
4.76,0.02996237172,0.06880877109
4.77,0.03278985049,0.06726491386
4.78,0.03553762624,0.06560582378
4.79,0.03820106844,0.06383567214
4.8,0.0407757703,0.06195881133
4.81,0.04325755538,0.0599797624
4.82,0.04564248365,0.05790320244
4.83,0.04792685664,0.05573395183
4.84,0.05010722203,0.05347696128
4.85,0.05218037741,0.05113729888
4.86,0.05414337341,0.04872013701
4.87,0.05599351606,0.04623073933
4.88,0.05772836847,0.04367444778
4.89,0.05934575187,0.04105666964
4.9,0.06084374588,0.03838286468
4.91,0.06222068823,0.03565853259
4.92,0.06347517378,0.0328892004
4.93,0.06460605289,0.0300804103
4.94,0.06561242928,0.02723770758
4.95,0.06649365727,0.02436662894
4.96,0.06724933843,0.02147269105
4.97,0.06787931778,0.01856137947
4.98,0.06838367943,0.01563813793
4.99,0.06876274181,0.01270835799
5,0.06901705241,0.009777369068
5.01,0.06914738213,0.006850428949
5.02,0.06915471928,0.003932714672
5.03,0.06904026317,0.001029313886
5.04,0.06880541747,-0.001854783333
5.05,0.06845178319,-0.004714692208
5.06,0.06798115149,-0.007545640505
5.07,0.06739549624,-0.0103429753
5.08,0.06669696636,-0.01310216928
5.09,0.06588787807,-0.01581882651
5.1,0.06497070693,-0.01848868782
5.11,0.06394807989,-0.02110763559
5.12,0.06282276714,-0.02367169818
5.13,0.06159767403,-0.0261770538
5.14,0.0602758329,-0.02862003401
5.15,0.05886039502,-0.03099712669
5.16,0.05735462241,-0.03330497862
5.17,0.0557618799,-0.0355403977
5.18,0.05408562712,-0.0377003546
5.19,0.0523294107,-0.03978198421
5.2,0.05049685653,-0.04178258657
5.21,0.04859166217,-0.04369962752
5.22,0.04661758945,-0.04553073899
5.23,0.04457845717,-0.04727371896
5.24,0.04247813408,-0.04892653114
5.25,0.04032053195,-0.05048730437
5.26,0.0381095989,-0.05195433171
5.27,0.03584931294,-0.05332606939
5.28,0.03354367571,-0.05460113541
5.29,0.03119670643,-0.05577830807
5.3,0.02881243611,-0.05685652421
5.31,0.02639490194,-0.05783487738
5.32,0.02394814195,-0.05871261578
5.33,0.02147618982,-0.05948914018
5.34,0.01898307004,-0.06016400163
5.35,0.01647279312,-0.06073689916
5.36,0.01394935112,-0.06120767734
5.37,0.01141671339,-0.06157632388
5.38,0.008878822439,-0.06184296709
5.39,0.006339590011,-0.06200787335
5.4,0.003802893392,-0.06207144459
5.41,0.001272571816,-0.06203421571
5.42,-0.00124757693,-0.06189685207
5.43,-0.003753799771,-0.06166014692
5.44,-0.006242391473,-0.06132501891
5.45,-0.008709697646,-0.0608925096
5.46,-0.01115211764,-0.06036378101
5.47,-0.01356610734,-0.05974011318
5.48,-0.01594818188,-0.05902290181
5.49,-0.01829491828,-0.05821365591
5.5,-0.02060295802,-0.05731399551
5.51,-0.02286900958,-0.05632564935
5.52,-0.02508985091,-0.05525045267
5.53,-0.02726233188,-0.054090345
5.54,-0.02938337677,-0.05284736801
5.55,-0.03144998665,-0.05152366329
5.56,-0.03345924183,-0.05012147024
5.57,-0.03540830432,-0.04864312392
5.58,-0.03729442023,-0.04709105294
5.59,-0.03911492232,-0.04546777723
5.6,-0.04086723244,-0.04377590592
5.61,-0.04254886408,-0.04201813512
5.62,-0.04415742492,-0.04019724567
5.63,-0.04569061943,-0.0383161008
5.64,-0.04714625151,-0.03637764383
5.65,-0.0485222271,-0.03438489568
5.66,-0.04981655694,-0.03234095233
5.67,-0.05102735922,-0.03024898224
5.68,-0.05215286234,-0.0281122236
5.69,-0.05319140769,-0.02593398145
5.7,-0.05414145238,-0.02371762471
5.71,-0.05500157204,-0.02146658311
5.72,-0.05577046358,-0.01918434383
5.73,-0.05644694791,-0.01687444817
5.74,-0.0570299727,-0.01454048787
5.75,-0.05751861504,-0.01218610143
5.76,-0.05791208407,-0.009814970128
5.77,-0.05820972359,-0.00743081389
5.78,-0.05841101449,-0.005037387017
5.79,-0.0585155772,-0.002638473667
5.8,-0.05852317397,-0.0002378831718
5.81,-0.05843371099,0.002160554843
5.82,-0.05824724051,0.004552995529
5.83,-0.05796396263,0.006935584076
5.84,-0.05758422704,0.009304461153
5.85,-0.05710853453,0.01165576855
5.86,-0.0565375383,0.01398565495
5.87,-0.05587204504,0.01629028194
5.88,-0.05511301579,0.01856583012
5.89,-0.05426156655,0.02080850537
5.9,-0.05331896859,0.02301454531
5.91,-0.05228664853,0.02518022581
5.92,-0.0511661881,0.02730186765
5.93,-0.04995932356,0.02937584329
5.94,-0.04866794485,0.0313985837
5.95,-0.04729409441,0.03336658528
5.96,-0.04583996561,0.03527641676
5.97,-0.04430790088,0.03712472624
5.98,-0.04270038946,0.03890824811
5.99,-0.04102006477,0.04062381007
6,-0.03926970144,0.04226834004
