"Freq [GHz]","re(S(Tx_p1,Tx_p1)) []","im(S(Tx_p1,Tx_p1)) []"
1,-0.01198373854,-0.05305516895
1.01,-0.01387303953,-0.05245484033
1.02,-0.01574098753,-0.05178274629
1.03,-0.01758429242,-0.05103956877
1.04,-0.01939970613,-0.05022616433
1.05,-0.02118403138,-0.04934356014
1.06,-0.02293413013,-0.04839294953
1.07,-0.02464693168,-0.04737568732
1.08,-0.02631944051,-0.04629328473
1.09,-0.0279487438,-0.04514740405
1.1,-0.02953201853,-0.04393985295
1.11,-0.03106653833,-0.04267257858
1.12,-0.0325496799,-0.04134766134
1.13,-0.03397892913,-0.03996730848
1.14,-0.03535188674,-0.03853384738
1.15,-0.03666627367,-0.03704971875
1.16,-0.03791993593,-0.03551746949
1.17,-0.03911084918,-0.03393974551
1.18,-0.04023712286,-0.03231928433
1.19,-0.04129700385,-0.03065890757
1.2,-0.04228887984,-0.02896151332
1.21,-0.04321128221,-0.02723006844
1.22,-0.04406288848,-0.02546760076
1.23,-0.04484252446,-0.02367719129
1.24,-0.0455491658,-0.02186196628
1.25,-0.04618193935,-0.02002508945
1.26,-0.04674012393,-0.01816975405
1.27,-0.0472231508,-0.01629917508
1.28,-0.04763060369,-0.01441658148
1.29,-0.04796221848,-0.01252520844
1.3,-0.04821788241,-0.0106282898
1.31,-0.04839763301,-0.008729050482
1.32,-0.04850165661,-0.006830699161
1.33,-0.0485302865,-0.004936420976
1.34,-0.0484840007,-0.00304937046
1.35,-0.04836341949,-0.001172664622
1.36,-0.04816930251,0.0006906237767
1.37,-0.04790254562,0.002537472739
1.38,-0.04756417738,0.004364917333
1.39,-0.04715535534,0.006170055761
1.4,-0.046677362,0.007950055179
1.41,-0.04613160048,0.009702157264
1.42,-0.04551959003,0.01142368351
1.43,-0.04484296125,0.01311204025
1.44,-0.04410345113,0.01476472341
1.45,-0.04330289788,0.01637932289
1.46,-0.04244323559,0.01795352678
1.47,-0.04152648872,0.01948512514
1.48,-0.04055476648,0.02097201352
1.49,-0.03953025703,0.02241219619
1.5,-0.03845522165,0.02380378898
1.51,-0.03733198872,0.02514502184
1.52,-0.03616294773,0.0264342411
1.53,-0.03495054316,0.02766991133
1.54,-0.03369726836,0.02885061693
1.55,-0.03240565941,0.0299750634
1.56,-0.03107828894,0.03104207825
1.57,-0.02971776005,0.0320506116
1.58,-0.02832670012,0.03299973648
1.59,-0.02690775484,0.03388864884
1.6,-0.02546358214,0.03471666719
1.61,-0.02399684632,0.03548323197
1.62,-0.02251021218,0.03618790467
1.63,-0.02100633936,0.03683036662
1.64,-0.01948787668,0.03741041748
1.65,-0.01795745671,0.03792797356
1.66,-0.01641769047,0.03838306575
1.67,-0.01487116222,0.03877583731
1.68,-0.01332042453,0.03910654141
1.69,-0.01176799344,0.03937553838
1.7,-0.01021634386,0.0395832928
1.71,-0.00866790515,0.03973037039
1.72,-0.007125056917,0.03981743473
1.73,-0.005590125033,0.03984524372
1.74,-0.004065377866,0.03981464598
1.75,-0.002553022744,0.03972657707
1.76,-0.001055202656,0.03958205552
1.77,0.0004260068063,0.03938217885
1.78,0.001888600265,0.03912811936
1.79,0.003330645129,0.03882111996
1.8,0.004750283912,0.0384624898
1.81,0.006145736309,0.03805359991
1.82,0.007515301016,0.0375958788
1.83,0.008857357301,0.03709080797
1.84,0.01017036633,0.03653991743
1.85,0.01145287223,0.03594478124
1.86,0.01270350296,0.03530701301
1.87,0.01392097083,0.03462826143
1.88,0.01510407293,0.03391020588
1.89,0.01625169119,0.03315455201
1.9,0.01736279231,0.03236302743
1.91,0.0184364274,0.03153737747
1.92,0.01947173148,0.03067936098
1.93,0.02046792265,0.02979074626
1.94,0.02142430123,0.02887330708
1.95,0.02234024854,0.02792881883
1.96,0.02321522559,0.02695905473
1.97,0.0240487716,0.02596578224
1.98,0.02484050231,0.02495075959
1.99,0.02559010816,0.02391573241
2,0.0262973523,0.02286243058
2.01,0.02696206851,0.02179256519
2.02,0.02758415898,0.02070782567
2.03,0.02816359193,0.01960987714
2.04,0.02870039919,0.01850035783
2.05,0.02919467366,0.01738087678
2.06,0.02964656671,0.01625301168
2.07,0.03005628546,0.01511830685
2.08,0.03042409007,0.01397827149
2.09,0.03075029095,0.01283437803
2.1,0.03103524594,0.01168806069
2.11,0.03127935745,0.0105407143
2.12,0.03148306962,0.009393693145
2.13,0.03164686549,0.008248310147
2.14,0.03177126409,0.007105836129
2.15,0.03185681767,0.005967499294
2.16,0.03190410889,0.004834484859
2.17,0.03191374804,0.003707934867
2.18,0.03188637038,0.002588948157
2.19,0.03182263343,0.00147858049
2.2,0.03172321445,0.0003778448271
2.21,0.03158880791,-0.0007122882422
2.22,0.03142012307,-0.00179088994
2.23,0.03121788163,-0.002857072602
2.24,0.03098281556,-0.003909988864
2.25,0.03071566489,-0.004948830718
2.26,0.03041717575,-0.005972828476
2.27,0.03008809848,-0.00698124962
2.28,0.02972918578,-0.007973397573
2.29,0.02934119112,-0.008948610376
2.3,0.02892486721,-0.009906259299
2.31,0.02848096453,-0.01084574739
2.32,0.02801023017,-0.01176650796
2.33,0.02751340662,-0.01266800302
2.34,0.02699123083,-0.01354972173
2.35,0.02644443334,-0.01441117871
2.36,0.02587373755,-0.01525191248
2.37,0.02527985917,-0.01607148378
2.38,0.02466350575,-0.01686947391
2.39,0.0240253764,-0.01764548316
2.4,0.02336616161,-0.01839912913
2.41,0.02268654318,-0.01913004522
2.42,0.02198719433,-0.01983787901
2.43,0.02126877989,-0.02052229082
2.44,0.02053195662,-0.02118295224
2.45,0.01977737366,-0.02181954475
2.46,0.01900567304,-0.02243175838
2.47,0.01821749039,-0.02301929052
2.48,0.01741345559,-0.02358184469
2.49,0.0165941937,-0.02411912955
2.5,0.0157603258,-0.02463085784
2.51,0.01491247003,-0.02511674555
2.52,0.01405124264,-0.02557651115
2.53,0.01317725908,-0.0260098749
2.54,0.01229113522,-0.02641655828
2.55,0.01139348855,-0.0267962836
2.56,0.01048493944,-0.02714877363
2.57,0.009566112418,-0.02747375143
2.58,0.008637637471,-0.02777094023
2.59,0.00770015138,-0.02804006354
2.6,0.006754299019,-0.02828084524
2.61,0.005800734671,-0.02849300993
2.62,0.004840123324,-0.02867628328
2.63,0.003873141939,-0.02883039264
2.64,0.002900480691,-0.02895506764
2.65,0.001922844164,-0.02905004096
2.66,0.0009409524992,-0.02911504927
2.67,-4.445751378E-05,-0.02914983416
2.68,-0.001032631415,-0.0291541433
2.69,-0.002022796121,-0.02912773163
2.7,-0.003014159054,-0.02907036268
2.71,-0.004005907363,-0.02898180995
2.72,-0.00499720723,-0.02886185846
2.73,-0.005987203286,-0.02871030625
2.74,-0.00697501813,-0.02852696609
2.75,-0.007959751962,-0.02831166718
2.76,-0.008940482334,-0.02806425694
2.77,-0.009916264023,-0.02778460282
2.78,-0.01088612903,-0.02747259423
2.79,-0.01184908671,-0.02712814441
2.8,-0.01280412404,-0.02675119243
2.81,-0.01375020602,-0.02634170511
2.82,-0.01468627623,-0.02589967906
2.83,-0.01561125748,-0.02542514264
2.84,-0.01652405266,-0.02491815791
2.85,-0.01742354572,-0.02437882268
2.86,-0.01830860274,-0.02380727237
2.87,-0.01917807323,-0.02320368198
2.88,-0.02003079149,-0.02256826792
2.89,-0.02086557819,-0.02190128985
2.9,-0.021681242,-0.02120305244
2.91,-0.02247658141,-0.02047390701
2.92,-0.0232503867,-0.01971425322
2.93,-0.02400144199,-0.01892454049
2.94,-0.02472852743,-0.01810526951
2.95,-0.02543042152,-0.01725699351
2.96,-0.02610590355,-0.01638031947
2.97,-0.02675375612,-0.01547590924
2.98,-0.02737276777,-0.01454448046
2.99,-0.02796173574,-0.01358680738
3,-0.02851946879,-0.0126037216
3.01,-0.02904479005,-0.01159611252
3.02,-0.02953654007,-0.0105649278
3.03,-0.02999357979,-0.009511173529
3.04,-0.03041479367,-0.008435914296
3.05,-0.0307990928,-0.007340273087
3.06,-0.0311454181,-0.006225430993
3.07,-0.0314527435,-0.005092626748
3.08,-0.03172007918,-0.003943156095
3.09,-0.03194647476,-0.002778370959
3.1,-0.03213102255,-0.001599678447
3.11,-0.03227286073,-0.0004085396549
3.12,-0.03237117656,0.0007935317022
3.13,-0.03242520952,0.002004970853
3.14,-0.03243425438,0.00322416371
3.15,-0.0323976643,0.004449448802
3.16,-0.03231485376,0.005679119375
3.17,-0.03218530147,0.006911425689
3.18,-0.03200855323,0.008144577475
3.19,-0.03178422455,0.009376746575
3.2,-0.03151200337,0.01060606975
3.21,-0.03119165246,0.01183065163
3.22,-0.0308230118,0.01304856789
3.23,-0.03040600084,0.01425786847
3.24,-0.02994062052,0.01545658103
3.25,-0.02942695523,0.01664271452
3.26,-0.02886517455,0.01781426287
3.27,-0.02825553483,0.0189692088
3.28,-0.0275983806,0.02010552778
3.29,-0.02689414577,0.02122119205
3.3,-0.02614335467,0.02231417476
3.31,-0.02534662284,0.02338245419
3.32,-0.02450465768,0.02442401808
3.33,-0.02361825883,0.02543686797
3.34,-0.02268831835,0.02641902363
3.35,-0.02171582069,0.02736852753
3.36,-0.02070184244,0.02828344936
3.37,-0.01964755181,0.0291618905
3.38,-0.01855420794,0.03000198862
3.39,-0.01742315995,0.03080192216
3.4,-0.01625584572,0.03155991486
3.41,-0.01505379054,0.03227424024
3.42,-0.01381860538,0.03294322607
3.43,-0.01255198506,0.03356525876
3.44,-0.01125570615,0.03413878765
3.45,-0.009931624574,0.03466232934
3.46,-0.008581673082,0.0351344718
3.47,-0.007207858456,0.03555387847
3.48,-0.005812258494,0.03591929219
3.49,-0.004397018793,0.03622953907
3.5,-0.002964349319,0.03648353213
3.51,-0.001516520779,0.0366802749
3.52,-5.586078911E-05,0.03681886478
3.53,0.001415250134,0.03689849627
3.54,0.002894382771,0.03691846401
3.55,0.004379063567,0.03687816564
3.56,0.005866779157,0.03677710444
3.57,0.007354981051,0.03661489178
3.58,0.00884109046,0.03639124937
3.59,0.01032250325,0.03610601124
3.6,0.01179659504,0.03575912552
3.61,0.01326072637,0.03535065598
3.62,0.014712248,0.03488078332
3.63,0.0161485063,0.03434980619
3.64,0.01756684869,0.03375814197
3.65,0.01896462915,0.03310632733
3.66,0.0203392138,0.03239501842
3.67,0.02168798649,0.03162499091
3.68,0.02300835439,0.03079713964
3.69,0.02429775369,0.02991247813
3.7,0.02555365515,0.02897213768
3.71,0.02677356976,0.02797736631
3.72,0.02795505427,0.02692952734
3.73,0.02909571676,0.02583009772
3.74,0.03019322205,0.02468066614
3.75,0.03124529716,0.02348293078
3.76,0.03224973654,0.02223869686
3.77,0.03320440735,0.02094987391
3.78,0.03410725445,0.01961847276
3.79,0.03495630546,0.01824660228
3.8,0.03574967551,0.01683646592
3.81,0.03648557192,0.01539035793
3.82,0.03716229871,0.01391065939
3.83,0.03777826091,0.01239983404
3.84,0.03833196868,0.01086042383
3.85,0.03882204125,0.009295044277
3.86,0.03924721064,0.007706379658
3.87,0.03960632514,0.006097177978
3.88,0.03989835258,0.004470245766
3.89,0.04012238336,0.002828442704
3.9,0.04027763317,0.0011746761
3.91,0.04036344559,-0.0004881047835
3.92,0.04037929426,-0.002156914537
3.93,0.04032478489,-0.003828737528
3.94,0.04019965692,-0.005500533931
3.95,0.04000378499,-0.00716924585
3.96,0.03973717999,-0.008831803524
3.97,0.03939998994,-0.01048513159
3.98,0.0389925005,-0.0121261554
3.99,0.03851513518,-0.01375180738
4,0.03796845529,-0.01535903338
4.01,0.03735315957,-0.01694479911
4.02,0.03667008346,-0.01850609644
4.03,0.03592019817,-0.02003994979
4.04,0.03510460937,-0.02154342244
4.05,0.03422455558,-0.02301362275
4.06,0.03328140633,-0.02444771042
4.07,0.03227665989,-0.0258429025
4.08,0.03121194089,-0.02719647947
4.09,0.03008899749,-0.02850579112
4.1,0.02890969835,-0.02976826229
4.11,0.02767602928,-0.03098139854
4.12,0.02639008972,-0.03214279162
4.13,0.02505408879,-0.03325012474
4.14,0.02367034125,-0.03430117778
4.15,0.02224126309,-0.03529383214
4.16,0.02076936699,-0.03622607555
4.17,0.01925725745,-0.03709600658
4.18,0.01770762579,-0.03790183889
4.19,0.0161232449,-0.03864190534
4.2,0.01450696381,-0.03931466181
4.21,0.01286170203,-0.03991869069
4.22,0.01119044385,-0.04045270426
4.23,0.009496232314,-0.04091554765
4.24,0.007782163194,-0.04130620161
4.25,0.006051378741,-0.04162378495
4.26,0.004307061369,-0.04186755671
4.27,0.002552427225,-0.042036918
4.28,0.0007907196637,-0.04213141361
4.29,-0.0009747973369,-0.04215073319
4.3,-0.002740845825,-0.04209471227
4.31,-0.004504140567,-0.0419633328
4.32,-0.006261395761,-0.04175672353
4.33,-0.008009331767,-0.04147515998
4.34,-0.009744681833,-0.04111906412
4.35,-0.0114641988,-0.04068900374
4.36,-0.01316466178,-0.04018569148
4.37,-0.01484288278,-0.03960998359
4.38,-0.01649571324,-0.03896287834
4.39,-0.01812005054,-0.03824551413
4.4,-0.0197128444,-0.03745916733
4.41,-0.02127110312,-0.03660524978
4.42,-0.02279189975,-0.03568530602
4.43,-0.02427237814,-0.03470101021
4.44,-0.02570975876,-0.03365416284
4.45,-0.02710134447,-0.03254668707
4.46,-0.028444526,-0.03138062485
4.47,-0.02973678733,-0.03015813284
4.48,-0.0309757108,-0.028881478
4.49,-0.0321589821,-0.02755303297
4.5,-0.03328439492,-0.02617527126
4.51,-0.03434985546,-0.0247507622
4.52,-0.03535338668,-0.02328216567
4.53,-0.03629313224,-0.02177222666
4.54,-0.03716736028,-0.02022376969
4.55,-0.03797446683,-0.01863969296
4.56,-0.03871297902,-0.01702296249
4.57,-0.03938155794,-0.01537660596
4.58,-0.03997900131,-0.01370370661
4.59,-0.04050424574,-0.01200739682
4.6,-0.04095636875,-0.01029085181
4.61,-0.04133459054,-0.008557283084
4.62,-0.04163827532,-0.006809931891
4.63,-0.04186693247,-0.005052062629
4.64,-0.0420202173,-0.003286956188
4.65,-0.04209793155,-0.001517903287
4.66,-0.04210002353,0.0002518022026
4.67,-0.042026588,0.002018869929
4.68,-0.04187786571,0.003780019705
4.69,-0.04165424263,0.00553198812
4.7,-0.04135624891,0.007271535101
4.71,-0.04098455745,0.008995450407
4.72,-0.04053998232,0.01070056005
4.73,-0.04002347673,0.0123837326
4.74,-0.0394361308,0.01404188542
4.75,-0.03877916903,0.01567199076
4.76,-0.0380539475,0.0172710817
4.77,-0.03726195078,0.01883625797
4.78,-0.0364047886,0.02036469164
4.79,-0.03548419222,0.02185363254
4.8,-0.03450201068,0.02330041363
4.81,-0.03346020664,0.02470245606
4.82,-0.03236085213,0.02605727412
4.83,-0.03120612405,0.02736247989
4.84,-0.02999829942,0.02861578774
4.85,-0.02873975052,0.02981501858
4.86,-0.02743293976,0.03095810383
4.87,-0.02608041445,0.03204308916
4.88,-0.0246848014,0.03306813804
4.89,-0.02324880135,0.03403153494
4.9,-0.02177518328,0.0349316883
4.91,-0.02026677862,0.03576713321
4.92,-0.01872647533,0.03653653388
4.93,-0.01715721191,0.03723868572
4.94,-0.01556197134,0.03787251722
4.95,-0.0139437749,0.03843709153
4.96,-0.01230567602,0.03893160772
4.97,-0.01065075402,0.03935540176
4.98,-0.008982107911,0.03970794723
4.99,-0.007302850073,0.03998885576
5,-0.005616100053,0.04019787709
5.01,-0.003924978313,0.04033489894
5.02,-0.002232600032,0.04039994653
5.03,-0.0005420689496,0.04039318188
5.04,0.00114352873,0.04031490276
5.05,0.002821130366,0.04016554139
5.06,0.004487702818,0.03994566292
5.07,0.006140248295,0.03965596355
5.08,0.00777581009,0.03929726845
5.09,0.009391478197,0.03887052944
5.1,0.01098439479,0.03837682238
5.11,0.01255175959,0.03781734433
5.12,0.014090835,0.03719341048
5.13,0.01559895119,0.0365064509
5.14,0.01707351091,0.03575800699
5.15,0.01851199419,0.0349497278
5.16,0.01991196279,0.03408336611
5.17,0.02127106447,0.03316077434
5.18,0.02258703713,0.03218390029
5.19,0.02385771259,0.03115478269
5.2,0.02508102027,0.03007554661
5.21,0.02625499058,0.02894839877
5.22,0.02737775812,0.02777562259
5.23,0.02844756461,0.02655957328
5.24,0.02946276157,0.02530267273
5.25,0.03042181281,0.02400740429
5.26,0.0313232966,0.02267630749
5.27,0.03216590764,0.02131197275
5.28,0.03294845875,0.01991703589
5.29,0.03366988234,0.01849417272
5.3,0.03432923154,0.01704609352
5.31,0.0349256812,0.01557553754
5.32,0.03545852854,0.01408526744
5.33,0.03592719353,0.01257806378
5.34,0.03633121915,0.01105671947
5.35,0.03667027121,0.009524034297
5.36,0.03694413808,0.007982809434
5.37,0.0371527301,0.006435842046
5.38,0.03729607875,0.004885919909
5.39,0.03737433561,0.003335816124
5.4,0.03738777104,0.001788283899
5.41,0.03733677269,0.0002460514223
5.42,0.03722184376,-0.001288183166
5.43,0.03704360103,-0.00281175669
5.44,0.03680277269,-0.004322045744
5.45,0.03650019597,-0.005816471361
5.46,0.0361368146,-0.007292503554
5.47,0.03571367601,-0.008747665713
5.48,0.03523192842,-0.01017953884
5.49,0.03469281775,-0.01158576565
5.5,0.03409768431,-0.01296405446
5.51,0.03344795939,-0.01431218296
5.52,0.03274516169,-0.01562800179
5.53,0.03199089361,-0.01690943789
5.54,0.03118683741,-0.01815449772
5.55,0.03033475124,-0.01936127025
5.56,0.0294364651,-0.02052792978
5.57,0.02849387669,-0.02165273853
5.58,0.02750894711,-0.02273404905
5.59,0.02648369657,-0.02377030638
5.6,0.02542020002,-0.02476005011
5.61,0.02432058261,-0.02570191607
5.62,0.0231870153,-0.02659463795
5.63,0.02202171022,-0.0274370486
5.64,0.02082691618,-0.02822808125
5.65,0.01960491405,-0.02896677035
5.66,0.01835801215,-0.02965225234
5.67,0.01708854171,-0.03028376613
5.68,0.01579885226,-0.03086065344
5.69,0.01449130707,-0.03138235884
5.7,0.01316827863,-0.03184842967
5.71,0.01183214417,-0.03225851574
5.72,0.01048528122,-0.03261236881
5.73,0.009130063191,-0.03290984189
5.74,0.007768855115,-0.03315088836
5.75,0.006404009357,-0.0333355609
5.76,0.005037861469,-0.03346401024
5.77,0.003672726106,-0.03353648373
5.78,0.002310893054,-0.03355332376
5.79,0.000954623348,-0.03351496601
5.8,-0.0003938544968,-0.03342193751
5.81,-0.001732348137,-0.0332748546
5.82,-0.003058704933,-0.03307442076
5.83,-0.004370815358,-0.03282142419
5.84,-0.005666616268,-0.03251673543
5.85,-0.006944094048,-0.03216130469
5.86,-0.008201287599,-0.03175615921
5.87,-0.009436291203,-0.03130240039
5.88,-0.01064725722,-0.03080120092
5.89,-0.01183239866,-0.03025380172
5.9,-0.01298999154,-0.02966150892
5.91,-0.0141183772,-0.02902569062
5.92,-0.01521596432,-0.02834777371
5.93,-0.01628123089,-0.02762924053
5.94,-0.01731272597,-0.02687162553
5.95,-0.01830907126,-0.02607651189
5.96,-0.01926896261,-0.02524552807
5.97,-0.02019117123,-0.02438034433
5.98,-0.02107454486,-0.02348266927
5.99,-0.0219180087,-0.02255424631
6,-0.02272056623,-0.02159685019
