"Freq [GHz]","re(S(Tx_p1,Tx_p1)) []","im(S(Tx_p1,Tx_p1)) []"
1,-0.003109888921,-0.003002647611
1.01,-0.003197932245,-0.002855616062
1.02,-0.003279167323,-0.002706836697
1.03,-0.003353623878,-0.002556653213
1.04,-0.003421352351,-0.002405400638
1.05,-0.003482422853,-0.002253403936
1.06,-0.003536924026,-0.00210097672
1.07,-0.003584961821,-0.001948420077
1.08,-0.003626658211,-0.001796021504
1.09,-0.003662149834,-0.001644053962
1.1,-0.003691586592,-0.001492775055
1.11,-0.003715130195,-0.001342426325
1.12,-0.003732952687,-0.001193232679
1.13,-0.003745234934,-0.001045401944
1.14,-0.003752165111,-0.0008991245367
1.15,-0.003753937175,-0.0007545732746
1.16,-0.003750749354,-0.0006119033007
1.17,-0.003742802643,-0.000471252137
1.18,-0.003730299329,-0.0003327398569
1.19,-0.003713441554,-0.0001964693748
1.2,-0.003692429911,-6.252685E-05
1.21,-0.003667462102,6.901780044E-05
1.22,-0.003638731647,0.0001981102853
1.23,-0.003606426664,0.0003247112238
1.24,-0.003570728725,0.0004487953379
1.25,-0.003531811784,0.0005703505592
1.26,-0.003489841204,0.0006893770572
1.27,-0.003444972864,0.0008058861958
1.28,-0.003397352371,0.0009198994272
1.29,-0.003347114372,0.00103144713
1.3,-0.003294381966,0.001140567403
1.31,-0.003239266231,0.001247304814
1.32,-0.003181865856,0.001351709129
1.33,-0.003122266886,0.001453834014
1.34,-0.003060542581,0.001553735729
1.35,-0.002996753388,0.001651471814
1.36,-0.002930947022,0.001747099792
1.37,-0.00286315866,0.001840675878
1.38,-0.002793411251,0.001932253717
1.39,-0.002721715921,0.002021883151
1.4,-0.002648072492,0.002109609037
1.41,-0.002572470097,0.002195470101
1.42,-0.002494887891,0.002279497859
1.43,-0.002415295854,0.0023617156
1.44,-0.002333655681,0.002442137439
1.45,-0.002249921748,0.002520767453
1.46,-0.002164042151,0.002597598895
1.47,-0.002075959821,0.0026726135
1.48,-0.001985613682,0.002745780893
1.49,-0.001892939876,0.002817058087
1.5,-0.001797873021,0.002886389088
1.51,-0.001700347508,0.002953704609
1.52,-0.001600298826,0.003018921894
1.53,-0.001497664904,0.003081944645
1.54,-0.001392387462,0.003142663074
1.55,-0.001284413362,0.003200954063
1.56,-0.001173695953,0.00325668143
1.57,-0.001060196396,0.003309696326
1.58,-0.0009438849658,0.003359837725
1.59,-0.0008247423166,0.003406933034
1.6,-0.000702760703,0.003450798811
1.61,-0.000577945152,0.003491241577
1.62,-0.0004503145742,0.003528058743
1.63,-0.0003199028073,0.003561039618
1.64,-0.0001867595853,0.003589966515
1.65,-5.095142505E-05,0.003614615942
1.66,8.743757492E-05,0.003634759871
1.67,0.000228305031,0.003650167077
1.68,0.0003715296713,0.003660604544
1.69,0.0005169708381,0.003665838929
1.7,0.0006644681003,0.003665638075
1.71,0.0008138409807,0.003659772567
1.72,0.0009648888006,0.003648017319
1.73,0.001117390645,0.003630153188
1.74,0.001271105449,0.003605968601
1.75,0.001425772213,0.003575261188
1.76,0.001581110336,0.003537839418
1.77,0.001736820083,0.003493524215
1.78,0.001892583164,0.003442150558
1.79,0.002048063453,0.003383569048
1.8,0.002202907816,0.003317647436
1.81,0.002356747061,0.003244272102
1.82,0.00250919701,0.003163349477
1.83,0.002659859675,0.003074807395
1.84,0.002808324547,0.002978596379
1.85,0.002954169984,0.002874690832
1.86,0.003096964704,0.002763090149
1.87,0.003236269356,0.002643819721
1.88,0.003371638188,0.002516931845
1.89,0.003502620783,0.002382506514
1.9,0.003628763871,0.002240652091
1.91,0.003749613198,0.002091505868
1.92,0.003864715447,0.00193523449
1.93,0.003973620209,0.00177203425
1.94,0.004075881983,0.001602131252
1.95,0.0041710622,0.001425781431
1.96,0.004258731274,0.001243270435
1.97,0.004338470645,0.001054913372
1.98,0.004409874826,0.000861054399
1.99,0.004472553438,0.0006620661872
2,0.004526133214,0.0004583492285
2.01,0.004570259975,0.0002503310104
2.02,0.004604600564,3.84650484E-05
2.03,0.004628844719,-0.000176770218
2.04,0.00464270689,-0.0003948726623
2.05,0.00464592798,-0.0006153178383
2.06,0.00463827701,-0.0008375604717
2.07,0.004619552684,-0.001061036071
2.08,0.004589584865,-0.001285162656
2.09,0.004548235938,-0.001509342586
2.1,0.004495402062,-0.001732964497
2.11,0.004431014299,-0.001955405329
2.12,0.004355039616,-0.002176032436
2.13,0.00426748175,-0.002394205775
2.14,0.004168381935,-0.002609280161
2.15,0.004057819488,-0.002820607587
2.16,0.003935912236,-0.003027539581
2.17,0.003802816802,-0.003229429614
2.18,0.003658728727,-0.003425635526
2.19,0.003503882439,-0.003615521984
2.2,0.003338551057,-0.003798462933
2.21,0.003163046043,-0.003973844055
2.22,0.002977716682,-0.00414106521
2.23,0.002782949417,-0.004299542853
2.24,0.002579167009,-0.004448712421
2.25,0.002366827552,-0.004588030667
2.26,0.002146423333,-0.004716977944
2.27,0.001918479532,-0.004835060421
2.28,0.001683552791,-0.004941812224
2.29,0.001442229625,-0.005036797486
2.3,0.001195124713,-0.005119612315
2.31,0.0009428790427,-0.005189886637
2.32,0.0006861579491,-0.005247285947
2.33,0.0004256490216,-0.005291512925
2.34,0.000162059913,-0.005322308928
2.35,-0.0001038839558,-0.005339455346
2.36,-0.0003714417803,-0.005342774812
2.37,-0.0006398598399,-0.005332132269
2.38,-0.0009083740364,-0.005307435876
2.39,-0.001176212495,-0.00526863776
2.4,-0.001442598219,-0.005215734599
2.41,-0.001706751781,-0.00514876805
2.42,-0.001967894047,-0.00506782499
2.43,-0.002225248925,-0.0049730376
2.44,-0.002478046112,-0.004864583272
2.45,-0.002725523844,-0.00474268434
2.46,-0.002966931632,-0.004607607641
2.47,-0.003201532971,-0.004459663901
2.48,-0.003428608013,-0.004299206955
2.49,-0.003647456192,-0.004126632795
2.5,-0.003857398792,-0.00394237845
2.51,-0.004057781446,-0.003746920717
2.52,-0.00424797655,-0.003540774718
2.53,-0.004427385601,-0.003324492322
2.54,-0.004595441419,-0.003098660411
2.55,-0.004751610276,-0.002863899009
2.56,-0.004895393898,-0.002620859281
2.57,-0.005026331344,-0.002370221408
2.58,-0.005144000755,-0.002112692341
2.59,-0.005248020958,-0.001849003453
2.6,-0.005338052925,-0.001579908088
2.61,-0.005413801075,-0.001306179026
2.62,-0.005475014425,-0.001028605865
2.63,-0.005521487568,-0.0007479923355
2.64,-0.00555306149,-0.0004651535575
2.65,-0.00556962421,-0.0001809132504
2.66,-0.005571111251,0.000103899094
2.67,-0.005557505932,0.0003884510631
2.68,-0.005528839483,0.0006719101889
2.69,-0.005485190985,0.0009534468158
2.7,-0.005426687127,0.001232236959
2.71,-0.005353501792,0.001507465145
2.72,-0.005265855463,0.001778327216
2.73,-0.005164014464,0.002044033095
2.74,-0.00504829002,0.0023038095
2.75,-0.004919037165,0.002556902588
2.76,-0.004776653477,0.002802580529
2.77,-0.004621577666,0.003040135994
2.78,-0.004454288006,0.003268888549
2.79,-0.004275300629,0.003488186949
2.8,-0.004085167676,0.003697411311
2.81,-0.003884475323,0.003895975176
2.82,-0.003673841688,0.004083327441
2.83,-0.00345391462,0.004258954147
2.84,-0.003225369389,0.004422380138
2.85,-0.002988906281,0.00457317056
2.86,-0.002745248108,0.004710932212
2.87,-0.002495137643,0.004835314742
2.88,-0.002239334996,0.004946011668
2.89,-0.001978614928,0.005042761248
2.9,-0.001713764133,0.005125347171
2.91,-0.001445578481,0.005193599082
2.92,-0.001174860242,0.005247392931
2.93,-0.0009024153002,0.005286651154
2.94,-0.0006290503731,0.005311342679
2.95,-0.000355570238,0.00532148276
2.96,-8.277498435E-05,0.005317132641
2.97,0.0001885427008,0.005298399057
2.98,0.0004576002025,0.005265433559
2.99,0.0007236275937,0.005218431693
3,0.0009858701861,0.005157632005
3.01,0.001243591007,0.005083314911
3.02,0.001496073191,0.004995801409
3.03,0.001742622286,0.00489545165
3.04,0.001982568445,0.004782663387
3.05,0.002215268525,0.00465787028
3.06,0.00244010806,0.004521540098
3.07,0.002656503113,0.0043741728
3.08,0.002863901995,0.004216298516
3.09,0.003061786862,0.004048475435
3.1,0.003249675151,0.003871287608
3.11,0.003427120891,0.003685342675
3.12,0.003593715851,0.003491269528
3.13,0.003749090546,0.003289715917
3.14,0.00389291508,0.00308134601
3.15,0.004024899837,0.00286683792
3.16,0.004144796014,0.002646881204
3.17,0.004252395999,0.002422174351
3.18,0.004347533578,0.002193422255
3.19,0.004430084004,0.00196133371
3.2,0.004499963891,0.001726618905
3.21,0.004557130968,0.001489986952
3.22,0.004601583674,0.001252143445
3.23,0.004633360609,0.001013788069
3.24,0.004652539837,0.0007756122544
3.25,0.004659238057,0.0005382969008
3.26,0.004653609628,0.0003025101663
3.27,0.004635845477,6.89053386E-05
3.28,0.004606171879,-0.0001618812093
3.29,0.004564849116,-0.0003892319688
3.3,0.004512170036,-0.0006125501456
3.31,0.004448458502,-0.0008312614032
3.32,0.004374067754,-0.001044815494
3.33,0.004289378673,-0.001252687774
3.34,0.004194797983,-0.001454380593
3.35,0.004090756369,-0.001649424564
3.36,0.003977706541,-0.001837379695
3.37,0.003856121245,-0.002017836402
3.38,0.003726491231,-0.00219041637
3.39,0.003589323188,-0.002354773297
3.4,0.003445137648,-0.002510593485
3.41,0.003294466885,-0.002657596306
3.42,0.003137852799,-0.002795534523
3.43,0.002975844804,-0.002924194479
3.44,0.002808997727,-0.003043396154
3.45,0.002637869728,-0.003152993077
3.46,0.002463020248,-0.003252872128
3.47,0.002285007989,-0.003342953193
3.48,0.002104388946,-0.003423188709
3.49,0.001921714485,-0.003493563085
3.5,0.001737529477,-0.003554092009
3.51,0.001552370509,-0.003604821644
3.52,0.001366764157,-0.003645827722
3.53,0.001181225341,-0.003677214539
3.54,0.0009962557652,-0.00369911386
3.55,0.0008123424468,-0.003711683731
3.56,0.0006299563378,-0.003715107226
3.57,0.0004495510464,-0.003709591105
3.58,0.0002715616587,-0.003695364423
3.59,9.640366653E-05,-0.003672677073
3.6,-7.552799811E-05,-0.003641798283
3.61,-0.0002438598185,-0.003603015071
3.62,-0.0004082404378,-0.003556630665
3.63,-0.0005683412916,-0.003502962899
3.64,-0.000723857128,-0.003442342585
3.65,-0.0008745064149,-0.003375111886
3.66,-0.001020031636,-0.003301622673
3.67,-0.001160199478,-0.003222234895
3.68,-0.001294800901,-0.003137314956
3.69,-0.001423651115,-0.003047234116
3.7,-0.001546589442,-0.002952366915
3.71,-0.001663479076,-0.002853089631
3.72,-0.001774206756,-0.002749778775
3.73,-0.001878682334,-0.002642809635
3.74,-0.001976838258,-0.00253255487
3.75,-0.00206862897,-0.00241938316
3.76,-0.002154030224,-0.002303657916
3.77,-0.002233038331,-0.002185736065
3.78,-0.00230566933,-0.002065966894
3.79,-0.002371958097,-0.001944690975
3.8,-0.002431957406,-0.001822239173
3.81,-0.002485736922,-0.00169893172
3.82,-0.002533382161,-0.001575077393
3.83,-0.002574993413,-0.001450972759
3.84,-0.002610684621,-0.001326901515
3.85,-0.002640582247,-0.001203133922
3.86,-0.002664824114,-0.001079926315
3.87,-0.002683558233,-0.0009575207131
3.88,-0.002696941627,-0.0008361445109
3.89,-0.002705139156,-0.0007160102631
3.9,-0.00270832235,-0.0005973155522
3.91,-0.002706668246,-0.0004802429426
3.92,-0.002700358257,-0.0003649600172
3.93,-0.002689577052,-0.0002516194953
3.94,-0.002674511477,-0.0001403594269
3.95,-0.002655349502,-3.13034625E-05
3.96,-0.002632279217,7.543880663E-05
3.97,-0.002605487862,0.0001797714413
3.98,-0.002575160915,0.000281611684
3.99,-0.002541481229,0.0003808894305
4,-0.002504628223,0.000477546647
4.01,-0.002464777138,0.0005715367393
4.02,-0.002422098354,0.0006628238769
4.03,-0.002376756765,0.0007513822798
4.04,-0.002328911232,0.000837195471
4.05,-0.002278714097,0.0009202555015
4.06,-0.002226310768,0.001000562153
4.07,-0.002171839377,0.001078122124
4.08,-0.002115430506,0.001152948204
4.09,-0.002057206987,0.001225058441
4.1,-0.00199728377,0.001294475314
4.11,-0.001935767859,0.001361224901
4.12,-0.001872758324,0.00142533607
4.13,-0.00180834637,0.00148683967
4.14,-0.001742615478,0.00154576776
4.15,-0.001675641605,0.001602152846
4.16,-0.001607493448,0.001656027164
4.17,-0.001538232758,0.001707421982
4.18,-0.001467914715,0.001756366954
4.19,-0.001396588347,0.001802889506
4.2,-0.001324297004,0.001847014272
4.21,-0.001251078859,0.001888762578
4.22,-0.001176967469,0.001928151979
4.23,-0.001101992345,0.001965195847
4.24,-0.001026179574,0.001999903021
4.25,-0.0009495524481,0.002032277506
4.26,-0.0008721321236,0.002062318242
4.27,-0.0007939382897,0.002090018928
4.28,-0.0007149898494,0.002115367906
4.29,-0.0006353056039,0.002138348112
4.3,-0.0005549049375,0.002158937087
4.31,-0.0004738084976,0.002177107045
4.32,-0.0003920388644,0.002192825009
4.33,-0.000309621206,0.002206052999
4.34,-0.0002265839146,0.002216748286
4.35,-0.0001429592182,0.002224863693
4.36,-5.878376479E-05,0.002230347962
4.37,2.590082624E-05,0.002233146158
4.38,0.000111047449,0.002233200135
4.39,0.0001966030361,0.00223044904
4.4,0.0002825081268,0.002224829863
4.41,0.0003686964827,0.002216278023
4.42,0.0004550947528,0.002204727993
4.43,0.0005416221908,0.002190113953
4.44,0.0006281904277,0.002172370471
4.45,0.0007147033007,0.002151433206
4.46,0.0008010567408,0.002127239631
4.47,0.0008871387208,0.002099729769
4.48,0.000972829263,0.002068846934
4.49,0.00105800051,0.002034538481
4.5,0.001142516854,0.001996756558
4.51,0.001226235136,0.001955458841
4.52,0.001309004894,0.00191060927
4.53,0.001390668684,0.001862178769
4.54,0.001471062451,0.001810145939
4.55,0.001550015968,0.001754497736
4.56,0.001627353318,0.001695230113
4.57,0.001702893447,0.001632348636
4.58,0.001776450754,0.001565869057
4.59,0.001847835736,0.001495817849
4.6,0.001916855683,0.001422232699
4.61,0.001983315412,0.001345162946
4.62,0.002047018036,0.001264669972
4.63,0.002107765779,0.001180827543
4.64,0.002165360815,0.001093722079
4.65,0.002219606136,0.00100345288
4.66,0.002270306446,0.0009101322803
4.67,0.002317269071,0.0008138857413
4.68,0.002360304884,0.0007148518802
4.69,0.00239922924,0.0006131824315
4.7,0.002433862916,0.0005090421407
4.71,0.002464033047,0.0004026085913
4.72,0.002489574067,0.0002940719625
4.73,0.002510328624,0.0001836347201
4.74,0.002526148498,7.151123969E-05
4.75,0.002536895485,-4.207263639E-05
4.76,0.002542442267,-0.0001568801075
4.77,0.002542673245,-0.0002726639867
4.78,0.002537485342,-0.0003891673341
4.79,0.00252678877,-0.0005061241503
4.8,0.002510507752,-0.0006232601267
4.81,0.002488581195,-0.0007402934494
4.82,0.00246096332,-0.0008569356554
4.83,0.002427624229,-0.0009728925351
4.84,0.002388550425,-0.00108786508
4.85,0.002343745259,-0.001201550471
4.86,0.002293229325,-0.001313643099
4.87,0.002237040784,-0.001423835625
4.88,0.002175235613,-0.001531820059
4.89,0.002107887798,-0.001637288867
4.9,0.002035089444,-0.001739936097
4.91,0.001956950809,-0.001839458511
4.92,0.001873600275,-0.001935556733
4.93,0.001785184233,-0.002027936396
4.94,0.0016918669,-0.002116309288
4.95,0.00159383005,-0.002200394492
4.96,0.001491272684,-0.002279919509
4.97,0.001384410611,-0.00235462137
4.98,0.001273475966,-0.002424247724
4.99,0.00115871665,-0.002488557894
5,0.001040395701,-0.002547323905
5.01,0.000918790599,-0.002600331477
5.02,0.0007941924978,-0.002647380971
5.03,0.0006669054027,-0.002688288294
5.04,0.0005372452813,-0.00272288575
5.05,0.0004055391191,-0.002751022838
5.06,0.0002721239212,-0.002772566994
5.07,0.0001373456649,-0.002787404267
5.08,1.55820502E-06,-0.002795439937
5.09,-0.0001348778609,-0.002796599052
5.1,-0.0002715963658,-0.002790826913
5.11,-0.0004082267778,-0.002778089465
5.12,-0.0005443954336,-0.00275837363
5.13,-0.000679726794,-0.002731687549
5.14,-0.0008138447172,-0.002698060759
5.15,-0.0009463737457,-0.002657544272
5.16,-0.001076940399,-0.002610210593
5.17,-0.00120517447,-0.002556153642
5.18,-0.001330710318,-0.002495488597
5.19,-0.001453188151,-0.002428351664
5.2,-0.0015722553,-0.002354899757
5.21,-0.001687567466,-0.002275310101
5.22,-0.001798789953,-0.002189779759
5.23,-0.00190559886,-0.002098525076
5.24,-0.002007682253,-0.002001781058
5.25,-0.002104741285,-0.001899800667
5.26,-0.00219649128,-0.001792854052
5.27,-0.002282662767,-0.001681227711
5.28,-0.002363002463,-0.001565223591
5.29,-0.002437274197,-0.001445158125
5.3,-0.002505259775,-0.001321361209
5.31,-0.002566759784,-0.001194175133
5.32,-0.002621594322,-0.001063953455
5.33,-0.002669603668,-0.0009310598375
5.34,-0.002710648867,-0.0007958668399
5.35,-0.002744612252,-0.0006587546741
5.36,-0.002771397877,-0.0005201099333
5.37,-0.002790931881,-0.000380324293
5.38,-0.002803162763,-0.0002397931924
5.39,-0.002808061579,-9.891449957E-05
5.4,-0.002805622058,4.191283207E-05
5.41,-0.002795860628,0.000182290113
5.42,-0.002778816369,0.000321820266
5.43,-0.002754550872,0.0004601091681
5.44,-0.002723148023,0.0005967669825
5.45,-0.002684713704,0.0007314094728
5.46,-0.00263937541,0.000863659297
5.47,-0.002587281791,0.000993147274
5.48,-0.002528602118,0.001119513619
5.49,-0.00246352567,0.001242409142
5.5,-0.002392261051,0.001361496407
5.51,-0.002315035442,0.001476450846
5.52,-0.002232093777,0.001586961818
5.53,-0.002143697867,0.001692733624
5.54,-0.002050125456,0.001793486455
5.55,-0.00195166923,0.001888957285
5.56,-0.001848635764,0.0019789007
5.57,-0.001741344431,0.002063089654
5.58,-0.001630126268,0.002141316161
5.59,-0.001515322794,0.002213391912
5.6,-0.001397284809,0.002279148817
5.61,-0.001276371153,0.002338439472
5.62,-0.001152947446,0.002391137546
5.63,-0.001027384812,0.002437138094
5.64,-0.0009000585819,0.002476357782
5.65,-0.0007713469987,0.002508735038
5.66,-0.000641629909,0.002534230121
5.67,-0.0005112874632,0.002552825109
5.68,-0.0003806988202,0.002564523806
5.69,-0.0002502408643,0.002569351571
5.7,-0.0001202869392,0.002567355072
5.71,8.794395998E-06,0.002558601957
5.72,0.0001366405851,0.002543180456
5.73,0.0002628962608,0.002521198909
5.74,0.0003872143964,0.002492785219
5.75,0.0005092574165,0.002458086244
5.76,0.0006286982651,0.002417267124
5.77,0.0007452214246,0.002370510535
5.78,0.0008585238844,0.002318015904
5.79,0.0009683160546,0.002259998548
5.8,0.001074322621,0.002196688782
5.81,0.001176283341,0.002128330962
5.82,0.001273953772,0.002055182499
5.83,0.001367105942,0.001977512826
5.84,0.001455528941,0.001895602337
5.85,0.001539029453,0.001809741287
5.86,0.001617432213,0.001720228681
5.87,0.00169058039,0.001627371127
5.88,0.0017583359,0.001531481684
5.89,0.001820579642,0.001432878697
5.9,0.001877211667,0.001331884621
5.91,0.001928151263,0.001228824851
5.92,0.00197333698,0.00112402655
5.93,0.002012726566,0.001017817482
5.94,0.002046296849,0.0009105248682
5.95,0.002074043534,0.0008024742484
5.96,0.002095980944,0.0006939883704
5.97,0.00211214168,0.0005853861026
5.98,0.002122576231,0.0004769813765
5.99,0.002127352512,0.0003690821622
6,0.002126555346,0.000261989482
