"Freq [GHz]","re(S(Tx_p1,Tx_p1)) []","im(S(Tx_p1,Tx_p1)) []"
1,0.006063953557,-0.1683133078
1.01,0.0008997995542,-0.1680269925
1.02,-0.004260260255,-0.1675847272
1.03,-0.00941031666,-0.1669861338
1.04,-0.01454450751,-0.1662311334
1.05,-0.01965703114,-0.165319935
1.06,-0.02474215879,-0.1642530235
1.07,-0.02979424601,-0.163031148
1.08,-0.0348077431,-0.1616553096
1.09,-0.03977720454,-0.1601267493
1.1,-0.04469729743,-0.1584469355
1.11,-0.04956280909,-0.1566175517
1.12,-0.05436865356,-0.1546404845
1.13,-0.05910987738,-0.1525178113
1.14,-0.06378166434,-0.1502517879
1.15,-0.06837933947,-0.1478448373
1.16,-0.07289837217,-0.1452995374
1.17,-0.07733437857,-0.1426186099
1.18,-0.0816831231,-0.1398049093
1.19,-0.0859405194,-0.1368614121
1.2,-0.09010263052,-0.1337912063
1.21,-0.09416566846,-0.1305974816
1.22,-0.09812599318,-0.1272835199
1.23,-0.101980111,-0.1238526864
1.24,-0.1057246725,-0.1203084207
1.25,-0.10935647,-0.1166542294
1.26,-0.1128724346,-0.1128936779
1.27,-0.116269633,-0.1090303843
1.28,-0.1195452635,-0.1050680125
1.29,-0.1226966526,-0.1010102667
1.3,-0.1257212505,-0.09686088617
1.31,-0.128616627,-0.09262364064
1.32,-0.1313804672,-0.08830232642
1.33,-0.1340105666,-0.08390076289
1.34,-0.1365048274,-0.07942278973
1.35,-0.1388612532,-0.07487226463
1.36,-0.1410779452,-0.07025306158
1.37,-0.1431530976,-0.0655690697
1.38,-0.1450849937,-0.06082419258
1.39,-0.1468720018,-0.05602234811
1.4,-0.1485125717,-0.05116746877
1.41,-0.1500052311,-0.04626350242
1.42,-0.1513485827,-0.0413144134
1.43,-0.1525413013,-0.03632418413
1.44,-0.1535821315,-0.03129681693
1.45,-0.1544698855,-0.02623633625
1.46,-0.1552034418,-0.02114679115
1.47,-0.1557817441,-0.01603225794
1.48,-0.1562038003,-0.01089684312
1.49,-0.1564686827,-0.005744686407
1.5,-0.1565755279,-0.0005799638443
1.51,-0.156523538,0.004593108953
1.52,-0.1563119816,0.009770273597
1.53,-0.1559401958,0.01494722573
1.54,-0.1554075883,0.02011961187
1.55,-0.1547136406,0.02528302647
1.56,-0.1538579109,0.03043300898
1.57,-0.1528400378,0.03556504126
1.58,-0.1516597453,0.04067454515
1.59,-0.1503168465,0.04575688039
1.6,-0.1488112496,0.05080734277
1.61,-0.1471429628,0.05582116278
1.62,-0.1453121008,0.06079350456
1.63,-0.1433188905,0.06571946531
1.64,-0.141163678,0.07059407522
1.65,-0.1388469355,0.07541229785
1.66,-0.1363692683,0.08016903108
1.67,-0.133731422,0.0848591086
1.68,-0.1309342905,0.08947730198
1.69,-0.1279789231,0.09401832337
1.7,-0.1248665328,0.0984768288
1.71,-0.1215985036,0.1028474221
1.72,-0.1181763989,0.1071246597
1.73,-0.1146019683,0.1113030553
1.74,-0.1108771564,0.1153770867
1.75,-0.1070041092,0.1193412016
1.76,-0.1029851821,0.123189825
1.77,-0.09882294671,0.1269173677
1.78,-0.09452019756,0.1305182338
1.79,-0.09007995853,0.1339868311
1.8,-0.08550548887,0.1373175799
1.81,-0.08080028872,0.1405049241
1.82,-0.07596810419,0.1435433419
1.83,-0.07101293188,0.1464273575
1.84,-0.06593902285,0.149151553
1.85,-0.06075088592,0.1517105816
1.86,-0.05545329033,0.1540991798
1.87,-0.05005126768,0.1563121817
1.88,-0.04455011319,0.1583445324
1.89,-0.0389553861,0.1601913024
1.9,-0.03327290929,0.1618477022
1.91,-0.02750876812,0.163309097
1.92,-0.02166930836,0.1645710216
1.93,-0.0157611332,0.165629196
1.94,-0.009791099461,0.1664795399
1.95,-0.003766312774,0.1671181887
1.96,0.002305878092,0.1675415083
1.97,0.008417887883,0.1677461104
1.98,0.01456190245,0.1677288678
1.99,0.0207298873,0.1674869289
2,0.02691359708,0.1670177326
2.01,0.03310458599,0.1663190226
2.02,0.03929421919,0.1653888611
2.03,0.04547368505,0.1642256428
2.04,0.05163400836,0.1628281071
2.05,0.05776606441,0.1611953516
2.06,0.06386059388,0.1593268432
2.07,0.06990821865,0.1572224295
2.08,0.07589945834,0.1548823497
2.09,0.08182474764,0.1523072435
2.1,0.08767445434,0.1494981609
2.11,0.09343889809,0.1464565695
2.12,0.09910836974,0.1431843623
2.13,0.1046731513,0.1396838629
2.14,0.1101235366,0.1359578318
2.15,0.1154498518,0.1320094696
2.16,0.1206424775,0.1278424202
2.17,0.1256918698,0.1234607731
2.18,0.1305885829,0.1188690638
2.19,0.1353232912,0.1140722736
2.2,0.1398868118,0.1090758276
2.21,0.1442701273,0.1038855925
2.22,0.1484644081,0.09850787221
2.23,0.1524610355,0.09294940273
2.24,0.1562516237,0.08721734557
2.25,0.1598280426,0.0813192801
2.26,0.1631824399,0.07526319455
2.27,0.1663072627,0.06905747586
2.28,0.1691952791,0.06271089823
2.29,0.1718395991,0.05623261052
2.3,0.1742336952,0.04963212241
2.31,0.1763714222,0.04291928948
2.32,0.1782470365,0.03610429709
2.33,0.1798552145,0.02919764312
2.34,0.1811910703,0.02221011976
2.35,0.1822501729,0.01515279417
2.36,0.1830285617,0.008036988147
2.37,0.1835227615,0.0008742569481
2.38,0.1837297971,-0.006323632893
2.39,0.1836472051,-0.01354472651
2.4,0.1832730468,-0.02077690447
2.41,0.1826059178,-0.02800790722
2.42,0.1816449578,-0.03522536024
2.43,0.1803898587,-0.04241679977
2.44,0.1788408712,-0.04956969904
2.45,0.1769988103,-0.05667149499
2.46,0.1748650595,-0.06370961535
2.47,0.1724415732,-0.07067150605
2.48,0.1697308785,-0.07754465885
2.49,0.1667360743,-0.08431663914
2.5,0.1634608305,-0.09097511382
2.51,0.1599093845,-0.09750787916
2.52,0.156086537,-0.1039028886
2.53,0.151997646,-0.1101482805
2.54,0.1476486191,-0.1162324054
2.55,0.1430459056,-0.1221438532
2.56,0.1381964854,-0.1278714798
2.57,0.1331078579,-0.1334044337
2.58,0.127788029,-0.1387321811
2.59,0.1222454966,-0.1438445314
2.6,0.1164892354,-0.1487316616
2.61,0.1105286796,-0.1533841398
2.62,0.1043737048,-0.1577929479
2.63,0.09803460914,-0.1619495036
2.64,0.09152209237,-0.1658456815
2.65,0.08484723455,-0.1694738328
2.66,0.07802147342,-0.1728268039
2.67,0.07105658084,-0.1758979546
2.68,0.06396463839,-0.1786811741
2.69,0.05675801198,-0.1811708967
2.7,0.0494493258,-0.1833621151
2.71,0.04205143554,-0.1852503936
2.72,0.03457740087,-0.186831879
2.73,0.02704045747,-0.1881033106
2.74,0.01945398854,-0.1890620286
2.75,0.01183149584,-0.189705981
2.76,0.004186570454,-0.1900337289
2.77,-0.003467136703,-0.1900444509
2.78,-0.0111159446,-0.1897379453
2.79,-0.01874617185,-0.1891146309
2.8,-0.02634416652,-0.1881755468
2.81,-0.03389633582,-0.1869223501
2.82,-0.04138917571,-0.1853573126
2.83,-0.04880930025,-0.1834833154
2.84,-0.05614347059,-0.1813038423
2.85,-0.06337862367,-0.1788229722
2.86,-0.07050190039,-0.1760453694
2.87,-0.07750067322,-0.1729762729
2.88,-0.08436257328,-0.1696214836
2.89,-0.09107551666,-0.1659873517
2.9,-0.09762772998,-0.1620807609
2.91,-0.1040077752,-0.157909113
2.92,-0.1102045735,-0.15348031
2.93,-0.1162074282,-0.148802736
2.94,-0.1220060466,-0.1438852376
2.95,-0.127590561,-0.1387371028
2.96,-0.1329515484,-0.1333680401
2.97,-0.1380800489,-0.1277881554
2.98,-0.1429675833,-0.1220079289
2.99,-0.1476061693,-0.116038191
3,-0.151988336,-0.109890097
3.01,-0.1561071379,-0.103575102
3.02,-0.1599561666,-0.09710493456
3.03,-0.1635295619,-0.0904915702
3.04,-0.1668220213,-0.08374720432
3.05,-0.1698288078,-0.07688422483
3.06,-0.1725457567,-0.06991518452
3.07,-0.1749692807,-0.0628527732
3.08,-0.1770963735,-0.05570978976
3.09,-0.1789246126,-0.04849911418
3.1,-0.1804521596,-0.04123367955
3.11,-0.1816777603,-0.03392644424
3.12,-0.1826007421,-0.0265903642
3.13,-0.1832210117,-0.01923836561
3.14,-0.1835390495,-0.01188331778
3.15,-0.1835559044,-0.004538006438
3.16,-0.1832731859,0.002784892402
3.17,-0.1826930562,0.01007283817
3.18,-0.1818182202,0.01731345078
3.19,-0.1806519142,0.02449453507
3.2,-0.1791978947,0.03160410447
3.21,-0.1774604241,0.03863040391
3.22,-0.1754442577,0.04556193198
3.23,-0.1731546274,0.05238746205
3.24,-0.1705972261,0.05909606263
3.25,-0.1677781908,0.0656771167
3.26,-0.1647040841,0.07212033995
3.27,-0.1613818763,0.07841579817
3.28,-0.1578189255,0.08455392336
3.29,-0.1540229579,0.09052552887
3.3,-0.1500020469,0.09632182338
3.31,-0.1457645927,0.1019344237
3.32,-0.1413193,0.1073553665
3.33,-0.1366751566,0.1125771185
3.34,-0.1318414111,0.1175925864
3.35,-0.1268275501,0.1223951242
3.36,-0.1216432762,0.1269785407
3.37,-0.1162984847,0.1313371049
3.38,-0.110803241,0.1354655504
3.39,-0.1051677578,0.1393590794
3.4,-0.09940237248,0.1430133641
3.41,-0.09351752435,0.1464245482
3.42,-0.08752373246,0.1495892464
3.43,-0.08143157339,0.1525045439
3.44,-0.07525165949,0.1551679934
3.45,-0.06899461747,0.1575776121
3.46,-0.06267106741,0.1597318773
3.47,-0.05629160218,0.1616297212
3.48,-0.0498667675,0.1632705244
3.49,-0.04340704249,0.1646541088
3.5,-0.03692282079,0.1657807298
3.51,-0.03042439242,0.166651067
3.52,-0.02392192628,0.167266215
3.53,-0.01742545333,0.1676276727
3.54,-0.01094485054,0.1677373324
3.55,-0.004489825663,0.1675974684
3.56,0.001930097275,0.1672107242
3.57,0.00830559163,0.1665801003
3.58,0.01462754097,0.1657089405
3.59,0.02088705103,0.1646009186
3.6,0.0270754609,0.1632600241
3.61,0.03318435321,0.1616905482
3.62,0.03920556356,0.1598970689
3.63,0.04513118905,0.1578844363
3.64,0.05095359592,0.1556577575
3.65,0.05666542635,0.1532223819
3.66,0.06225960442,0.1505838856
3.67,0.06772934118,0.1477480568
3.68,0.07306813896,0.1447208801
3.69,0.0782697948,0.1415085219
3.7,0.08332840316,0.1381173156
3.71,0.08823835779,0.1345537464
3.72,0.09299435293,0.1308244372
3.73,0.0975913837,0.1269361345
3.74,0.1020247459,0.122895694
3.75,0.1062900351,0.118710067
3.76,0.1103831451,0.1143862876
3.77,0.1143002657,0.1099314593
3.78,0.1180378801,0.1053527428
3.79,0.1215927619,0.1006573436
3.8,0.1249619708,0.09585250094
3.81,0.128142849,0.09094547604
3.82,0.1311330167,0.0859435419
3.83,0.1339303665,0.080853973
3.84,0.1365330589,0.07568403565
3.85,0.1389395161,0.07044097894
3.86,0.1411484168,0.06513202611
3.87,0.1431586895,0.05976436652
3.88,0.1449695069,0.05434514814
3.89,0.1465802791,0.04888147051
3.9,0.1479906476,0.04338037828
3.91,0.1492004783,0.03784885529
3.92,0.1502098551,0.03229381903
3.93,0.1510190737,0.02672211573
3.94,0.1516286347,0.02114051584
3.95,0.1520392373,0.01555571004
3.96,0.1522517728,0.009974305583
3.97,0.1522673187,0.004402823191
3.98,0.1520871325,-0.001152305737
3.99,0.1517126457,-0.006684741508
4,0.1511454582,-0.01218823817
4.01,0.1503873326,-0.01765664521
4.02,0.1494401895,-0.02308390899
4.03,0.148306102,-0.02846407383
4.04,0.146987291,-0.03379128296
4.05,0.1454861212,-0.03905977916
4.06,0.1438050963,-0.04426390525
4.07,0.1419468557,-0.04939810447
4.08,0.1399141704,-0.05445692064
4.09,0.1377099401,-0.05943499832
4.1,0.13533719,-0.06432708286
4.11,0.1327990683,-0.06912802041
4.12,0.1300988435,-0.07383275795
4.13,0.1272399025,-0.07843634332
4.14,0.1242257485,-0.08293392531
4.15,0.1210599998,-0.08732075386
4.16,0.117746388,-0.09159218025
4.17,0.1142887571,-0.0957436576
4.18,0.1106910626,-0.09977074135
4.19,0.1069573706,-0.10366909
4.2,0.1030918575,-0.1074344659
4.21,0.09909880943,-0.1110627367
4.22,0.09498262217,-0.1145498763
4.23,0.09074780074,-0.1178919666
4.24,0.08639895948,-0.1210851995
4.25,0.08194082201,-0.1241258786
4.26,0.07737822121,-0.1270104219
4.27,0.07271609921,-0.1297353646
4.28,0.06795950739,-0.1322973613
4.29,0.06311360625,-0.1346931901
4.3,0.05818366526,-0.1369197555
4.31,0.05317506252,-0.1389740924
4.32,0.04809328437,-0.14085337
4.33,0.04294392474,-0.1425548964
4.34,0.03773268432,-0.1440761229
4.35,0.03246536957,-0.145414649
4.36,0.02714789132,-0.1465682274
4.37,0.02178626327,-0.147534769
4.38,0.01638660006,-0.148312349
4.39,0.01095511502,-0.1488992119
4.4,0.005498117644,-0.149293778
4.41,2.201060789E-05,-0.1494946486
4.42,-0.005466713572,-0.1495006127
4.43,-0.01096147629,-0.1493106527
4.44,-0.01645561701,-0.1489239509
4.45,-0.02194239794,-0.1483398958
4.46,-0.02741500903,-0.1475580879
4.47,-0.03286657357,-0.1465783464
4.48,-0.03829015414,-0.145400715
4.49,-0.04367875914,-0.1440254683
4.5,-0.04902534969,-0.1424531171
4.51,-0.05432284712,-0.1406844148
4.52,-0.05956414083,-0.1387203625
4.53,-0.06474209672,-0.1365622144
4.54,-0.06984956603,-0.134211483
4.55,-0.07487939462,-0.1316699436
4.56,-0.0798244328,-0.1289396386
4.57,-0.08467754546,-0.1260228818
4.58,-0.08943162272,-0.1229222619
4.59,-0.09407959095,-0.1196406453
4.6,-0.09861442413,-0.1161811794
4.61,-0.1030291556,-0.1125472941
4.62,-0.1073168904,-0.1087427039
4.63,-0.111470817,-0.1047714088
4.64,-0.1154842208,-0.1006376949
4.65,-0.1193504966,-0.0963461339
4.66,-0.1230631616,-0.09190158289
4.67,-0.1266158691,-0.08730918249
4.68,-0.1300024216,-0.0825743549
4.69,-0.1332167846,-0.07770280107
4.7,-0.1362531002,-0.07270049723
4.71,-0.1391057006,-0.0675736906
4.72,-0.1417691218,-0.06232889443
4.73,-0.1442381173,-0.05697288233
4.74,-0.1465076714,-0.05151268174
4.75,-0.1485730129,-0.04595556679
4.76,-0.1504296276,-0.0403090503
4.77,-0.152073272,-0.03458087507
4.78,-0.1534999854,-0.02877900445
4.79,-0.1547061023,-0.02291161216
4.8,-0.1556882646,-0.01698707133
4.81,-0.156443433,-0.01101394296
4.82,-0.1569688982,-0.005000963527
4.83,-0.1572622913,0.001042967953
4.84,-0.1573215941,0.007108803601
4.85,-0.1571451486,0.01318736094
4.86,-0.1567316657,0.0192693378
4.87,-0.1560802336,0.02534532773
4.88,-0.1551903253,0.03140583606
4.89,-0.1540618054,0.03744129639
4.9,-0.1526949362,0.04344208757
4.91,-0.151090383,0.04939855117
4.92,-0.1492492182,0.05530100926
4.93,-0.1471729257,0.06113978263
4.94,-0.1448634027,0.06690520928
4.95,-0.1423229621,0.07258766319
4.96,-0.1395543335,0.0781775733
4.97,-0.1365606628,0.08366544267
4.98,-0.1333455115,0.08904186778
4.99,-0.1299128547,0.0942975579
5,-0.1262670782,0.09942335444
5.01,-0.1224129751,0.1044102504
5.02,-0.11835574,0.1092494094
5.03,-0.1141009644,0.1139321852
5.04,-0.1096546289,0.1184501405
5.05,-0.105023096,0.1227950654
5.06,-0.1002131012,0.1269589962
5.07,-0.09523174374,0.1309342335
5.08,-0.09008647526,0.1347133595
5.09,-0.08478508896,0.1382892558
5.1,-0.0793357069,0.1416551196
5.11,-0.0737467668,0.1448044803
5.12,-0.06802700789,0.147731215
5.13,-0.06218545597,0.1504295637
5.14,-0.05623140768,0.1528941431
5.15,-0.05017441405,0.1551199606
5.16,-0.0440242632,0.1571024271
5.17,-0.03779096257,0.1588373688
5.18,-0.03148472029,0.1603210383
5.19,-0.02511592616,0.1615501253
5.2,-0.01869513188,0.1625217655
5.21,-0.01223303094,0.1632335493
5.22,-0.00574043799,0.1636835291
5.23,0.0007717322526,0.1638702259
5.24,0.007292486345,0.1637926345
5.25,0.01381077383,0.163450228
5.26,0.0203155092,0.1628429615
5.27,0.02679559397,0.1619712735
5.28,0.03323993905,0.1608360882
5.29,0.03963748699,0.1594388146
5.3,0.04597723446,0.1577813462
5.31,0.05224825454,0.1558660584
5.32,0.058439719,0.1536958057
5.33,0.06454092041,0.1512739172
5.34,0.07054129409,0.1486041916
5.35,0.07643043973,0.1456908901
5.36,0.08219814275,0.1425387296
5.37,0.08783439529,0.139152874
5.38,0.09332941679,0.1355389242
5.39,0.09867367404,0.1317029083
5.4,0.1038579008,0.1276512696
5.41,0.1088731167,0.1233908542
5.42,0.1137106457,0.1189288977
5.43,0.1183621338,0.1142730111
5.44,0.1228195661,0.1094311654
5.45,0.1270752829,0.1044116758
5.46,0.131121995,0.09922318524
5.47,0.1349527989,0.09387464663
5.48,0.1385611898,0.08837530508
5.49,0.1419410753,0.08273467905
5.5,0.1450867864,0.07696254107
5.51,0.1479930892,0.07106889786
5.52,0.1506551945,0.06506397006
5.53,0.153068767,0.05895817141
5.54,0.1552299329,0.05276208761
5.55,0.1571352874,0.04648645485
5.56,0.1587818999,0.04014213802
5.57,0.1601673192,0.03374010877
5.58,0.1612895772,0.02729142328
5.59,0.1621471912,0.02080720009
5.6,0.162739166,0.0142985977
5.61,0.1630649939,0.007776792289
5.62,0.1631246543,0.001252955435
5.63,0.1629186121,-0.005261768051
5.64,0.1624478147,-0.01175628212
5.65,0.1617136888,-0.01821956128
5.66,0.1607181348,-0.02464067211
5.67,0.1594635218,-0.03100879446
5.68,0.1579526801,-0.0373132423
5.69,0.1561888941,-0.04354348412
5.7,0.154175893,-0.04968916293
5.71,0.1519178415,-0.05574011565
5.72,0.1494193293,-0.06168639208
5.73,0.1466853596,-0.06751827314
5.74,0.1437213371,-0.0732262886
5.75,0.1405330549,-0.07880123408
5.76,0.1371266809,-0.08423418731
5.77,0.1335087433,-0.08951652375
5.78,0.129686116,-0.09463993136
5.79,0.1256660021,-0.09959642458
5.8,0.1214559185,-0.1043783576
5.81,0.1170636786,-0.1089784364
5.82,0.1124973754,-0.1133897308
5.83,0.1077653636,-0.1176056844
5.84,0.1028762416,-0.1216201245
5.85,0.09783883299,-0.1254272711
5.86,0.09266216821,-0.1290217445
5.87,0.08735546521,-0.132398572
5.88,0.08192811053,-0.1355531944
5.89,0.07638963997,-0.1384814707
5.9,0.07074971924,-0.1411796821
5.91,0.0650181245,-0.1436445355
5.92,0.059204723,-0.1458731655
5.93,0.05331945362,-0.1478631356
5.94,0.04737230765,-0.149612439
5.95,0.04137330956,-0.1511194977
5.96,0.03533249811,-0.1523831613
5.97,0.02925990748,-0.1534027046
5.98,0.02316554888,-0.1541778246
5.99,0.01705939226,-0.1547086368
6,0.0109513485,-0.1549956699
