"Freq [GHz]","re(S(Tx_p1,Tx_p1)) []","im(S(Tx_p1,Tx_p1)) []"
1,-0.0209444841,-0.2067457597
1.01,-0.02805169724,-0.2054806763
1.02,-0.0351259603,-0.2039572736
1.03,-0.04215573318,-0.2021756336
1.04,-0.04912950238,-0.2001364524
1.05,-0.05603581168,-0.1978410318
1.06,-0.06286329221,-0.1952912705
1.07,-0.06960069168,-0.1924896525
1.08,-0.07623690291,-0.1894392358
1.09,-0.08276099138,-0.1861436391
1.1,-0.08916222201,-0.182607028
1.11,-0.09543008498,-0.1788340999
1.12,-0.1015543206,-0.1748300675
1.13,-0.1075249429,-0.1706006422
1.14,-0.1133322632,-0.1661520159
1.15,-0.1189669107,-0.1614908422
1.16,-0.1244198542,-0.156624217
1.17,-0.1296824211,-0.1515596576
1.18,-0.1347463157,-0.1463050818
1.19,-0.1396036367,-0.1408687865
1.2,-0.1442468932,-0.1352594247
1.21,-0.1486690188,-0.129485983
1.22,-0.1528633863,-0.123557758
1.23,-0.1568238187,-0.1174843325
1.24,-0.1605446014,-0.1112755515
1.25,-0.1640204911,-0.1049414973
1.26,-0.1672467246,-0.09849246512
1.27,-0.1702190264,-0.09193893813
1.28,-0.1729336138,-0.08529156217
1.29,-0.1753872023,-0.07856112082
1.3,-0.1775770088,-0.07175851024
1.31,-0.1795007536,-0.06489471409
1.32,-0.1811566614,-0.05798077861
1.33,-0.1825434613,-0.05102778785
1.34,-0.1836603847,-0.04404683913
1.35,-0.1845071632,-0.03704901878
1.36,-0.1850840242,-0.03004537825
1.37,-0.1853916864,-0.02304691058
1.38,-0.1854313533,-0.01606452738
1.39,-0.1852047065,-0.009109036214
1.4,-0.1847138967,-0.00219111863
1.41,-0.1839615354,0.004678691282
1.42,-0.1829506839,0.01149002767
1.43,-0.1816848428,0.01823271303
1.44,-0.1801679395,0.02489677758
1.45,-0.1784043156,0.03147247788
1.46,-0.1763987133,0.03795031467
1.47,-0.1741562605,0.04432104989
1.48,-0.1716824564,0.05057572279
1.49,-0.1689831553,0.05670566522
1.5,-0.1660645499,0.06270251599
1.51,-0.1629331552,0.06855823426
1.52,-0.1595957902,0.07426511203
1.53,-0.1560595604,0.07981578564
1.54,-0.1523318394,0.08520324627
1.55,-0.1484202505,0.09042084946
1.56,-0.1443326472,0.09546232368
1.57,-0.1400770945,0.1003217778
1.58,-0.1356618494,0.1049937074
1.59,-0.1310953411,0.1094730008
1.6,-0.1263861518,0.1137549429
1.61,-0.1215429968,0.117835219
1.62,-0.1165747051,0.1217099172
1.63,-0.1114901996,0.1253755299
1.64,-0.1062984781,0.1288289543
1.65,-0.1010085934,0.132067492
1.66,-0.09562963497,0.1350888475
1.67,-0.09017070973,0.137891126
1.68,-0.08464092378,0.1404728302
1.69,-0.07904936422,0.1428328562
1.7,-0.07340508147,0.1449704885
1.71,-0.06771707197,0.1468853944
1.72,-0.06199426136,0.1485776173
1.73,-0.05624548821,0.1500475697
1.74,-0.05047948819,0.1512960249
1.75,-0.04470487891,0.1523241085
1.76,-0.03893014534,0.1531332889
1.77,-0.03316362579,0.1537253673
1.78,-0.02741349865,0.1541024677
1.79,-0.02168776971,0.154267025
1.8,-0.01599426028,0.1542217743
1.81,-0.01034059591,0.1539697382
1.82,-0.004734195907,0.1535142147
1.83,0.0008177363588,0.1528587646
1.84,0.006308222495,0.152007198
1.85,0.01173051728,0.1509635613
1.86,0.01707811614,0.1497321234
1.87,0.02234476177,0.1483173619
1.88,0.02752445011,0.1467239492
1.89,0.0326114354,0.1449567384
1.9,0.03760023455,0.1430207492
1.91,0.04248563075,0.1409211539
1.92,0.04726267625,0.138663263
1.93,0.05192669446,0.1362525115
1.94,0.05647328128,0.1336944446
1.95,0.06089830571,0.130994704
1.96,0.06519790977,0.1281590145
1.97,0.0693685077,0.1251931703
1.98,0.07340678452,0.1221030216
1.99,0.07730969392,0.1188944625
2,0.08107445555,0.1155734176
2.01,0.08469855169,0.1121458301
2.02,0.08817972338,0.1086176499
2.03,0.09151596593,0.1049948222
2.04,0.09470552401,0.1012832764
2.05,0.09774688621,0.09748891532
2.06,0.1006387791,0.09361760544
2.07,0.103380161,0.08967516694
2.08,0.1059702151,0.08566736469
2.09,0.1084083427,0.08159989961
2.1,0.1106941554,0.07747840062
2.11,0.1128274679,0.07330841705
2.12,0.1148082896,0.06909541169
2.13,0.116636817,0.06484475438
2.14,0.1183134249,0.0605617161
2.15,0.119838658,0.05625146375
2.16,0.1212132226,0.05191905539
2.17,0.1224379777,0.04756943611
2.18,0.1235139264,0.04320743445
2.19,0.1244422072,0.03883775937
2.2,0.125224085,0.03446499777
2.21,0.1258609432,0.03009361263
2.22,0.1263542744,0.02572794154
2.23,0.1267056723,0.02137219587
2.24,0.1269168236,0.01703046042
2.25,0.1269894995,0.01270669352
2.26,0.1269255483,0.00840472766
2.27,0.1267268874,0.004128270516
2.28,0.126395496,-0.0001190935401
2.29,0.125933408,-0.004333901549
2.3,0.1253427054,-0.008512809674
2.31,0.1246255113,-0.01265259055
2.32,0.1237839844,-0.0167501303
2.33,0.1228203128,-0.02080242521
2.34,0.1217367086,-0.02480657817
2.35,0.1205354032,-0.02875979481
2.36,0.1192186422,-0.03265937941
2.37,0.1177886819,-0.03650273067
2.38,0.1162477847,-0.04028733721
2.39,0.1145982163,-0.04401077302
2.4,0.1128422427,-0.04767069276
2.41,0.1109821276,-0.05126482695
2.42,0.1090201302,-0.05479097717
2.43,0.1069585039,-0.0582470112
2.44,0.104799495,-0.06163085819
2.45,0.1025453417,-0.0649405038
2.46,0.100198274,-0.06817398553
2.47,0.09776051379,-0.07132938805
2.48,0.09523427505,-0.07440483865
2.49,0.0926217649,-0.07739850291
2.5,0.08992518477,-0.08030858047
2.51,0.08714673197,-0.08313330104
2.52,0.08428860162,-0.08587092065
2.53,0.08135298892,-0.08851971807
2.54,0.07834209166,-0.09107799162
2.55,0.07525811312,-0.09354405614
2.56,0.07210326517,-0.09591624035
2.57,0.06887977157,-0.09819288452
2.58,0.0655898716,-0.1003723385
2.59,0.06223582381,-0.10245296
2.6,0.0588199099,-0.1044331133
2.61,0.05534443886,-0.1063111688
2.62,0.05181175111,-0.1080855016
2.63,0.04822422281,-0.1097544924
2.64,0.04458427013,-0.1113165271
2.65,0.04089435367,-0.112769998
2.66,0.03715698277,-0.1141133045
2.67,0.0333747199,-0.1153448548
2.68,0.02955018488,-0.1164630682
2.69,0.0256860591,-0.1174663766
2.7,0.02178508958,-0.1183532284
2.71,0.01785009294,-0.1191220905
2.72,0.0138839591,-0.1197714528
2.73,0.009889654928,-0.1202998314
2.74,0.005870227498,-0.1207057734
2.75,0.001828807242,-0.1209878613
2.76,-0.002231389266,-0.121144718
2.77,-0.006307056787,-0.1211750123
2.78,-0.01039479923,-0.1210774641
2.79,-0.0144911278,-0.1208508507
2.8,-0.01859245954,-0.1204940129
2.81,-0.02269511623,-0.1200058611
2.82,-0.02679532372,-0.1193853825
2.83,-0.03088921163,-0.1186316471
2.84,-0.0349728136,-0.1177438156
2.85,-0.03904206788,-0.1167211457
2.86,-0.04309281842,-0.1155629999
2.87,-0.04712081651,-0.1142688527
2.88,-0.05112172279,-0.1128382978
2.89,-0.05509110983,-0.1112710557
2.9,-0.0590244652,-0.1095669809
2.91,-0.06291719502,-0.1077260695
2.92,-0.06676462807,-0.1057484664
2.93,-0.07056202033,-0.1036344724
2.94,-0.07430456007,-0.1013845513
2.95,-0.07798737347,-0.09899933694
2.96,-0.08160553067,-0.09647963982
2.97,-0.08515405237,-0.0938264535
2.98,-0.08862791687,-0.09104096091
2.99,-0.0920220676,-0.08812454027
3,-0.09533142109,-0.0850787707
3.01,-0.09855087542,-0.08190543751
3.02,-0.1016753191,-0.07860653705
3.03,-0.1046996401,-0.07518428121
3.04,-0.1076187359,-0.0716411015
3.05,-0.1104275232,-0.06797965262
3.06,-0.1131209483,-0.06420281554
3.07,-0.1156939979,-0.06031370019
3.08,-0.1181417099,-0.05631564742
3.09,-0.1204591848,-0.05221223063
3.1,-0.1226415971,-0.04800725663
3.11,-0.124684207,-0.04370476606
3.12,-0.1265823721,-0.03930903313
3.13,-0.1283315597,-0.03482456473
3.14,-0.1299273585,-0.03025609897
3.15,-0.1313654911,-0.02560860302
3.16,-0.1326418263,-0.02088727029
3.17,-0.1337523907,-0.016097517
3.18,-0.1346933819,-0.01124497805
3.19,-0.1354611796,-0.006335502203
3.2,-0.1360523583,-0.001375146625
3.21,-0.1364636991,0.003629829257
3.22,-0.1366922009,0.008672970575
3.23,-0.1367350928,0.0137476345
3.24,-0.1365898442,0.01884699836
3.25,-0.1362541769,0.02396406848
3.26,-0.1357260747,0.02909168954
3.27,-0.1350037945,0.03422255468
3.28,-0.1340858755,0.03934921616
3.29,-0.1329711491,0.04446409659
3.3,-0.1316587473,0.0495595008
3.31,-0.1301481118,0.05462762824
3.32,-0.1284390014,0.05966058587
3.33,-0.1265314997,0.06465040161
3.34,-0.1244260216,0.06958903828
3.35,-0.1221233194,0.07446840794
3.36,-0.1196244885,0.07928038671
3.37,-0.116930972,0.08401682994
3.38,-0.1140445649,0.08866958777
3.39,-0.1109674173,0.09323052101
3.4,-0.1077020372,0.0976915173
3.41,-0.1042512921,0.1020445076
3.42,-0.1006184103,0.1062814826
3.43,-0.09680698115,0.1103945099
3.44,-0.09282095415,0.1143757506
3.45,-0.08866463794,0.1182174767
3.46,-0.08434269788,0.1219120879
3.47,-0.07986015302,0.1254521289
3.48,-0.07522237222,0.1288303063
3.49,-0.07043506931,0.132039506
3.5,-0.06550429752,0.1350728096
3.51,-0.06043644298,0.1379235115
3.52,-0.05523821743,0.1405851354
3.53,-0.04991665,0.1430514504
3.54,-0.04447907829,0.1453164871
3.55,-0.03893313849,0.1473745532
3.56,-0.0332867548,0.1492202492
3.57,-0.02754812796,0.1508484826
3.58,-0.02172572312,0.1522544826
3.59,-0.01582825683,0.1534338141
3.6,-0.009864683376,0.1543823912
3.61,-0.003844180371,0.1550964895
3.62,0.002223866319,0.1555727586
3.63,0.008329878325,0.1558082336
3.64,0.01446410115,0.1558003457
3.65,0.02061662113,0.1555469327
3.66,0.02677738298,0.1550462478
3.67,0.03293620781,0.1542969686
3.68,0.03908281174,0.1532982046
3.69,0.04520682482,0.1520495042
3.7,0.05129781053,0.1505508605
3.71,0.05734528548,0.1488027169
3.72,0.06333873957,0.1468059706
3.73,0.06926765639,0.1445619766
3.74,0.07512153381,0.1420725495
3.75,0.08088990485,0.1393399653
3.76,0.08656235864,0.1363669613
3.77,0.09212856152,0.1331567361
3.78,0.09757827811,0.1297129472
3.79,0.1029013925,0.1260397093
3.8,0.1080879293,0.1221415901
3.81,0.1131280747,0.1180236058
3.82,0.1180121971,0.1136912157
3.83,0.1227308681,0.1091503153
3.84,0.1272748826,0.1044072291
3.85,0.1316352792,0.09946870149
3.86,0.1358033597,0.09434188771
3.87,0.1397707087,0.08903434303
3.88,0.1435292125,0.08355401139
3.89,0.1470710775,0.07790921308
3.9,0.1503888484,0.07210863141
3.91,0.1534754251,0.06616129858
3.92,0.1563240801,0.06007658073
3.93,0.1589284741,0.05386416206
3.94,0.1612826717,0.04753402826
3.95,0.1633811558,0.04109644913
3.96,0.1652188419,0.03456196047
3.97,0.1667910908,0.02794134532
3.98,0.1680937211,0.02124561452
3.99,0.1691230204,0.01448598662
4,0.1698757559,0.007673867316
4.01,0.1703491836,0.0008208282394
4.02,0.1705410575,-0.006061414635
4.03,0.1704496363,-0.01296102308
4.04,0.1700736906,-0.01986605909
4.05,0.1694125083,-0.02676450767
4.06,0.1684658987,-0.03364429995
4.07,0.1672341965,-0.04049333656
4.08,0.1657182633,-0.04729951114
4.09,0.1639194898,-0.05405073403
4.1,0.1618397952,-0.06073495608
4.11,0.1594816265,-0.06734019242
4.12,0.1568479563,-0.07385454632
4.13,0.15394228,-0.08026623288
4.14,0.1507686111,-0.08656360268
4.15,0.1473314758,-0.09273516519
4.16,0.143635907,-0.09876961205
4.17,0.1396874362,-0.10465584
4.18,0.1354920853,-0.1103829734
4.19,0.1310563568,-0.1159403866
4.2,0.1263872227,-0.1213177258
4.21,0.1214921136,-0.1265049303
4.22,0.1163789053,-0.131492253
4.23,0.1110559054,-0.1362702814
4.24,0.1055318384,-0.1408299565
4.25,0.09981583083,-0.1451625921
4.26,0.09391739398,-0.1492598928
4.27,0.08784640725,-0.1531139719
4.28,0.08161309984,-0.1567173678
4.29,0.07522803192,-0.1600630598
4.3,0.06870207509,-0.1631444835
4.31,0.06204639204,-0.1659555447
4.32,0.05527241568,-0.1684906323
4.33,0.04839182756,-0.170744631
4.34,0.04141653579,-0.1727129326
4.35,0.03435865244,-0.1743914455
4.36,0.02723047039,-0.1757766047
4.37,0.02004443993,-0.1768653794
4.38,0.01281314481,-0.1776552805
4.39,0.005549278066,-0.178144366
4.4,-0.001734382377,-0.1783312462
4.41,-0.009024998427,-0.1782150875
4.42,-0.01630969662,-0.1777956145
4.43,-0.02357559307,-0.1770731121
4.44,-0.0308098184,-0.1760484251
4.45,-0.03799954281,-0.1747229581
4.46,-0.0451320009,-0.1730986728
4.47,-0.0521945166,-0.1711780855
4.48,-0.05917452773,-0.1689642624
4.49,-0.0660596105,-0.1664608144
4.5,-0.07283750367,-0.1636718906
4.51,-0.07949613243,-0.1606021708
4.52,-0.08602363184,-0.1572568565
4.53,-0.09240836997,-0.1536416617
4.54,-0.09863897044,-0.1497628016
4.55,-0.1047043346,-0.1456269811
4.56,-0.1105936628,-0.1412413819
4.57,-0.1162964758,-0.136613649
4.58,-0.1218026345,-0.1317518755
4.59,-0.1271023597,-0.1266645874
4.6,-0.1321862511,-0.1213607271
4.61,-0.1370453051,-0.115849636
4.62,-0.1416709323,-0.1101410366
4.63,-0.1460549737,-0.1042450132
4.64,-0.1501897161,-0.0981719928
4.65,-0.1540679069,-0.09193272478
4.66,-0.157682768,-0.08553825984
4.67,-0.1610280077,-0.07899992867
4.68,-0.1640978333,-0.07232931997
4.69,-0.1668869611,-0.06553825792
4.7,-0.1693906262,-0.0586387793
4.71,-0.1716045915,-0.05164311014
4.72,-0.1735251543,-0.0445636421
4.73,-0.1751491536,-0.03741290847
4.74,-0.176473975,-0.03020356002
4.75,-0.1774975548,-0.02294834059
4.76,-0.1782183833,-0.01566006261
4.77,-0.1786355068,-0.008351582418
4.78,-0.1787485282,-0.001035775714
4.79,-0.178557607,0.006274487126
4.8,-0.1780634578,0.01356636558
4.81,-0.177267348,0.02082707341
4.82,-0.1761710938,0.02804390294
4.83,-0.1747770561,0.03520424906
4.84,-0.1730881343,0.04229563302
4.85,-0.1711077598,0.04930572587
4.86,-0.168839888,0.05622237155
4.87,-0.1662889896,0.06303360953
4.88,-0.1634600405,0.06972769702
4.89,-0.1603585113,0.07629313068
4.9,-0.1569903553,0.08271866778
4.91,-0.1533619961,0.0889933467
4.92,-0.1494803135,0.09510650695
4.93,-0.1453526298,0.1010478084
4.94,-0.1409866937,0.1068072496
4.95,-0.136390665,0.1123751862
4.96,-0.1315730976,0.1177423472
4.97,-0.1265429217,0.1228998519
4.98,-0.1213094261,0.1278392246
4.99,-0.115882239,0.1325524097
5,-0.1102713088,0.1370317852
5.01,-0.1044868842,0.1412701751
5.02,-0.09853949372,0.1452608617
5.03,-0.09243992469,0.1489975958
5.04,-0.08619920215,0.1524746072
5.05,-0.07982856701,0.1556866131
5.06,-0.07333945418,0.1586288262
5.07,-0.0667434702,0.1612969616
5.08,-0.06005237087,0.1636872422
5.09,-0.05327803847,0.1657964042
5.1,-0.04643245909,0.1676217002
5.11,-0.03952769965,0.1691609025
5.12,-0.03257588509,0.1704123045
5.13,-0.0255891754,0.1713747213
5.14,-0.01857974285,0.1720474898
5.15,-0.01155974923,0.172430467
5.16,-0.004541323295,0.1725240275
5.17,0.002463461608,0.1723290606
5.18,0.009442609676,0.1718469659
5.19,0.01638422449,0.1710796475
5.2,0.02327653053,0.1700295083
5.21,0.03010789432,0.1686994428
5.22,0.03686684518,0.1670928285
5.23,0.04354209548,0.1652135177
5.24,0.05012256045,0.163065827
5.25,0.05659737748,0.1606545271
5.26,0.06295592478,0.1579848311
5.27,0.06918783955,0.1550623826
5.28,0.07528303545,0.151893242
5.29,0.08123171943,0.1484838737
5.3,0.0870244079,0.1448411312
5.31,0.09265194217,0.1409722422
5.32,0.09810550313,0.136884793
5.33,0.1033766252,0.1325867123
5.34,0.1084572096,0.1280862545
5.35,0.1133395365,0.1233919824
5.36,0.1180162766,0.1185127498
5.37,0.1224805021,0.1134576829
5.38,0.1267256961,0.1082361623
5.39,0.1307457621,0.1028578041
5.4,0.1345350316,0.09733244046
5.41,0.1380882717,0.09167010078
5.42,0.1414006912,0.0858809917
5.43,0.1444679464,0.07997547757
5.44,0.1472861451,0.07396406051
5.45,0.1498518509,0.06785736047
5.46,0.1521620855,0.06166609524
5.47,0.1542143307,0.05540106039
5.48,0.1560065296,0.04907310929
5.49,0.1575370863,0.04269313326
5.5,0.1588048657,0.03627204169
5.51,0.1598091913,0.0298207424
5.52,0.1605498433,0.0233501222
5.53,0.1610270549,0.01687102764
5.54,0.1612415083,0.01039424599
5.55,0.16119433,0.003930486567
5.56,0.1608870847,-0.002509637634
5.57,0.1603217693,-0.008915627948
5.58,0.1595008055,-0.01527711766
5.59,0.1584270319,-0.02158388919
5.6,0.1571036952,-0.02782589086
5.61,0.1555344414,-0.03399325313
5.62,0.1537233056,-0.04007630439
5.63,0.1516747012,-0.04606558616
5.64,0.1493934095,-0.05195186778
5.65,0.1468845674,-0.05772616053
5.66,0.1441536554,-0.06337973111
5.67,0.1412064848,-0.06890411454
5.68,0.1380491849,-0.07429112642
5.69,0.1346881889,-0.07953287455
5.7,0.1311302202,-0.08462176986
5.71,0.1273822781,-0.08955053668
5.72,0.1234516226,-0.09431222233
5.73,0.1193457599,-0.09890020602
5.74,0.1150724269,-0.103308207
5.75,0.1106395756,-0.1075302922
5.76,0.1060553574,-0.1115608825
5.77,0.1013281072,-0.1153947595
5.78,0.09646632747,-0.1190270702
5.79,0.09147867179,-0.122453332
5.8,0.08637392884,-0.1256694364
5.81,0.08116100608,-0.1286716519
5.82,0.07584891338,-0.1314566273
5.83,0.07044674687,-0.1340213922
5.84,0.06496367259,-0.1363633594
5.85,0.05940891045,-0.138480324
5.86,0.05379171818,-0.140370464
5.87,0.04812137539,-0.1420323388
5.88,0.04240716793,-0.1434648877
5.89,0.03665837229,-0.1446674274
5.9,0.03088424036,-0.1456396496
5.91,0.02509398433,-0.1463816169
5.92,0.01929676191,-0.1468937586
5.93,0.01350166186,-0.1471768665
5.94,0.007717689783,-0.1472320893
5.95,0.001953754299,-0.1470609265
5.96,-0.003781346423,-0.1466652226
5.97,-0.009478937785,-0.1460471596
5.98,-0.01513048146,-0.1452092503
5.99,-0.02072758767,-0.1441543298
6,-0.02626202711,-0.142885548
