"Freq [GHz]","re(S(Tx_p1,Tx_p1)) []","im(S(Tx_p1,Tx_p1)) []"
1,-0.02973132339,-0.08631699619
1.01,-0.0329039325,-0.08507295328
1.02,-0.03603591811,-0.08370800071
1.03,-0.03912208814,-0.08222330315
1.04,-0.04215731114,-0.08062026579
1.05,-0.04513652574,-0.07890052872
1.06,-0.04805474962,-0.0770659612
1.07,-0.05090708816,-0.0751186558
1.08,-0.05368874272,-0.07306092239
1.09,-0.05639501852,-0.07089528208
1.1,-0.05902133225,-0.06862446098
1.11,-0.06156321932,-0.06625138395
1.12,-0.06401634076,-0.06377916822
1.13,-0.0663764899,-0.061211117
1.14,-0.06863959871,-0.05855071296
1.15,-0.07080174389,-0.05580161171
1.16,-0.07285915267,-0.05296763521
1.17,-0.07480820844,-0.0500527651
1.18,-0.07664545606,-0.04706113602
1.19,-0.07836760699,-0.0439970289
1.2,-0.07997154422,-0.04086486411
1.21,-0.08145432693,-0.03766919468
1.22,-0.08281319506,-0.03441469936
1.23,-0.08404557358,-0.03110617569
1.24,-0.08514907669,-0.02774853295
1.25,-0.0861215117,-0.02434678512
1.26,-0.08696088289,-0.02090604369
1.27,-0.08766539511,-0.01743151043
1.28,-0.0882334572,-0.01392847007
1.29,-0.0886636853,-0.01040228284
1.3,-0.0889549059,-0.006858377004
1.31,-0.08910615885,-0.003302241222
1.32,-0.0891167,0.0002605832138
1.33,-0.08898600385,0.003824510209
1.34,-0.08871376586,0.007383916854
1.35,-0.08829990462,0.01093315153
1.36,-0.08774456383,0.01446654214
1.37,-0.08704811399,0.0179784045
1.38,-0.08621115392,0.02146305081
1.39,-0.08523451201,0.02491479836
1.4,-0.08411924721,0.02832797823
1.41,-0.08286664974,0.03169694431
1.42,-0.08147824152,0.03501608226
1.43,-0.07995577631,0.03827981875
1.44,-0.07830123951,0.04148263072
1.45,-0.07651684765,0.04461905483
1.46,-0.07460504749,0.04768369699
1.47,-0.07256851481,0.05067124192
1.48,-0.07041015274,0.05357646292
1.49,-0.0681330898,0.05639423162
1.5,-0.06574067745,0.05911952777
1.51,-0.0632364872,0.06174744915
1.52,-0.06062430736,0.06427322145
1.53,-0.05790813929,0.06669220809
1.54,-0.05509219315,0.06899992015
1.55,-0.05218088328,0.07119202614
1.56,-0.04917882296,0.07326436171
1.57,-0.04609081884,0.07521293936
1.58,-0.04292186472,0.07703395791
1.59,-0.03967713493,0.07872381184
1.6,-0.03636197715,0.08027910055
1.61,-0.03298190482,0.08169663727
1.62,-0.02954258888,0.0829734578
1.63,-0.02604984919,0.08410682901
1.64,-0.02250964533,0.08509425695
1.65,-0.01892806699,0.08593349473
1.66,-0.01531132384,0.0866225499
1.67,-0.01166573493,0.08715969161
1.68,-0.007997717703,0.08754345715
1.69,-0.004313776474,0.08777265818
1.7,-0.0006204905869,0.08784638639
1.71,0.003075497878,0.08776401865
1.72,0.006767496751,0.08752522167
1.73,0.01044877677,0.08712995598
1.74,0.0141125849,0.08657847941
1.75,0.01775215791,0.08587134985
1.76,0.0213607363,0.08500942745
1.77,0.0249315783,0.0839938761
1.78,0.02845797423,0.08282616419
1.79,0.03193326089,0.08150806469
1.8,0.03535083612,0.08004165454
1.81,0.03870417343,0.07842931324
1.82,0.04198683666,0.07667372069
1.83,0.04519249461,0.07477785433
1.84,0.04831493569,0.07274498545
1.85,0.05134808241,0.07057867475
1.86,0.05428600576,0.06828276715
1.87,0.05712293941,0.06586138579
1.88,0.05985329368,0.06331892531
1.89,0.06247166925,0.06066004432
1.9,0.06497287053,0.05788965719
1.91,0.06735191871,0.05501292505
1.92,0.06960406439,0.05203524605
1.93,0.07172479972,0.04896224503
1.94,0.07370987016,0.04579976238
1.95,0.07555528558,0.04255384234
1.96,0.07725733089,0.0392307206
1.97,0.07881257604,0.03583681137
1.98,0.08021788534,0.03237869382
1.99,0.08147042616,0.02886309806
2,0.08256767687,0.02529689052
2.01,0.08350743404,0.02168705897
2.02,0.08428781895,0.01804069708
2.03,0.08490728319,0.01436498859
2.04,0.0853646135,0.01066719117
2.05,0.08565893578,0.006954620022
2.06,0.08578971824,0.003234631162
2.07,0.08575677362,-0.0004853954029
2.08,0.0855602606,-0.004198072687
2.09,0.08520068429,-0.007896023818
2.1,0.08467889576,-0.01157189916
2.11,0.0839960908,-0.01521839345
2.12,0.0831538076,-0.01882826284
2.13,0.08215392369,-0.02239434186
2.14,0.08099865189,-0.02590956017
2.15,0.0796905354,-0.02936695917
2.16,0.07823244201,-0.03275970826
2.17,0.07662755746,-0.03608112085
2.18,0.07487937798,-0.03932466997
2.19,0.07299170193,-0.04248400349
2.2,0.07096862078,-0.04555295887
2.21,0.06881450918,-0.04852557741
2.22,0.06653401442,-0.05139611797
2.23,0.06413204505,-0.0541590701
2.24,0.06161375895,-0.05680916652
2.25,0.05898455073,-0.05934139498
2.26,0.05625003848,-0.06175100939
2.27,0.05341605,-0.06403354028
2.28,0.05048860858,-0.06618480442
2.29,0.0474739182,-0.06820091373
2.3,0.0443783484,-0.07007828335
2.31,0.04120841869,-0.0718136389
2.32,0.03797078275,-0.07340402287
2.33,0.03467221223,-0.07484680019
2.34,0.03131958039,-0.07613966287
2.35,0.02791984553,-0.07728063381
2.36,0.02448003437,-0.07826806974
2.37,0.0210072252,-0.07910066316
2.38,0.01750853117,-0.07977744353
2.39,0.01399108349,-0.0802977775
2.4,0.01046201476,-0.08066136823
2.41,0.006928442408,-0.08086825391
2.42,0.003397452262,-0.0809188054
2.43,-0.0001239175871,-0.08081372299
2.44,-0.003628692716,-0.08055403236
2.45,-0.007109977974,-0.08014107976
2.46,-0.01056097273,-0.07957652633
2.47,-0.01397498575,-0.07886234178
2.48,-0.01734544958,-0.07800079719
2.49,-0.02066593458,-0.07699445727
2.5,-0.0239301623,-0.07584617183
2.51,-0.02713201844,-0.07455906666
2.52,-0.03026556518,-0.0731365338
2.53,-0.03332505293,-0.07158222128
2.54,-0.03630493144,-0.06990002232
2.55,-0.03919986031,-0.06809406396
2.56,-0.04200471875,-0.06616869542
2.57,-0.04471461474,-0.0641284759
2.58,-0.0473248934,-0.06197816207
2.59,-0.04983114475,-0.05972269528
2.6,-0.05222921065,-0.05736718845
2.61,-0.05451519102,-0.05491691275
2.62,-0.05668544941,-0.05237728406
2.63,-0.05873661768,-0.04975384932
2.64,-0.06066560012,-0.04705227276
2.65,-0.06246957665,-0.04427832206
2.66,-0.0641460054,-0.04143785454
2.67,-0.06569262459,-0.03853680327
2.68,-0.06710745358,-0.03558116332
2.69,-0.06838879333,-0.03257697812
2.7,-0.06953522609,-0.02953032588
2.71,-0.07054561452,-0.02644730623
2.72,-0.07141910003,-0.02333402708
2.73,-0.07215510063,-0.02019659166
2.74,-0.07275330801,-0.01704108589
2.75,-0.07321368423,-0.01387356601
2.76,-0.07353645763,-0.01070004655
2.77,-0.07372211842,-0.007526488621
2.78,-0.07377141357,-0.004358788643
2.79,-0.0736853414,-0.001202767393
2.8,-0.07346514556,0.001935840479
2.81,-0.0731123087,0.005051396531
2.82,-0.07262854571,0.008138368153
2.83,-0.07201579659,0.01119133773
2.84,-0.07127621903,0.01420501136
2.85,-0.07041218065,0.01717422703
2.86,-0.06942625099,0.0200939624
2.87,-0.06832119329,0.02295934202
2.88,-0.06709995602,0.02576564409
2.89,-0.06576566429,0.0285083067
2.9,-0.06432161104,0.03118293364
2.91,-0.06277124818,0.03378529962
2.92,-0.06111817762,0.03631135511
2.93,-0.05936614223,0.03875723063
2.94,-0.05751901677,0.0411192406
2.95,-0.05558079879,0.04339388673
2.96,-0.05355559959,0.04557786092
2.97,-0.05144763516,0.04766804778
2.98,-0.04926121719,0.0496615267
2.99,-0.04700074423,0.05155557345
3,-0.04467069279,0.05334766151
3.01,-0.04227560871,0.05503546287
3.02,-0.03982009856,0.05661684855
3.03,-0.03730882122,0.0580898888
3.04,-0.03474647959,0.05945285285
3.05,-0.03213781248,0.06070420846
3.06,-0.02948758668,0.06184262109
3.07,-0.02680058921,0.06286695286
3.08,-0.02408161974,0.06377626118
3.09,-0.02133548319,0.06456979719
3.1,-0.01856698262,0.06524700391
3.11,-0.0157809122,0.06580751426
3.12,-0.01298205047,0.06625114877
3.13,-0.01017515374,0.06657791323
3.14,-0.007364949766,0.06678799613
3.15,-0.004556131558,0.06688176585
3.16,-0.001753351414,0.06685976792
3.17,0.001038784854,0.06672272194
3.18,0.003815723498,0.06647151855
3.19,0.006572968242,0.06610721618
3.2,0.009306085502,0.06563103781
3.21,0.01201070943,0.06504436757
3.22,0.01468254682,0.06434874729
3.23,0.01731738181,0.06354587302
3.24,0.01991108044,0.06263759144
3.25,0.02245959514,0.0616258962
3.26,0.02495896898,0.06051292432
3.27,0.02740533984,0.05930095237
3.28,0.02979494446,0.05799239277
3.29,0.03212412234,0.05658978993
3.3,0.03438931961,0.05509581639
3.31,0.03658709269,0.05351326893
3.32,0.03871411194,0.05184506457
3.33,0.04076716518,0.05009423664
3.34,0.04274316113,0.04826393062
3.35,0.04463913275,0.04635740013
3.36,0.04645224053,0.04437800268
3.37,0.04817977569,0.04232919548
3.38,0.0498191633,0.0402145311
3.39,0.05136796533,0.03803765312
3.4,0.0528238836,0.03580229169
3.41,0.0541847627,0.03351225891
3.42,0.05544859281,0.03117144429
3.43,0.05661351241,0.02878380997
3.44,0.05767781095,0.02635338589
3.45,0.05863993143,0.02388426489
3.46,0.05949847281,0.02138059763
3.47,0.06025219245,0.01884658744
3.48,0.06090000831,0.01628648502
3.49,0.06144100113,0.01370458309
3.5,0.06187441643,0.01110521078
3.51,0.06219966639,0.008492728037
3.52,0.06241633164,0.005871519782
3.53,0.06252416276,0.003245990028
3.54,0.06252308179,0.0006205558052
3.55,0.06241318341,-0.002000359014
3.56,0.06219473605,-0.004612330025
3.57,0.06186818271,-0.007210938727
3.58,0.06143414162,-0.009791779075
3.59,0.06089340667,-0.01235046415
3.6,0.06024694755,-0.01488263294
3.61,0.05949590977,-0.01738395721
3.62,0.05864161423,-0.01985014848
3.63,0.0576855567,-0.02227696509
3.64,0.05662940689,-0.02466021933
3.65,0.05547500729,-0.02699578458
3.66,0.0542243717,-0.02927960262
3.67,0.05287968339,-0.03150769084
3.68,0.05144329299,-0.03367614958
3.69,0.04991771606,-0.03578116936
3.7,0.04830563024,-0.03781903822
3.71,0.04660987214,-0.03978614892
3.72,0.04483343385,-0.04167900616
3.73,0.04297945906,-0.0434942337
3.74,0.04105123883,-0.04522858139
3.75,0.0390522071,-0.04687893212
3.76,0.03698593563,-0.0484423086
3.77,0.03485612883,-0.04991587998
3.78,0.03266661799,-0.0512969684
3.79,0.03042135536,-0.0525830552
3.8,0.02812440773,-0.05377178698
3.81,0.02577994976,-0.05486098149
3.82,0.02339225692,-0.05584863311
3.83,0.02096569812,-0.0567329182
3.84,0.01850472804,-0.05751220002
3.85,0.01601387916,-0.05818503344
3.86,0.01349775346,-0.05875016921
3.87,0.01096101387,-0.05920655792
3.88,0.008408375486,-0.05955335356
3.89,0.005844596532,-0.0597899167
3.9,0.003274469072,-0.0599158172
3.91,0.0007028095681,-0.05993083657
3.92,-0.001865550765,-0.0598349698
3.93,-0.004425775748,-0.05962842676
3.94,-0.00697303416,-0.05931163314
3.95,-0.009502509769,-0.05888523086
3.96,-0.01200941143,-0.05835007806
3.97,-0.01448898326,-0.05770724851
3.98,-0.01693651479,-0.05695803052
3.99,-0.01934735119,-0.05610392538
4,-0.02171690338,-0.05514664526
4.01,-0.02404065814,-0.05408811055
4.02,-0.02631418811,-0.05293044673
4.03,-0.02853316166,-0.05167598071
4.04,-0.03069335263,-0.05032723665
4.05,-0.03279064989,-0.04888693125
4.06,-0.0348210667,-0.04735796857
4.07,-0.03678074982,-0.04574343437
4.08,-0.03866598832,-0.04404658988
4.09,-0.04047322224,-0.04227086525
4.1,-0.04219905072,-0.04041985237
4.11,-0.04384023999,-0.03849729743
4.12,-0.04539373085,-0.03650709289
4.13,-0.04685664583,-0.03445326919
4.14,-0.0482262959,-0.03233998598
4.15,-0.04950018672,-0.03017152304
4.16,-0.05067602452,-0.02795227086
4.17,-0.05175172138,-0.0256867209
4.18,-0.0527254001,-0.02337945559
4.19,-0.05359539849,-0.021035138
4.2,-0.05436027322,-0.01865850142
4.21,-0.05501880301,-0.01625433857
4.22,-0.05556999137,-0.0138274908
4.23,-0.05601306872,-0.01138283703
4.24,-0.05634749393,-0.008925282699
4.25,-0.05657295535,-0.006459748492
4.26,-0.05668937115,-0.003991159178
4.27,-0.05669688921,-0.00152443234
4.28,-0.05659588627,0.0009355328419
4.29,-0.05638696666,0.003383866748
4.3,-0.05607096031,0.005815740401
4.31,-0.05564892031,0.008226376414
4.32,-0.05512211977,0.0106110598
4.33,-0.05449204828,0.0129651486
4.34,-0.05376040765,0.01528408427
4.35,-0.05292910732,0.01756340186
4.36,-0.05200025905,0.01979873992
4.37,-0.05097617126,0.02198585006
4.38,-0.04985934281,0.02412060623
4.39,-0.04865245636,0.02619901365
4.4,-0.04735837125,0.0282172173
4.41,-0.04598011598,0.03017151009
4.42,-0.04452088033,0.03205834055
4.43,-0.04298400702,0.03387432008
4.44,-0.04137298316,0.0356162298
4.45,-0.03969143124,0.03728102683
4.46,-0.03794309994,0.03886585013
4.47,-0.03613185463,0.04036802581
4.48,-0.03426166764,0.04178507198
4.49,-0.0323366084,0.04311470293
4.5,-0.03036083327,0.04435483296
4.51,-0.02833857539,0.04550357949
4.52,-0.02627413433,0.04655926573
4.53,-0.02417186568,0.04752042275
4.54,-0.0220361706,0.04838579106
4.55,-0.01987148538,0.0491543215
4.56,-0.01768227099,0.04982517576
4.57,-0.01547300269,0.05039772624
4.58,-0.01324815971,0.05087155536
4.59,-0.01101221505,0.05124645445
4.6,-0.008769625397,0.05152242202
4.61,-0.006524821248,0.05169966156
4.62,-0.00428219716,0.05177857882
4.63,-0.002046102271,0.05175977871
4.64,0.0001791689632,0.05164406157
4.65,0.002389385762,0.05143241915
4.66,0.004580389724,0.05112603007
4.67,0.006748103225,0.05072625493
4.68,0.008888537492,0.05023463096
4.69,0.01099780032,0.04965286641
4.7,0.01307210343,0.0489828345
4.71,0.01510776948,0.04822656711
4.72,0.01710123861,0.04738624819
4.73,0.01904907468,0.0464642068
4.74,0.020947971,0.04546291005
4.75,0.02279475571,0.04438495575
4.76,0.0245863967,0.04323306481
4.77,0.0263200061,0.04201007359
4.78,0.02799284431,0.04071892606
4.79,0.02960232363,0.03936266579
4.8,0.0311460114,0.03794442797
4.81,0.03262163276,0.03646743126
4.82,0.0340270729,0.03493496964
4.83,0.03536037894,0.03335040428
4.84,0.03661976133,0.03171715539
4.85,0.03780359489,0.03003869408
4.86,0.03891041933,0.02831853434
4.87,0.0399389395,0.02656022505
4.88,0.04088802512,0.02476734209
4.89,0.04175671023,0.02294348061
4.9,0.04254419221,0.02109224741
4.91,0.04324983042,0.01921725348
4.92,0.04387314459,0.0173221067
4.93,0.04441381281,0.01541040478
4.94,0.0448716692,0.01348572833
4.95,0.04524670136,0.01155163422
4.96,0.04553904746,0.009611649133
4.97,0.04574899313,0.007669263337
4.98,0.04587696808,0.005727924762
4.99,0.0459235425,0.003791033289
5,0.04588942328,0.00186193532
5.01,0.04577544999,-5.60813787E-05
5.02,0.04558259074,-0.001959792564
5.03,0.04531193789,-0.003846042128
5.04,0.0449647036,-0.005711746421
5.05,0.04454221529,-0.007553898306
5.06,0.04404591099,-0.009369570926
5.07,0.04347733461,-0.01115592119
5.08,0.04283813117,-0.012910193
5.09,0.04213004196,-0.01462972019
5.1,0.0413548997,-0.01631192919
5.11,0.04051462362,-0.01795434144
5.12,0.03961121462,-0.01955457559
5.13,0.03864675039,-0.02111034935
5.14,0.03762338056,-0.02261948119
5.15,0.03654332193,-0.02407989178
5.16,0.03540885367,-0.02548960519
5.17,0.03422231262,-0.0268467499
5.18,0.03298608872,-0.02814955956
5.19,0.03170262034,-0.02939637364
5.2,0.03037438992,-0.03058563782
5.21,0.02900391947,-0.03171590421
5.22,0.02759376636,-0.03278583147
5.23,0.02614651908,-0.0337941847
5.24,0.02466479312,-0.03473983525
5.25,0.02315122702,-0.03562176037
5.26,0.02160847845,-0.03643904272
5.27,0.02003922044,-0.03719086983
5.28,0.01844613769,-0.0378765334
5.29,0.01683192302,-0.03849542852
5.3,0.0151992739,-0.03904705287
5.31,0.01355088904,-0.03953100572
5.32,0.01188946522,-0.03994698701
5.33,0.01021769404,-0.04029479629
5.34,0.008538258882,-0.04057433159
5.35,0.006853831936,-0.04078558831
5.36,0.005167071287,-0.04092865804
5.37,0.003480618102,-0.04100372735
5.38,0.001797093889,-0.04101107653
5.39,0.0001190978211,-0.04095107836
5.4,-0.001550795872,-0.0408241968
5.41,-0.003210040452,-0.0406309857
5.42,-0.004856119174,-0.04037208747
5.43,-0.006486547735,-0.04004823174
5.44,-0.008098876679,-0.03966023401
5.45,-0.009690693776,-0.03920899431
5.46,-0.01125962635,-0.03869549576
5.47,-0.01280334362,-0.0381208032
5.48,-0.01431955894,-0.03748606176
5.49,-0.01580603213,-0.03679249539
5.5,-0.0172605717,-0.03604140543
5.51,-0.0186810371,-0.03523416905
5.52,-0.02006534098,-0.03437223776
5.53,-0.02141145138,-0.0334571358
5.54,-0.02271739402,-0.03249045852
5.55,-0.02398125447,-0.03147387074
5.56,-0.02520118038,-0.03040910499
5.57,-0.02637538376,-0.02929795977
5.58,-0.02750214309,-0.02814229767
5.59,-0.02857980563,-0.02694404349
5.6,-0.02960678955,-0.02570518222
5.61,-0.03058158618,-0.02442775699
5.62,-0.03150276214,-0.02311386695
5.63,-0.03236896153,-0.02176566494
5.64,-0.03317890806,-0.02038535526
5.65,-0.03393140717,-0.01897519114
5.66,-0.03462534808,-0.01753747228
5.67,-0.03525970589,-0.01607454215
5.68,-0.0358335435,-0.01458878524
5.69,-0.0363460136,-0.01308262422
5.7,-0.03679636053,-0.01155851692
5.71,-0.03718392209,-0.01001895326
5.72,-0.03750813128,-0.008466452021
5.73,-0.03776851792,-0.00690355749
5.74,-0.03796471022,-0.005332836044
5.75,-0.03809643622,-0.003756872557
5.76,-0.03816352511,-0.002178266724
5.77,-0.03816590845,-0.0005996292718
5.78,-0.0381036212,0.0009764219493
5.79,-0.03797680272,0.002547265965
5.8,-0.03778569749,0.004110282785
5.81,-0.03753065574,0.005662857594
5.82,-0.03721213391,0.007202385042
5.83,-0.0368306949,0.008726273601
5.84,-0.03638700818,0.01023195
5.85,-0.03588184964,0.01171686373
5.86,-0.03531610131,0.01317849157
5.87,-0.03469075082,0.01461434221
5.88,-0.03400689066,0.01602196085
5.89,-0.03326571725,0.01739893386
5.9,-0.03246852973,0.01874289343
5.91,-0.03161672856,0.02005152222
5.92,-0.03071181387,0.02132255801
5.93,-0.0297553836,0.02255379827
5.94,-0.02874913136,0.02374310478
5.95,-0.02769484409,0.0248884081
5.96,-0.02659439949,0.025987712
5.97,-0.02544976313,0.02703909785
5.98,-0.02426298546,0.02804072885
5.99,-0.02303619847,0.02899085416
6,-0.02177161216,0.02988781297
