"Freq [GHz]","re(S(Tx_p1,Tx_p1)) []","im(S(Tx_p1,Tx_p1)) []"
1,-0.01074048574,-0.1239702944
1.01,-0.0148029941,-0.1234613026
1.02,-0.01886067435,-0.1228212835
1.03,-0.02290874007,-0.1220496491
1.04,-0.02694240461,-0.1211460111
1.05,-0.0309568871,-0.1201101751
1.06,-0.03494741776,-0.1189421354
1.07,-0.03890924285,-0.1176420698
1.08,-0.042837629,-0.1162103349
1.09,-0.04672786722,-0.1146474611
1.1,-0.05057527644,-0.1129541485
1.11,-0.05437520667,-0.1111312627
1.12,-0.05812304196,-0.1091798307
1.13,-0.06181420291,-0.1071010379
1.14,-0.06544414911,-0.1048962248
1.15,-0.06900838133,-0.1025668837
1.16,-0.07250244351,-0.1001146568
1.17,-0.07592192475,-0.09754133391
1.18,-0.07926246114,-0.09484885025
1.19,-0.08251973768,-0.09203928532
1.2,-0.08568949009,-0.0891148615
1.21,-0.08876750679,-0.08607794321
1.22,-0.09174963093,-0.08293103626
1.23,-0.09463176254,-0.07967678747
1.24,-0.09740986088,-0.07631798458
1.25,-0.100079947,-0.0728575563
1.26,-0.1026381063,-0.0692985726
1.27,-0.1050804919,-0.06564424518
1.28,-0.1074033277,-0.06189792798
1.29,-0.1096029118,-0.05806311785
1.3,-0.1116756208,-0.05414345528
1.31,-0.1136179138,-0.05014272513
1.32,-0.115426337,-0.04606485732
1.33,-0.1170975287,-0.04191392752
1.34,-0.1186282243,-0.03769415768
1.35,-0.1200152625,-0.03340991648
1.36,-0.121255591,-0.02906571956
1.37,-0.1223462726,-0.02466622954
1.38,-0.1232844925,-0.02021625579
1.39,-0.1240675648,-0.01572075389
1.4,-0.1246929403,-0.01118482478
1.41,-0.1251582137,-0.006613713441
1.42,-0.125461132,-0.002012807297
1.43,-0.1255996023,0.002612365955
1.44,-0.1255717005,0.007256140928
1.45,-0.1253756796,0.01191271768
1.46,-0.1250099788,0.01657616537
1.47,-0.1244732321,0.02124042652
1.48,-0.1237642773,0.02589932183
1.49,-0.1228821649,0.03054655564
1.5,-0.1218261674,0.03517572204
1.51,-0.1205957878,0.0397803116
1.52,-0.1191907688,0.0443537188
1.53,-0.1176111011,0.04888925007
1.54,-0.1158570321,0.0533801326
1.55,-0.1139290742,0.05781952375
1.56,-0.1118280124,0.06220052118
1.57,-0.1095549122,0.06651617358
1.58,-0.1071111264,0.0707594922
1.59,-0.104498302,0.07492346284
1.6,-0.1017183865,0.07900105862
1.61,-0.09877363327,0.08298525326
1.62,-0.09566660662,0.08686903497
1.63,-0.09240018621,0.09064542091
1.64,-0.08897757066,0.09430747208
1.65,-0.08540228045,0.09784830882
1.66,-0.08167816,0.1012611266
1.67,-0.07780937895,0.1045392124
1.68,-0.07380043255,0.107675961
1.69,-0.06965614116,0.1106648922
1.7,-0.06538164881,0.1134996679
1.71,-0.06098242078,0.1161741093
1.72,-0.05646424021,0.1186822144
1.73,-0.0518332037,0.1210181753
1.74,-0.04709571587,0.1231763963
1.75,-0.04225848292,0.1251515106
1.76,-0.03732850506,0.1269383983
1.77,-0.032313068,0.1285322031
1.78,-0.02721973331,0.1299283496
1.79,-0.02205632775,0.1311225593
1.8,-0.01683093154,0.1321108674
1.81,-0.0115518657,0.132889638
1.82,-0.006227678232,0.1334555797
1.83,-0.000867129445,0.13380576
1.84,0.004520823737,0.1339376192
1.85,0.009927044385,0.1338489838
1.86,0.01534223307,0.1335380787
1.87,0.02075694619,0.1330035391
1.88,0.02616161518,0.1322444209
1.89,0.03154656638,0.1312602107
1.9,0.03690204168,0.1300508342
1.91,0.0422182198,0.1286166642
1.92,0.04748523818,0.1269585271
1.93,0.05269321535,0.1250777079
1.94,0.05783227385,0.122975955
1.95,0.06289256343,0.1206554829
1.96,0.06786428473,0.1181189737
1.97,0.07273771307,0.1153695782
1.98,0.0775032225,0.1124109143
1.99,0.08215130994,0.1092470653
2,0.08667261936,0.1058825762
2.01,0.09105796585,0.1023224489
2.02,0.09529835962,0.09857213582
2.03,0.09938502977,0.09463753264
2.04,0.1033094477,0.09052496915
2.05,0.1070633503,0.08624119907
2.06,0.1106387626,0.08179338858
2.07,0.1140280197,0.07718910337
2.08,0.1172237883,0.07243629467
2.09,0.1202190879,0.0675432838
2.1,0.1230073102,0.06251874573
2.11,0.1255822391,0.05737169136
2.12,0.127938068,0.05211144874
2.13,0.1300694183,0.04674764321
2.14,0.1319713548,0.04129017657
2.15,0.1336394013,0.03574920525
2.16,0.1350695546,0.03013511768
2.17,0.1362582976,0.0244585107
2.18,0.1372026103,0.01873016539
2.19,0.1378999807,0.0129610221
2.2,0.1383484136,0.007162154907
2.21,0.1385464379,0.001344745593
2.22,0.1384931132,-0.004479942902
2.23,0.1381880341,-0.01030059332
2.24,0.1376313338,-0.01610586127
2.25,0.136823686,-0.02188440252
2.26,0.1357663046,-0.02762490052
2.27,0.1344609432,-0.03331609385
2.28,0.1329098921,-0.03894680365
2.29,0.1311159742,-0.0445059609
2.3,0.1290825393,-0.04998263345
2.31,0.1268134571,-0.05536605277
2.32,0.1243131085,-0.06064564024
2.33,0.1215863758,-0.06581103301
2.34,0.1186386312,-0.07085210925
2.35,0.1154757241,-0.07575901277
2.36,0.1121039672,-0.08052217692
2.37,0.1085301208,-0.0851323477
2.38,0.1047613768,-0.08958060596
2.39,0.1008053407,-0.0938583887
2.4,0.09667001267,-0.09795750938
2.41,0.09236376795,-0.1018701771
2.42,0.08789533582,-0.1055890147
2.43,0.08327377789,-0.1091070758
2.44,0.07850846542,-0.1124178602
2.45,0.07360905595,-0.1155153288
2.46,0.06858546916,-0.118393916
2.47,0.06344786216,-0.1210485423
2.48,0.05820660421,-0.1234746241
2.49,0.05287225094,-0.1256680828
2.5,0.04745551827,-0.1276253526
2.51,0.04196725599,-0.1293433865
2.52,0.03641842108,-0.1308196607
2.53,0.03082005101,-0.1320521783
2.54,0.02518323687,-0.1330394709
2.55,0.01951909664,-0.1337805988
2.56,0.01383874852,-0.1342751499
2.57,0.008153284508,-0.1345232375
2.58,0.002473744199,-0.1345254959
2.59,-0.003188910993,-0.1342830752
2.6,-0.0088238232,-0.1337976349
2.61,-0.01442026296,-0.1330713357
2.62,-0.01996765347,-0.1321068301
2.63,-0.0254555942,-0.1309072521
2.64,-0.03087388379,-0.1294762056
2.65,-0.03621254213,-0.1278177512
2.66,-0.04146183167,-0.1259363926
2.67,-0.0466122777,-0.1238370614
2.68,-0.05165468785,-0.1215251015
2.69,-0.05658017043,-0.1190062518
2.7,-0.06138015182,-0.1162866291
2.71,-0.06604639275,-0.113372709
2.72,-0.07057100347,-0.1102713072
2.73,-0.07494645773,-0.1069895595
2.74,-0.07916560565,-0.1035349013
2.75,-0.08322168535,-0.09991504723
2.76,-0.08710833333,-0.09613796911
2.77,-0.09081959373,-0.09221187492
2.78,-0.09434992623,-0.08814518661
2.79,-0.0976942128,-0.08394651802
2.8,-0.1008477632,-0.07962465266
2.81,-0.1038063191,-0.07518852141
2.82,-0.1065660575,-0.07064718023
2.83,-0.1091235918,-0.06600978794
2.84,-0.1114759733,-0.06128558423
2.85,-0.1136206902,-0.05648386781
2.86,-0.1155556658,-0.05161397489
2.87,-0.1172792561,-0.04668525799
2.88,-0.1187902458,-0.04170706516
2.89,-0.1200878431,-0.03668871969
2.9,-0.1211716743,-0.03163950029
2.91,-0.1220417768,-0.02656862187
2.92,-0.122698591,-0.02148521697
2.93,-0.1231429522,-0.01639831778
2.94,-0.1233760809,-0.01131683889
2.95,-0.1233995725,-0.00624956081
2.96,-0.1232153867,-0.001205114234
2.97,-0.1228258358,0.003808034909
2.98,-0.1222335726,0.008781599552
2.99,-0.1214415777,0.01370748475
3,-0.1204531463,0.01857780006
3.01,-0.1192718748,0.02338487109
3.02,-0.1179016469,0.02812125007
3.03,-0.1163466192,0.03277972565
3.04,-0.1146112066,0.03735333164
3.05,-0.1127000682,0.04183535504
3.06,-0.1106180919,0.04621934304
3.07,-0.1083703799,0.05049910918
3.08,-0.1059622337,0.05466873864
3.09,-0.1033991391,0.05872259273
3.1,-0.1006867519,0.06265531243
3.11,-0.09783088243,0.06646182122
3.12,-0.09483748197,0.07013732709
3.13,-0.09171262785,0.07367732373
3.14,-0.08846250969,0.07707759111
3.15,-0.08509341567,0.08033419523
3.16,-0.08161171911,0.0834434873
3.17,-0.07802386548,0.0864021022
3.18,-0.07433635976,0.08920695645
3.19,-0.07055575429,0.09185524554
3.2,-0.06668863692,0.09434444077
3.21,-0.06274161981,0.09667228565
3.22,-0.05872132854,0.0988367918
3.23,-0.05463439186,0.1008362345
3.24,-0.05048743184,0.1026691479
3.25,-0.04628705458,0.1043343199
3.26,-0.04203984147,0.1058307868
3.27,-0.03775234087,0.1071578277
3.28,-0.03343106044,0.1083149584
3.29,-0.02908245987,0.1093019262
3.3,-0.02471294421,0.110118703
3.31,-0.02032885761,0.1107654798
3.32,-0.01593647763,0.1112426604
3.33,-0.01154200995,0.111550855
3.34,-0.007151583582,0.1116908746
3.35,-0.002771246475,0.1116637245
3.36,0.00159303842,0.1114705986
3.37,0.005935396735,0.1111128735
3.38,0.01025004589,0.1105921029
3.39,0.01453129798,0.1099100119
3.4,0.01877356229,0.1090684919
3.41,0.02297134761,0.1080695953
3.42,0.02711926425,0.1069155307
3.43,0.03121202583,0.1056086583
3.44,0.03524445087,0.1041514851
3.45,0.03921146428,0.102546661
3.46,0.04310809863,0.1007969747
3.47,0.04692949537,0.09890535025
3.48,0.05067090597,0.09687484313
3.49,0.05432769302,0.09470863733
3.5,0.0578953313,0.09241004228
3.51,0.06136940888,0.08998249004
3.52,0.06474562826,0.08742953277
3.53,0.06801980755,0.08475484033
3.54,0.07118788176,0.08196219812
3.55,0.07424590424,0.07905550504
3.56,0.07719004814,0.07603877164
3.57,0.08001660815,0.07291611832
3.58,0.08272200229,0.06969177373
3.59,0.08530277396,0.06637007319
3.6,0.08775559416,0.06295545711
3.61,0.09007726388,0.05945246957
3.62,0.09226471673,0.05586575677
3.63,0.09431502179,0.05220006552
3.64,0.09622538663,0.04846024166
3.65,0.09799316058,0.04465122839
3.66,0.09961583823,0.04077806446
3.67,0.1010910631,0.03684588229
3.68,0.1024166315,0.03285990585
3.69,0.1035904966,0.02882544835
3.7,0.1046107727,0.02474790979
3.71,0.1054757398,0.02063277413
3.72,0.1061838476,0.01648560628
3.73,0.106733721,0.01231204881
3.74,0.1071241642,0.008117818217
3.75,0.1073541658,0.003908701033
3.76,0.107422904,-0.0003094505811
3.77,0.1073297509,-0.00453072352
3.78,0.1070742781,-0.008749148841
3.79,0.1066562612,-0.01295870726
3.8,0.106075685,-0.01715333506
3.81,0.1053327478,-0.02132693041
3.82,0.1044278666,-0.02547336012
3.83,0.103361681,-0.02958646679
3.84,0.1021350581,-0.03366007642
3.85,0.1007490958,-0.03768800642
3.86,0.09920512729,-0.04166407401
3.87,0.09750472426,-0.04558210511
3.88,0.09564969995,-0.04943594351
3.89,0.09364211208,-0.05321946056
3.9,0.09148426516,-0.05692656507
3.91,0.0891787125,-0.06055121372
3.92,0.08672825766,-0.06408742166
3.93,0.0841359554,-0.06752927353
3.94,0.08140511222,-0.07087093465
3.95,0.07853928619,-0.07410666255
3.96,0.0755422863,-0.07723081868
3.97,0.07241817118,-0.08023788027
3.98,0.06917124722,-0.0831224524
3.99,0.06580606597,-0.0858792802
4,0.06232742094,-0.088503261
4.01,0.05874034373,-0.0909894567
4.02,0.05505009942,-0.09333310597
4.03,0.05126218132,-0.0955296365
4.04,0.0473823049,-0.09757467711
4.05,0.0434164012,-0.09946406978
4.06,0.03937060933,-0.1011938814
4.07,0.03525126835,-0.1027604155
4.08,0.03106490852,-0.1041602234
4.09,0.02681824165,-0.1053901152
4.1,0.02251815099,-0.1064471706
4.11,0.0181716803,-0.107328749
4.12,0.01378602228,-0.1080324993
4.13,0.009368506468,-0.1085563692
4.14,0.004926586371,-0.1088986139
4.15,0.0004678261378,-0.1090578043
4.16,-0.004000113391,-0.1090328346
4.17,-0.008469489141,-0.1088229289
4.18,-0.01293249076,-0.108427648
4.19,-0.017381256,-0.1078468942
4.2,-0.0218078866,-0.1070809163
4.21,-0.02620446441,-0.1061303136
4.22,-0.03056306796,-0.1049960389
4.23,-0.03487578931,-0.1036794006
4.24,-0.03913475101,-0.1021820643
4.25,-0.04333212346,-0.1005060532
4.26,-0.04746014219,-0.09865374768
4.27,-0.05151112543,-0.09662788392
4.28,-0.05547749154,-0.09443155177
4.29,-0.05935177656,-0.09206819146
4.3,-0.06312665158,-0.0895415895
4.31,-0.0667949401,-0.0868558736
4.32,-0.07034963509,-0.0840155067
4.33,-0.07378391589,-0.08102527997
4.34,-0.07709116483,-0.07789030502
4.35,-0.08026498343,-0.07461600509
4.36,-0.08329920828,-0.07120810539
4.37,-0.08618792645,-0.06767262263
4.38,-0.08892549037,-0.06401585358
4.39,-0.09150653222,-0.06024436288
4.4,-0.09392597764,-0.05636497008
4.41,-0.09617905887,-0.05238473585
4.42,-0.09826132717,-0.04831094748
4.43,-0.1001686645,-0.04415110376
4.44,-0.1018972944,-0.03991289911
4.45,-0.1034437922,-0.03560420715
4.46,-0.1048050941,-0.03123306373
4.47,-0.1059785056,-0.02680764941
4.48,-0.1069617091,-0.02233627149
4.49,-0.1077527704,-0.0178273456
4.5,-0.1083501439,-0.013289377
4.51,-0.1087526776,-0.008730941494
4.52,-0.1089596166,-0.004160666123
4.53,-0.1089706055,0.0004127903238
4.54,-0.10878569,0.004980756954
4.55,-0.1084053174,0.009534570487
4.56,-0.1078303362,0.014065595
4.57,-0.1070619943,0.01856524161
4.58,-0.1061019366,0.02302498813
4.59,-0.1049522011,0.02743639845
4.6,-0.1036152144,0.03179114185
4.61,-0.1020937863,0.03608101193
4.62,-0.1003911025,0.04029794529
4.63,-0.09851071764,0.04443403977
4.64,-0.09645654624,0.04848157232
4.65,-0.09423285353,0.05243301631
4.66,-0.09184424492,0.05628105843
4.67,-0.08929565479,0.06001861482
4.68,-0.08659233443,0.06363884674
4.69,-0.0837398392,0.06713517552
4.7,-0.08074401496,0.07050129668
4.71,-0.07761098371,0.0737311935
4.72,-0.07434712871,0.07681914959
4.73,-0.07095907889,0.0797597608
4.74,-0.06745369271,0.08254794616
4.75,-0.06383804154,0.08517895798
4.76,-0.06011939254,0.08764839104
4.77,-0.0563051912,0.08995219087
4.78,-0.0524030434,0.092086661
4.79,-0.04842069735,0.09404846936
4.8,-0.04436602507,0.09583465358
4.81,-0.04024700391,0.0974426254
4.82,-0.03607169772,0.09887017406
4.83,-0.03184823812,0.1001154686
4.84,-0.02758480567,0.1011770595
4.85,-0.02328961102,0.1020538788
4.86,-0.01897087628,0.1027452396
4.87,-0.01463681643,0.1032508347
4.88,-0.01029562097,0.1035707338
4.89,-0.005955435797,0.1037053806
4.9,-0.001624345408,0.1036555878
4.91,0.002689644584,0.1034225322
4.92,0.006978624512,0.1030077487
4.93,0.01123479729,0.1024131233
4.94,0.01545049455,0.101640885
4.95,0.0196181923,0.1006935978
4.96,0.02373052595,0.09957415113
4.97,0.0277803048,0.09828574985
4.98,0.03176052584,0.0968319038
4.99,0.03566438696,0.09521641644
5,0.03948529939,0.09344337305
5.01,0.04321689946,0.09151712834
5.02,0.0468530596,0.0894422936
5.03,0.05038789864,0.08722372343
5.04,0.0538157912,0.084866502
5.05,0.05713137645,0.08237592902
5.06,0.0603295659,0.07975750541
5.07,0.06340555055,0.07701691864
5.08,0.06635480706,0.07416002796
5.09,0.06917310317,0.07119284943
5.1,0.07185650237,0.06812154078
5.11,0.07440136761,0.06495238635
5.12,0.07680436429,0.06169178182
5.13,0.07906246244,0.05834621915
5.14,0.08117293809,0.05492227148
5.15,0.08313337388,0.05142657816
5.16,0.08494165887,0.04786582996
5.17,0.08659598767,0.04424675447
5.18,0.0880948588,0.04057610172
5.19,0.08943707234,0.03686063009
5.2,0.09062172698,0.03310709251
5.21,0.09164821635,0.02932222303
5.22,0.09251622475,0.02551272368
5.23,0.0932257223,0.02168525189
5.24,0.09377695953,0.01784640812
5.25,0.09417046146,0.01400272415
5.26,0.09440702116,0.01016065172
5.27,0.09448769286,0.006326551661
5.28,0.09441378463,0.002506683627
5.29,0.09418685074,-0.001292803741
5.3,0.09380868357,-0.005065882066
5.31,0.09328130525,-0.008806651943
5.32,0.09260695906,-0.0125093511
5.33,0.09178810053,-0.016168362
5.34,0.09082738836,-0.01977821885
5.35,0.08972767517,-0.02333361409
5.36,0.08849199812,-0.02682940428
5.37,0.08712356945,-0.03026061545
5.38,0.08562576687,-0.03362244789
5.39,0.08400212403,-0.03691028036
5.4,0.0822563209,-0.04011967386
5.41,0.08039217426,-0.04324637477
5.42,0.07841362813,-0.04628631751
5.43,0.07632474443,-0.04923562675
5.44,0.07412969362,-0.05209061908
5.45,0.07183274558,-0.05484780429
5.46,0.06943826058,-0.05750388611
5.47,0.06695068045,-0.0600557626
5.48,0.06437451997,-0.06250052617
5.49,0.06171435847,-0.06483546311
5.5,0.05897483165,-0.06705805289
5.51,0.05616062363,-0.06916596703
5.52,0.05327645933,-0.07115706775
5.53,0.05032709706,-0.07302940628
5.54,0.04731732137,-0.07478122091
5.55,0.04425193627,-0.07641093485
5.56,0.04113575867,-0.07791715387
5.57,0.03797361209,-0.07929866372
5.58,0.03477032078,-0.08055442746
5.59,0.03153070396,-0.08168358256
5.6,0.02825957053,-0.08268543799
5.61,0.02496171391,-0.08355947116
5.62,0.02164190727,-0.08430532479
5.63,0.01830489895,-0.08492280377
5.64,0.01495540823,-0.08541187195
5.65,0.01159812124,-0.08577264895
5.66,0.008237687226,-0.08600540698
5.67,0.004878714974,-0.08611056764
5.68,0.001525769466,-0.0860886988
5.69,-0.001816631246,-0.08594051157
5.7,-0.005144018999,-0.0856668572
5.71,-0.008451978297,-0.08526872422
5.72,-0.01173614893,-0.08474723552
5.73,-0.01499222847,-0.08410364563
5.74,-0.01821597461,-0.08333933803
5.75,-0.02140320745,-0.08245582256
5.76,-0.02454981167,-0.08145473299
5.77,-0.02765173858,-0.08033782464
5.78,-0.03070500822,-0.07910697209
5.79,-0.03370571133,-0.07776416708
5.8,-0.03665001136,-0.0763115164
5.81,-0.03953414643,-0.07475123994
5.82,-0.04235443132,-0.07308566883
5.83,-0.04510725946,-0.07131724362
5.84,-0.04778910502,-0.06944851255
5.85,-0.05039652495,-0.0674821299
5.86,-0.05292616116,-0.06542085436
5.87,-0.05537474272,-0.06326754748
5.88,-0.05773908818,-0.06102517209
5.89,-0.06001610794,-0.05869679079
5.9,-0.06220280671,-0.0562855644
5.91,-0.06429628613,-0.05379475041
5.92,-0.06629374738,-0.05122770137
5.93,-0.06819249402,-0.0485878633
5.94,-0.06998993483,-0.04587877398
5.95,-0.07168358684,-0.04310406116
5.96,-0.07327107836,-0.04026744067
5.97,-0.07475015221,-0.03737271452
5.98,-0.07611866903,-0.03442376867
5.99,-0.07737461056,-0.03142457089
6,-0.07851608317,-0.02837916826
