"Freq [GHz]","re(S(Tx_p1,Tx_p1)) []","im(S(Tx_p1,Tx_p1)) []"
1,-0.03072128973,-0.192428259
1.01,-0.03763718493,-0.1910473772
1.02,-0.04452253627,-0.1894030134
1.03,-0.05136540837,-0.1874948849
1.04,-0.05815385215,-0.1853233302
1.05,-0.06487593551,-0.1828893049
1.06,-0.07151977332,-0.1801943755
1.07,-0.0780735572,-0.1772407129
1.08,-0.08452558453,-0.1740310841
1.09,-0.09086428704,-0.1705688431
1.1,-0.09707825875,-0.1668579203
1.11,-0.1031562832,-0.1629028114
1.12,-0.1090873601,-0.1587085642
1.13,-0.1148607309,-0.1542807654
1.14,-0.1204659041,-0.1496255256
1.15,-0.1258926794,-0.1447494639
1.16,-0.1311311709,-0.1396596907
1.17,-0.1361718296,-0.1343637905
1.18,-0.1410054646,-0.1288698033
1.19,-0.1456232642,-0.1231862048
1.2,-0.1500168149,-0.117321887
1.21,-0.1541781197,-0.1112861366
1.22,-0.1580996162,-0.1050886135
1.23,-0.1617741918,-0.09873932861
1.24,-0.1651952001,-0.09224862097
1.25,-0.1683564736,-0.08562713399
1.26,-0.1712523376,-0.07888579163
1.27,-0.1738776211,-0.07203577386
1.28,-0.1762276678,-0.06508849186
1.29,-0.1782983449,-0.05805556275
1.3,-0.1800860514,-0.05094878409
1.31,-0.1815877247,-0.04378010814
1.32,-0.1828008463,-0.03656161594
1.33,-0.1837234461,-0.02930549128
1.34,-0.1843541052,-0.02202399454
1.35,-0.1846919582,-0.01472943661
1.36,-0.1847366934,-0.007434152802
1.37,-0.1844885525,-0.0001504768698
1.38,-0.1839483285,0.007109284815
1.39,-0.1831173629,0.01433287886
1.4,-0.1819975416,0.02150813019
1.41,-0.180591289,0.0286229671
1.42,-0.1789015622,0.03566544585
1.43,-0.1769318429,0.04262377495
1.44,-0.174686129,0.04948633891
1.45,-0.1721689244,0.05624172145
1.46,-0.1693852287,0.0628787282
1.47,-0.1663405249,0.06938640879
1.48,-0.1630407669,0.07575407818
1.49,-0.1594923655,0.08197133746
1.5,-0.1557021741,0.08802809377
1.51,-0.1516774731,0.09391457952
1.52,-0.1474259531,0.09962137077
1.53,-0.1429556985,0.1051394048
1.54,-0.1382751692,0.1104599967
1.55,-0.1333931824,0.1155748553
1.56,-0.1283188929,0.1204760978
1.57,-0.1230617738,0.1251562636
1.58,-0.1176315962,0.1296083276
1.59,-0.1120384079,0.1338257114
1.6,-0.1062925126,0.1378022949
1.61,-0.100404448,0.1415324255
1.62,-0.09438496374,0.1450109272
1.63,-0.0882449991,0.1482331083
1.64,-0.0819956605,0.1511947678
1.65,-0.07564819863,0.1538922012
1.66,-0.06921398552,0.1563222049
1.67,-0.06270449157,0.1584820798
1.68,-0.05613126242,0.160369633
1.69,-0.04950589595,0.1619831799
1.7,-0.04284001923,0.1633215437
1.71,-0.03614526564,0.1643840548
1.72,-0.02943325213,0.1651705489
1.73,-0.02271555671,0.1656813639
1.74,-0.01600369612,0.1659173359
1.75,-0.00930910386,0.1658797945
1.76,-0.002643108578,0.1655705563
1.77,0.003983087222,0.1649919184
1.78,0.01055842798,0.1641466504
1.79,0.01707202546,0.1630379854
1.8,0.02351317854,0.1616696106
1.81,0.02987139255,0.1600456566
1.82,0.03613639794,0.158170686
1.83,0.04229816838,0.1560496815
1.84,0.04834693815,0.1536880327
1.85,0.05427321893,0.1510915224
1.86,0.06006781572,0.1482663125
1.87,0.06572184222,0.1452189291
1.88,0.07122673523,0.1419562463
1.89,0.07657426842,0.138485471
1.9,0.08175656517,0.1348141251
1.91,0.08676611062,0.1309500292
1.92,0.09159576288,0.1269012846
1.93,0.09623876333,0.1226762551
1.94,0.100688746,0.1182835489
1.95,0.1049397464,0.1137319997
1.96,0.1089862085,0.1090306477
1.97,0.1128229922,0.1041887205
1.98,0.1164453788,0.09921561359
1.99,0.1198490756,0.09412087066
2,0.1230302204,0.08891416424
2.01,0.1259853843,0.0836052758
2.02,0.1287115735,0.07820407604
2.03,0.1312062313,0.07272050528
2.04,0.1334672374,0.06716455375
2.05,0.1354929084,0.06154624218
2.06,0.1372819955,0.0558756024
2.07,0.1388336825,0.05016265825
2.08,0.1401475827,0.04441740661
2.09,0.1412237348,0.03864979883
2.1,0.1420625978,0.03286972236
2.11,0.142665046,0.02708698282
2.12,0.143032362,0.02131128637
2.13,0.1431662299,0.01555222258
2.14,0.1430687271,0.009819247644
2.15,0.1427423161,0.00412166819
2.16,0.142189835,-0.001531374495
2.17,0.1414144877,-0.007130919658
2.18,0.1404198333,-0.01266820173
2.19,0.139209775,-0.01813466437
2.2,0.1377885488,-0.02352197393
2.21,0.1361607108,-0.02882203228
2.22,0.1343311248,-0.03402698893
2.23,0.1323049494,-0.03912925262
2.24,0.1300876242,-0.04412150203
2.25,0.127684856,-0.04899669601
2.26,0.1251026045,-0.05374808292
2.27,0.122347068,-0.05836920936
2.28,0.1194246683,-0.06285392813
2.29,0.1163420357,-0.06719640545
2.3,0.1131059939,-0.07139112748
2.31,0.1097235442,-0.07543290604
2.32,0.1062018505,-0.07931688362
2.33,0.1025482233,-0.08303853765
2.34,0.09877010399,-0.08659368404
2.35,0.09487504921,-0.08997847989
2.36,0.0908707152,-0.0931894256
2.37,0.08676484207,-0.0962233662
2.38,0.08256523823,-0.09907749188
2.39,0.07827976495,-0.101749338
2.4,0.07391632106,-0.104236784
2.41,0.06948282777,-0.1065380526
2.42,0.06498721377,-0.1086517067
2.43,0.06043740055,-0.1105766473
2.44,0.05584128796,-0.1123121099
2.45,0.0512067401,-0.1138576603
2.46,0.04654157151,-0.1152131901
2.47,0.04185353367,-0.1163789114
2.48,0.03715030197,-0.1173553509
2.49,0.03243946295,-0.1181433441
2.5,0.02772850205,-0.1187440278
2.51,0.02302479173,-0.1191588332
2.52,0.01833558005,-0.1193894784
2.53,0.01366797979,-0.1194379594
2.54,0.009028957901,-0.1193065424
2.55,0.004425325639,-0.1189977544
2.56,-0.0001362709451,-0.1185143737
2.57,-0.004649359907,-0.1178594207
2.58,-0.009107651808,-0.1170361478
2.59,-0.01350504758,-0.116048029
2.6,-0.01783564581,-0.1148987497
2.61,-0.02209374953,-0.1135921959
2.62,-0.02627387239,-0.1121324436
2.63,-0.03037074434,-0.1105237475
2.64,-0.03437931667,-0.1087705301
2.65,-0.03829476654,-0.1068773704
2.66,-0.04211250101,-0.1048489929
2.67,-0.04582816036,-0.1026902558
2.68,-0.04943762104,-0.10040614
2.69,-0.05293699793,-0.09800173794
2.7,-0.05632264617,-0.09548224184
2.71,-0.0595911624,-0.09285293289
2.72,-0.06273938547,-0.09011916999
2.73,-0.06576439672,-0.08728637873
2.74,-0.06866351968,-0.08436004052
2.75,-0.07143431931,-0.08134568188
2.76,-0.07407460082,-0.07824886387
2.77,-0.07658240795,-0.07507517179
2.78,-0.07895602084,-0.071830205
2.79,-0.08119395356,-0.06851956709
2.8,-0.08329495107,-0.06514885616
2.81,-0.08525798593,-0.06172365556
2.82,-0.08708225458,-0.05824952471
2.83,-0.08876717327,-0.0547319904
2.84,-0.09031237367,-0.05117653826
2.85,-0.09171769816,-0.04758860467
2.86,-0.09298319481,-0.04397356891
2.87,-0.09410911211,-0.04033674573
2.88,-0.09509589346,-0.03668337823
2.89,-0.09594417141,-0.03301863112
2.9,-0.09665476166,-0.02934758434
2.91,-0.09722865696,-0.02567522705
2.92,-0.09766702072,-0.02200645199
2.93,-0.09797118061,-0.01834605026
2.94,-0.09814262191,-0.0146987064
2.95,-0.09818298087,-0.01106899396
2.96,-0.09809403789,-0.007461371315
2.97,-0.09787771066,-0.003880178001
2.98,-0.09753604734,-0.0003296313086
2.99,-0.09707121959,0.003186176683
3,-0.0964855157,0.006663281737
3.01,-0.09578133366,0.01009784971
3.02,-0.0949611743,0.01348617848
3.03,-0.09402763451,0.01682469947
3.04,-0.09298340042,0.02010997892
3.05,-0.09183124082,0.02333871875
3.06,-0.09057400051,0.02650775712
3.07,-0.08921459393,0.02961406875
3.08,-0.08775599875,0.03265476486
3.09,-0.08620124976,0.03562709287
3.1,-0.08455343278,0.03852843579
3.11,-0.08281567883,0.04135631142
3.12,-0.08099115843,0.04410837124
3.13,-0.07908307607,0.04678239911
3.14,-0.07709466493,0.04937630969
3.15,-0.07502918174,0.05188814677
3.16,-0.07288990191,0.05431608131
3.17,-0.07068011479,0.05665840934
3.18,-0.06840311927,0.05891354973
3.19,-0.06606221946,0.06108004179
3.2,-0.06366072074,0.06315654273
3.21,-0.06120192593,0.06514182508
3.22,-0.05868913176,0.06703477392
3.23,-0.05612562552,0.0688343841
3.24,-0.05351468201,0.07053975734
3.25,-0.05085956061,0.07215009938
3.26,-0.04816350272,0.07366471694
3.27,-0.0454297293,0.07508301479
3.28,-0.04266143869,0.07640449279
3.29,-0.03986180467,0.07762874284
3.3,-0.03703397467,0.07875544599
3.31,-0.03418106821,0.07978436949
3.32,-0.03130617557,0.08071536388
3.33,-0.02841235664,0.08154836022
3.34,-0.02550263988,0.08228336727
3.35,-0.02258002159,0.08292046884
3.36,-0.01964746523,0.08345982117
3.37,-0.01670790094,0.08390165047
3.38,-0.01376422523,0.08424625046
3.39,-0.01081930078,0.08449398013
3.4,-0.007875956333,0.08464526153
3.41,-0.004936986798,0.08470057778
3.42,-0.002005153352,0.08466047109
3.43,0.0009168163049,0.08452554103
3.44,0.003826227628,0.08429644287
3.45,0.006720418842,0.08397388604
3.46,0.009596760501,0.08355863287
3.47,0.01245265499,0.08305149725
3.48,0.01528553603,0.08245334366
3.49,0.0180928681,0.08176508623
3.5,0.0208721459,0.08098768791
3.51,0.02362089385,0.08012215991
3.52,0.02633666549,0.07916956114
3.53,0.02901704301,0.07813099791
3.54,0.03165963679,0.07700762369
3.55,0.03426208497,0.07580063898
3.56,0.03682205309,0.0745112914
3.57,0.03933723377,0.07314087581
3.58,0.04180534655,0.07169073457
3.59,0.04422413772,0.07016225791
3.6,0.04659138029,0.0685568844
3.61,0.04890487407,0.0668761015
3.62,0.05116244584,0.06512144617
3.63,0.05336194966,0.0632945056
3.64,0.05550126727,0.06139691796
3.65,0.05757830865,0.05943037323
3.66,0.05959101273,0.05739661402
3.67,0.06153734816,0.05529743651
3.68,0.06341531432,0.05313469129
3.69,0.0652229424,0.05091028434
3.7,0.06695829668,0.04862617788
3.71,0.06861947591,0.0462843913
3.72,0.07020461488,0.04388700202
3.73,0.07171188613,0.04143614634
3.74,0.07313950176,0.03893402016
3.75,0.07448571547,0.03638287977
3.76,0.07574882466,0.03378504246
3.77,0.07692717274,0.03114288708
3.78,0.07801915154,0.02845885453
3.79,0.07902320384,0.02573544808
3.8,0.07993782604,0.02297523364
3.81,0.08076157101,0.02018083988
3.82,0.08149305091,0.01735495818
3.83,0.0821309403,0.01450034249
3.84,0.08267397916,0.01161980894
3.85,0.08312097617,0.008716235424
3.86,0.08347081194,0.005792560865
3.87,0.08372244239,0.002851784389
3.88,0.08387490217,-0.0001030357273
3.89,0.08392730811,-0.003068783297
3.9,0.08387886269,-0.006042285666
3.91,0.08372885765,-0.009020315369
3.92,0.08347667743,-0.011999592
3.93,0.08312180281,-0.01497678427
3.94,0.08266381436,-0.01794851238
3.95,0.082102396,-0.02091135045
3.96,0.08143733844,-0.02386182937
3.97,0.08066854263,-0.02679643972
3.98,0.07979602307,-0.02971163502
3.99,0.07881991111,-0.03260383513
4,0.07774045813,-0.03546942992
4.01,0.07655803859,-0.03830478319
4.02,0.07527315301,-0.04110623672
4.03,0.07388643079,-0.04387011466
4.04,0.07239863284,-0.04659272798
4.05,0.07081065411,-0.04927037931
4.06,0.06912352595,-0.0518993678
4.07,0.06733841818,-0.0544759943
4.08,0.06545664112,-0.05699656671
4.09,0.06347964723,-0.0594574054
4.1,0.06140903266,-0.06185484899
4.11,0.05924653851,-0.0641852601
4.12,0.05699405183,-0.06644503136
4.13,0.05465360637,-0.06863059153
4.14,0.05222738306,-0.07073841176
4.15,0.04971771025,-0.07276501191
4.16,0.04712706355,-0.07470696701
4.17,0.04445806553,-0.07656091386
4.18,0.04171348498,-0.07832355755
4.19,0.03889623591,-0.07999167821
4.2,0.03600937625,-0.0815621377
4.21,0.03305610622,-0.08303188629
4.22,0.0300397663,-0.08439796951
4.23,0.02696383502,-0.08565753481
4.24,0.02383192624,-0.08680783828
4.25,0.02064778622,-0.08784625138
4.26,0.01741529031,-0.08877026749
4.27,0.01413843926,-0.08957750852
4.28,0.01082135528,-0.09026573129
4.29,0.007468277699,-0.09083283391
4.3,0.004083558285,-0.09127686198
4.31,0.0006716562839,-0.09159601466
4.32,-0.002762866914,-0.09178865055
4.33,-0.006215353404,-0.09185329344
4.34,-0.009681054722,-0.09178863779
4.35,-0.0131551381,-0.09159355407
4.36,-0.01663269305,-0.09126709384
4.37,-0.02010873817,-0.09080849453
4.38,-0.02357822833,-0.09021718403
4.39,-0.02703606203,-0.08949278497
4.4,-0.03047708911,-0.08863511869
4.41,-0.03389611861,-0.08764420893
4.42,-0.03728792696,-0.08652028515
4.43,-0.04064726632,-0.08526378557
4.44,-0.04396887316,-0.0838753598
4.45,-0.047247477,-0.08235587114
4.46,-0.05047780937,-0.08070639849
4.47,-0.05365461291,-0.0789282379
4.48,-0.05677265054,-0.07702290369
4.49,-0.05982671489,-0.07499212915
4.5,-0.06281163769,-0.07283786691
4.51,-0.06572229936,-0.07056228875
4.52,-0.06855363855,-0.06816778513
4.53,-0.07130066188,-0.06565696417
4.54,-0.07395845352,-0.06303265027
4.55,-0.0765221849,-0.0602978822
4.56,-0.0789871244,-0.05745591083
4.57,-0.08134864691,-0.05451019638
4.58,-0.08360224344,-0.05146440518
4.59,-0.08574353056,-0.04832240606
4.6,-0.08776825978,-0.04508826622
4.61,-0.08967232683,-0.04176624667
4.62,-0.09145178073,-0.0383607973
4.63,-0.0931028327,-0.03487655138
4.64,-0.09462186499,-0.03131831977
4.65,-0.09600543932,-0.02769108457
4.66,-0.09725030523,-0.02399999248
4.67,-0.09835340814,-0.02025034765
4.68,-0.09931189709,-0.01644760419
4.69,-0.1001231322,-0.01259735824
4.7,-0.1007846921,-0.008705339749
4.71,-0.1012943801,-0.004777403786
4.72,-0.1016502317,-0.0008195215738
4.73,-0.1018505197,0.003162228845
4.74,-0.1018937607,0.007161672252
4.75,-0.1017787198,0.0111725462
4.76,-0.1015044161,0.01518851126
4.77,-0.1010701269,0.0192031615
4.78,-0.1004753916,0.02321003529
4.79,-0.09972001569,0.02720262623
4.8,-0.09880407337,0.03117439438
4.81,-0.09772791056,0.03511877764
4.82,-0.09649214683,0.03902920328
4.83,-0.09509767709,0.04289909966
4.84,-0.09354567266,0.04672190804
4.85,-0.09183758188,0.05049109448
4.86,-0.08997513019,0.05420016187
4.87,-0.0879603196,0.05784266193
4.88,-0.08579542773,0.06141220731
4.89,-0.08348300624,0.06490248365
4.9,-0.08102587874,0.06830726164
4.91,-0.07842713815,0.07162040902
4.92,-0.07569014354,0.07483590251
4.93,-0.07281851636,0.07794783965
4.94,-0.06981613624,0.0809504505
4.95,-0.06668713617,0.08383810923
4.96,-0.06343589715,0.08660534549
4.97,-0.0600670424,0.0892468556
4.98,-0.05658543095,0.09175751355
4.99,-0.05299615078,0.0941323817
5,-0.04930451145,0.09636672127
5.01,-0.04551603627,0.09845600246
5.02,-0.04163645393,0.1003959143
5.03,-0.03767168973,0.1021823744
5.04,-0.03362785632,0.1038115374
5.05,-0.02951124407,0.1052798048
5.06,-0.02532831094,0.1065838323
5.07,-0.02108567199,0.1077205385
5.08,-0.01679008854,0.1086871118
5.09,-0.01244845694,0.1094810179
5.1,-0.008067796956,0.1101000061
5.11,-0.003655239929,0.1105421157
5.12,0.0007819834515,0.1108056808
5.13,0.005236555599,0.1108893365
5.14,0.009701084757,0.1107920221
5.15,0.01416811795,0.1105129862
5.16,0.01863015413,0.1100517891
5.17,0.02307965754,0.1094083065
5.18,0.02750907116,0.1085827311
5.19,0.03191083036,0.1075755742
5.2,0.03627737663,0.1063876674
5.21,0.04060117134,0.1050201623
5.22,0.0448747096,0.1034745307
5.23,0.04909053414,0.1017525638
5.24,0.05324124915,0.09985637054
5.25,0.05731953411,0.09778837604
5.26,0.06131815754,0.09555131858
5.27,0.06522999071,0.09314824651
5.28,0.06904802114,0.09058251444
5.29,0.07276536605,0.08785777872
5.3,0.07637528558,0.08497799243
5.31,0.07987119584,0.08194739974
5.32,0.08324668168,0.07877052968
5.33,0.08649550931,0.07545218933
5.34,0.08961163852,0.0719974565
5.35,0.09258923469,0.06841167179
5.36,0.09542268042,0.06470043013
5.37,0.09810658679,0.06086957183
5.38,0.1006358043,0.05692517309
5.39,0.1030054335,0.05287353603
5.4,0.1052108347,0.04872117822
5.41,0.107247638,0.04447482179
5.42,0.1091117524,0.04014138208
5.43,0.1107993742,0.03572795588
5.44,0.1123069955,0.03124180928
5.45,0.1136314117,0.02669036512
5.46,0.1147697286,0.02208119013
5.47,0.1157193689,0.01742198174
5.48,0.1164780784,0.01272055451
5.49,0.1170439313,0.007984826447
5.5,0.1174153348,0.003222804881
5.51,0.1175910335,-0.001557427735
5.52,0.1175701128,-0.006347728294
5.53,0.1173520021,-0.01113990765
5.54,0.1169364768,-0.01592574538
5.55,0.11632366,-0.02069700465
5.56,0.1155140237,-0.02544544718
5.57,0.1145083889,-0.03016284823
5.58,0.1133079254,-0.03484101167
5.59,0.1119141509,-0.03947178496
5.6,0.1103289291,-0.04404707421
5.61,0.1085544679,-0.04855885905
5.62,0.1065933157,-0.05299920751
5.63,0.1044483587,-0.05736029073
5.64,0.1021228159,-0.06163439753
5.65,0.0996202347,-0.06581394879
5.66,0.09694448518,-0.06989151164
5.67,0.09409975401,-0.07385981344
5.68,0.0910905377,-0.07771175541
5.69,0.08792163528,-0.08144042605
5.7,0.08459814035,-0.08503911423
5.71,0.08112543258,-0.0885013219
5.72,0.07750916864,-0.09182077647
5.73,0.07375527261,-0.09499144278
5.74,0.06986992585,-0.09800753466
5.75,0.06585955634,-0.100863526
5.76,0.06173082761,-0.1035541615
5.77,0.05749062711,-0.1060744668
5.78,0.0531460542,-0.108419758
5.79,0.04870440771,-0.110585651
5.8,0.04417317308,-0.11256807
5.81,0.03956000911,-0.1143632556
5.82,0.03487273446,-0.115967772
5.83,0.03011931368,-0.1173785144
5.84,0.02530784307,-0.1185927147
5.85,0.0204465362,-0.1196079473
5.86,0.01554370918,-0.1204221345
5.87,0.0106077658,-0.1210335503
5.88,0.005647182376,-0.1214408243
5.89,0.0006704924891,-0.1216429451
5.9,-0.004313728379,-0.1216392623
5.91,-0.009296878359,-0.1214294882
5.92,-0.01427034474,-0.1210136991
5.93,-0.0192255196,-0.1203923358
5.94,-0.02415381535,-0.1195662028
5.95,-0.0290466804,-0.1185364677
5.96,-0.03389561465,-0.1173046593
5.97,-0.03869218497,-0.1158726655
5.98,-0.04342804054,-0.1142427303
5.99,-0.04809492805,-0.1124174499
6,-0.05268470677,-0.1103997685
