"Freq [GHz]","re(S(Tx_p1,Tx_p1)) []","im(S(Tx_p1,Tx_p1)) []"
1,-0.008340424428,-0.1599604722
1.01,-0.01372222105,-0.1592825276
1.02,-0.0190912043,-0.1584145933
1.03,-0.02443904603,-0.1573561587
1.04,-0.02975741295,-0.156107157
1.05,-0.03503798873,-0.154667959
1.06,-0.0402724956,-0.1530393674
1.07,-0.04545271542,-0.1512226095
1.08,-0.05057051025,-0.1492193295
1.09,-0.05561784217,-0.14703158
1.1,-0.06058679265,-0.1446618122
1.11,-0.06546958117,-0.1421128662
1.12,-0.07025858316,-0.13938796
1.13,-0.07494634733,-0.1364906783
1.14,-0.0795256122,-0.13342496
1.15,-0.08398932189,-0.1301950857
1.16,-0.08833064121,-0.1268056645
1.17,-0.09254296992,-0.1232616199
1.18,-0.09661995616,-0.119568176
1.19,-0.1005555092,-0.115730842
1.2,-0.1043438111,-0.1117553976
1.21,-0.1079793279,-0.1076478773
1.22,-0.1114568196,-0.1034145541
1.23,-0.1147713495,-0.09906192377
1.24,-0.1179182926,-0.09459668804
1.25,-0.1208933432,-0.09002573797
1.26,-0.1236925214,-0.08535613705
1.27,-0.1263121791,-0.0805951042
1.28,-0.1287490047,-0.07574999658
1.29,-0.1310000274,-0.07082829245
1.3,-0.1330626201,-0.06583757393
1.31,-0.134934502,-0.06078550984
1.32,-0.1366137399,-0.05567983861
1.33,-0.138098749,-0.05052835124
1.34,-0.1393882924,-0.04533887443
1.35,-0.1404814805,-0.04011925394
1.36,-0.1413777691,-0.03487733809
1.37,-0.1420769566,-0.02962096156
1.38,-0.1425791811,-0.02435792947
1.39,-0.142884916,-0.01909600177
1.4,-0.1429949655,-0.01384287802
1.41,-0.1429104588,-0.008606182493
1.42,-0.1426328444,-0.003393449759
1.43,-0.1421638833,0.001787889324
1.44,-0.1415056413,0.006930521146
1.45,-0.1406604815,0.01202726238
1.46,-0.1396310556,0.0170710725
1.47,-0.138420295,0.02205506578
1.48,-0.1370314014,0.02697252266
1.49,-0.1354678366,0.03181690068
1.5,-0.1337333125,0.03658184465
1.51,-0.1318317803,0.04126119633
1.52,-0.1297674193,0.04584900345
1.53,-0.1275446256,0.05033952809
1.54,-0.1251680005,0.05472725445
1.55,-0.1226423384,0.05900689596
1.56,-0.1199726151,0.06317340167
1.57,-0.1171639751,0.06722196215
1.58,-0.1142217192,0.07114801454
1.59,-0.1111512922,0.07494724708
1.6,-0.1079582704,0.07861560294
1.61,-0.1046483484,0.08214928337
1.62,-0.1012273271,0.08554475026
1.63,-0.09770110054,0.08879872803
1.64,-0.09407564393,0.0919082049
1.65,-0.09035700071,0.09487043354
1.66,-0.08655127043,0.09768293111
1.67,-0.08266459657,0.1003434787
1.68,-0.07870315451,0.1028501203
1.69,-0.07467313975,0.1052011609
1.7,-0.07058075639,0.1073951645
1.71,-0.06643220579,0.1094309512
1.72,-0.0622336756,0.1113075941
1.73,-0.05799132905,0.1130244153
1.74,-0.05371129458,0.1145809818
1.75,-0.0493996558,0.1159771012
1.76,-0.04506244186,0.1172128161
1.77,-0.04070561815,0.118288399
1.78,-0.03633507743,0.1192043462
1.79,-0.03195663136,0.1199613722
1.8,-0.02757600245,0.1205604025
1.81,-0.02319881648,0.1210025674
1.82,-0.01883059531,0.1212891948
1.83,-0.01447675015,0.1214218029
1.84,-0.01014257535,0.1214020929
1.85,-0.005833242577,0.1212319412
1.86,-0.001553795478,0.1209133916
1.87,0.002690855165,0.1204486477
1.88,0.00689593584,0.1198400645
1.89,0.01105681424,0.1190901406
1.9,0.01516900274,0.1182015099
1.91,0.01922816139,0.1171769337
1.92,0.02323010053,0.1160192923
1.93,0.02717078283,0.1147315769
1.94,0.03104632508,0.1133168819
1.95,0.03485299934,0.1117783965
1.96,0.03858723389,0.1101193971
1.97,0.04224561361,0.1083432394
1.98,0.04582488003,0.1064533509
1.99,0.04932193108,0.1044532233
2,0.05273382033,0.1023464054
2.01,0.05605775603,0.1001364959
2.02,0.05929109972,0.09782713668
2.03,0.06243136461,0.09542200591
2.04,0.0654762136,0.0929248119
2.05,0.06842345709,0.09033928682
2.06,0.07127105048,0.0876691809
2.07,0.07401709151,0.08491825678
2.08,0.07665981731,0.08209028421
2.09,0.07919760131,0.07918903504
2.1,0.08162894996,0.07621827846
2.11,0.08395249931,0.0731817766
2.12,0.08616701145,0.0700832804
2.13,0.08827137088,0.06692652581
2.14,0.09026458072,0.06371523028
2.15,0.09214575893,0.06045308957
2.16,0.09391413443,0.05714377485
2.17,0.09556904327,0.05379093015
2.18,0.09710992465,0.05039817007
2.19,0.09853631717,0.04696907777
2.2,0.09984785489,0.04350720332
2.21,0.1010442636,0.04001606224
2.22,0.102125357,0.03649913438
2.23,0.1030910334,0.03295986305
2.24,0.1039412716,0.02940165437
2.25,0.1046761281,0.02582787691
2.26,0.1052957334,0.02224186152
2.27,0.1058002891,0.01864690138
2.28,0.1061900648,0.01504625229
2.29,0.1064653954,0.0114431331
2.3,0.1066266782,0.007840726317
2.31,0.106674371,0.004242178902
2.32,0.1066089894,0.0006506031818
2.33,0.1064311048,-0.002930922118
2.34,0.1061413429,-0.006499350727
2.35,0.1057403817,-0.01005166759
2.36,0.1052289506,-0.01358488759
2.37,0.1046078288,-0.01709605414
2.38,0.1038778446,-0.02058223785
2.39,0.1030398745,-0.02404053507
2.4,0.1020948432,-0.02746806651
2.41,0.1010437227,-0.03086197583
2.42,0.09988753269,-0.0342194283
2.43,0.09862734074,-0.03753760949
2.44,0.09726426249,-0.04081372403
2.45,0.09579946233,-0.04404499445
2.46,0.09423415425,-0.04722866017
2.47,0.09256960277,-0.05036197654
2.48,0.09080712409,-0.05344221403
2.49,0.08894808747,-0.05646665763
2.5,0.08699391668,-0.05943260628
2.51,0.08494609163,-0.06233737263
2.52,0.08280615013,-0.06517828284
2.53,0.08057568981,-0.06795267664
2.54,0.07825637005,-0.07065790763
2.55,0.07584991408,-0.07329134374
2.56,0.07335811111,-0.07585036789
2.57,0.07078281854,-0.07833237898
2.58,0.06812596421,-0.08073479297
2.59,0.0653895486,-0.08305504437
2.6,0.06257564717,-0.0852905878
2.61,0.05968641258,-0.08743889995
2.62,0.05672407688,-0.08949748166
2.63,0.05369095372,-0.09146386036
2.64,0.05058944043,-0.09333559266
2.65,0.04742202005,-0.09511026726
2.66,0.04419126321,-0.09678550804
2.67,0.04089982995,-0.09835897747
2.68,0.03755047135,-0.09982838015
2.69,0.03414603102,-0.1011914667
2.7,0.03068944643,-0.1024460377
2.71,0.02718375,-0.103589948
2.72,0.02363207004,-0.1046211112
2.73,0.02003763144,-0.1055375043
2.74,0.01640375609,-0.1063371723
2.75,0.01273386312,-0.1070182335
2.76,0.009031468781,-0.1075788845
2.77,0.005300186133,-0.1080174053
2.78,0.001543724375,-0.1083321649
2.79,-0.002234112094,-0.1085216268
2.8,-0.006029424949,-0.1085843543
2.81,-0.009838223518,-0.1085190166
2.82,-0.01365642671,-0.108324394
2.83,-0.01747986527,-0.1079993839
2.84,-0.02130428441,-0.1075430065
2.85,-0.0251253467,-0.1069544106
2.86,-0.02893863548,-0.1062328791
2.87,-0.03273965845,-0.1053778347
2.88,-0.03652385174,-0.1043888455
2.89,-0.04028658427,-0.1032656306
2.9,-0.04402316252,-0.1020080652
2.91,-0.04772883564,-0.100616186
2.92,-0.05139880089,-0.09909019619
2.93,-0.05502820942,-0.09743047033
2.94,-0.05861217248,-0.09563755903
2.95,-0.06214576783,-0.09371219339
2.96,-0.06562404659,-0.0916552892
2.97,-0.06904204036,-0.08946795089
2.98,-0.0723947686,-0.08715147518
2.99,-0.0756772464,-0.08470735438
3,-0.07888449247,-0.08213727946
3.01,-0.08201153737,-0.07944314267
3.02,-0.08505343204,-0.07662703991
3.03,-0.08800525657,-0.0736912726
3.04,-0.09086212909,-0.07063834924
3.05,-0.09361921499,-0.06747098656
3.06,-0.0962717362,-0.06419211015
3.07,-0.0988149807,-0.0608048548
3.08,-0.1012443121,-0.05731256425
3.09,-0.1035551794,-0.05371879055
3.1,-0.1057431269,-0.05002729294
3.11,-0.1078038036,-0.04624203626
3.12,-0.109732974,-0.04236718878
3.13,-0.1115265271,-0.03840711972
3.14,-0.1131804869,-0.03436639602
3.15,-0.114691022,-0.03024977887
3.16,-0.1160544556,-0.02606221951
3.17,-0.1172672752,-0.02180885466
3.18,-0.118326142,-0.01749500137
3.19,-0.1192279007,-0.01312615144
3.2,-0.1199695885,-0.008707965213
3.21,-0.1205484442,-0.00424626502
3.22,-0.1209619175,0.0002529719937
3.23,-0.1212076771,0.004783621452
3.24,-0.1212836192,0.009339419836
3.25,-0.1211878758,0.01391397303
3.26,-0.120918822,0.01850076533
3.27,-0.1204750838,0.02309316888
3.28,-0.1198555447,0.02768445352
3.29,-0.1190593524,0.03226779712
3.3,-0.1180859252,0.03683629617
3.31,-0.1169349573,0.0413829769
3.32,-0.1156064244,0.04590080663
3.33,-0.114100588,0.05038270552
3.34,-0.1124180003,0.05482155862
3.35,-0.1105595072,0.05921022819
3.36,-0.1085262521,0.0635415663
3.37,-0.106319678,0.06780842768
3.38,-0.1039415297,0.07200368275
3.39,-0.1013938553,0.07612023086
3.4,-0.09867900717,0.08015101369
3.41,-0.09579964173,0.08408902875
3.42,-0.09275871941,0.08792734305
3.43,-0.08955950348,0.09165910672
3.44,-0.08620555838,0.09527756681
3.45,-0.08270074737,0.09877608099
3.46,-0.07904922961,0.1021481313
3.47,-0.07525545646,0.1053873377
3.48,-0.07132416728,0.1084874719
3.49,-0.06726038442,0.1114424706
3.5,-0.06306940769,0.1142464487
3.51,-0.05875680812,0.1168937128
3.52,-0.05432842112,0.1193787738
3.53,-0.04979033892,0.1216963597
3.54,-0.04514890255,0.1238414279
3.55,-0.04041069303,0.1258091774
3.56,-0.03558252207,0.1275950604
3.57,-0.03067142218,0.1291947939
3.58,-0.02568463614,0.1306043704
3.59,-0.02062960599,0.1318200687
3.6,-0.01551396145,0.1328384636
3.61,-0.01034550782,0.1336564361
3.62,-0.005132213416,0.1342711819
3.63,0.0001178035335,0.1346802204
3.64,0.00539628835,0.1348814024
3.65,0.01069486386,0.1348729177
3.66,0.01600504472,0.1346533019
3.67,0.02131825212,0.1342214423
3.68,0.02662582881,0.133576584
3.69,0.03191905449,0.1327183342
3.7,0.03718916139,0.1316466666
3.71,0.04242735022,0.130361925
3.72,0.04762480621,0.128864826
3.73,0.05277271545,0.127156461
3.74,0.0578622813,0.1252382976
3.75,0.06288474096,0.1231121799
3.76,0.06783138208,0.120780329
3.77,0.07269355952,0.118245341
3.78,0.07746271195,0.1155101865
3.79,0.08213037858,0.1125782072
3.8,0.08668821578,0.1094531131
3.81,0.09112801355,0.1061389784
3.82,0.09544171194,0.1026402366
3.83,0.09962141725,0.09896167548
3.84,0.103659418,0.09510843018
3.85,0.1075482008,0.09108597658
3.86,0.1112804657,0.08690012348
3.87,0.1148491415,0.08255700407
3.88,0.1182474005,0.07806306678
3.89,0.1214686729,0.07342506544
3.9,0.1245066609,0.06865004865
3.91,0.1273553525,0.06374534862
3.92,0.1300090342,0.05871856927
3.93,0.1324623039,0.05357757381
3.94,0.1347100828,0.04833047158
3.95,0.1367476273,0.04298560449
3.96,0.1385705391,0.03755153275
3.97,0.1401747764,0.03203702019
3.98,0.1415566629,0.02645101904
3.99,0.1427128972,0.02080265426
4,0.1436405605,0.01510120741
4.01,0.1443371248,0.009356100182
4.02,0.1448004595,0.00357687747
4.03,0.1450288373,-0.002226809798
4.04,0.1450209396,-0.008045222198
4.05,0.1447758611,-0.01386854958
4.06,0.1442931137,-0.01968692908
4.07,0.1435726288,-0.02549046332
4.08,0.1426147604,-0.03126923876
4.09,0.1414202852,-0.03701334417
4.1,0.1399904041,-0.04271288919
4.11,0.1383267411,-0.04835802295
4.12,0.1364313427,-0.05393895258
4.13,0.134306675,-0.05944596189
4.14,0.1319556217,-0.06486942976
4.15,0.1293814798,-0.07019984854
4.16,0.1265879551,-0.07542784231
4.17,0.1235791572,-0.08054418483
4.18,0.1203595926,-0.08553981743
4.19,0.1169341584,-0.09040586646
4.2,0.1133081341,-0.09513366058
4.21,0.1094871732,-0.0997147476
4.22,0.1054772936,-0.104140911
4.23,0.101284868,-0.1084041862
4.24,0.09691661236,-0.1124968759
4.25,0.0923795752,-0.1164115654
4.26,0.08768112481,-0.1201411374
4.27,0.0828289366,-0.1236787859
4.28,0.07783097959,-0.1270180301
4.29,0.07269550225,-0.1301527267
4.3,0.06743101787,-0.133077083
4.31,0.06204628924,-0.1357856679
4.32,0.05655031296,-0.1382734233
4.33,0.05095230312,-0.140535674
4.34,0.04526167459,-0.1425681378
4.35,0.03948802591,-0.1443669336
4.36,0.0336411217,-0.1459285899
4.37,0.02773087485,-0.1472500518
4.38,0.02176732822,-0.1483286878
4.39,0.01576063622,-0.1491622947
4.4,0.009721046029,-0.1497491032
4.41,0.003658878701,-0.1500877813
4.42,-0.002415489988,-0.1501774377
4.43,-0.008491648757,-0.1500176237
4.44,-0.01455917015,-0.1496083349
4.45,-0.02060762991,-0.1489500119
4.46,-0.02662662638,-0.1480435393
4.47,-0.03260579986,-0.146890245
4.48,-0.03853485189,-0.1454918982
4.49,-0.04440356445,-0.143850706
4.5,-0.05020181897,-0.1419693101
4.51,-0.05591961524,-0.1398507818
4.52,-0.06154708998,-0.137498617
4.53,-0.06707453524,-0.1349167293
4.54,-0.07249241649,-0.1321094435
4.55,-0.07779139031,-0.1290814871
4.56,-0.0829623218,-0.1258379822
4.57,-0.08799630151,-0.1223844359
4.58,-0.09288466198,-0.1187267298
4.59,-0.09761899378,-0.1148711094
4.6,-0.1021911611,-0.1108241725
4.61,-0.1065933165,-0.1065928567
4.62,-0.1108179159,-0.1021844269
4.63,-0.1148577319,-0.09760646106
4.64,-0.1187058671,-0.0928668368
4.65,-0.1223557669,-0.08797371619
4.66,-0.1258012314,-0.08293553069
4.67,-0.1290364261,-0.07776096534
4.68,-0.1320558933,-0.07245894257
4.69,-0.1348545608,-0.06703860554
4.7,-0.1374277518,-0.06150930104
4.71,-0.1397711927,-0.05588056207
4.72,-0.1418810205,-0.05016209009
4.73,-0.1437537896,-0.04436373691
4.74,-0.1453864778,-0.03849548641
4.75,-0.1467764906,-0.03256743598
4.76,-0.1479216665,-0.02658977774
4.77,-0.1488202791,-0.02057277975
4.78,-0.1494710406,-0.01452676692
4.79,-0.149873103,-0.00846210201
4.8,-0.1500260589,-0.002389166532
4.81,-0.1499299415,0.00368165836
4.82,-0.1495852239,0.009740010898
4.83,-0.1489928171,0.01577556766
4.84,-0.1481540677,0.02177806243
4.85,-0.1470707543,0.02773730487
4.86,-0.1457450836,0.03364319898
4.87,-0.1441796851,0.03948576145
4.88,-0.1423776054,0.04525513955
4.89,-0.1403423019,0.05094162891
4.9,-0.138077635,0.05653569084
4.91,-0.1355878603,0.06202796932
4.92,-0.1328776199,0.06740930762
4.93,-0.1299519328,0.07267076445
4.94,-0.1268161844,0.07780362967
4.95,-0.1234761163,0.08279943947
4.96,-0.1199378141,0.08764999109
4.97,-0.1162076958,0.09234735695
4.98,-0.1122924989,0.09688389822
4.99,-0.1081992672,0.1012522778
5,-0.103935337,0.1054454727
5.01,-0.09950832279,0.1094567856
5.02,-0.09492610266,0.1132798561
5.03,-0.0901968029,0.116908671
5.04,-0.08532878257,0.1203375741
5.05,-0.08033061745,0.1235612748
5.06,-0.07521108377,0.1265748567
5.07,-0.06997914159,0.129373785
5.08,-0.06464391789,0.1319539129
5.09,-0.05921468952,0.1343114883
5.1,-0.05370086578,0.1364431583
5.11,-0.048111971,0.1383459739
5.12,-0.04245762689,0.1400173937
5.13,-0.03674753481,0.1414552869
5.14,-0.03099145799,0.1426579348
5.15,-0.02519920375,0.143624033
5.16,-0.01938060563,0.1443526911
5.17,-0.01354550572,0.144843433
5.18,-0.007703736901,0.1450961954
5.19,-0.001865105322,0.1451113267
5.2,0.00396062704,0.1448895835
5.21,0.009763759616,0.1444321283
5.22,0.01553467029,0.1437405247
5.23,0.02126383217,0.1428167329
5.24,0.02694183014,0.1416631045
5.25,0.03255937703,0.1402823758
5.26,0.03810732952,0.1386776616
5.27,0.04357670363,0.136852447
5.28,0.0489586899,0.1348105799
5.29,0.05424466804,0.1325562617
5.3,0.05942622121,0.1300940383
5.31,0.06449514984,0.1274287901
5.32,0.06944348492,0.1245657214
5.33,0.07426350081,0.1215103494
5.34,0.07894772748,0.1182684927
5.35,0.08348896225,0.1148462593
5.36,0.08788028091,0.1112500342
5.37,0.09211504828,0.1074864664
5.38,0.09618692814,0.1035624557
5.39,0.1000898926,0.09948513909
5.4,0.1038182307,0.09526187674
5.41,0.1073665566,0.09090023766
5.42,0.110729817,0.08640798523
5.43,0.1139032975,0.08179306234
5.44,0.1168826292,0.07706357637
5.45,0.1196637939,0.07222778401
5.46,0.1222431286,0.06729407585
5.47,0.1246173298,0.06227096089
5.48,0.1267834568,0.05716705101
5.49,0.1287389341,0.05199104524
5.5,0.1304815539,0.04675171415
5.51,0.132009477,0.04145788412
5.52,0.1333212334,0.0361184217
5.53,0.1344157225,0.030742218
5.54,0.1352922122,0.02533817319
5.55,0.1359503376,0.01991518108
5.56,0.1363900992,0.01448211388
5.57,0.1366118596,0.009047807107
5.58,0.136616341,0.003621044674
5.59,0.1364046207,-0.001789455751
5.6,0.135978127,-0.00717505718
5.61,0.1353386339,-0.01252721745
5.62,0.1344882553,-0.01783750306
5.63,0.1334294393,-0.02309760274
5.64,0.1321649609,-0.0282993406
5.65,0.1306979152,-0.03343468895
5.66,0.1290317091,-0.0384957808
5.67,0.1271700536,-0.04347492184
5.68,0.1251169548,-0.04836460208
5.69,0.1228767048,-0.05315750705
5.7,0.1204538722,-0.05784652852
5.71,0.1178532922,-0.06242477475
5.72,0.1150800562,-0.06688558028
5.73,0.112139501,-0.07122251524
5.74,0.1090371981,-0.07542939409
5.75,0.1057789424,-0.0795002839
5.76,0.1023707403,-0.08342951211
5.77,0.09881879851,-0.08721167373
5.78,0.09512951131,-0.09084163798
5.79,0.09130944887,-0.09431455445
5.8,0.0873653446,-0.09762585865
5.81,0.08330408269,-0.100771277
5.82,0.07913268538,-0.1037468315
5.83,0.07485830026,-0.1065488432
5.84,0.07048818733,-0.1091739361
5.85,0.06602970619,-0.1116190394
5.86,0.06149030307,-0.1138813902
5.87,0.05687749791,-0.1159585351
5.88,0.05219887144,-0.1178483309
5.89,0.04746205235,-0.119548946
5.9,0.04267470447,-0.1210588598
5.91,0.03784451405,-0.1223768624
5.92,0.0329791772,-0.1235020541
5.93,0.02808638737,-0.1244338431
5.94,0.0231738231,-0.1251719444
5.95,0.0182491358,-0.1257163767
5.96,0.01331993785,-0.1260674595
5.97,0.008393790848,-0.1262258102
5.98,0.003478194064,-0.1261923397
5.99,-0.001419426813,-0.1259682484
6,-0.006291730697,-0.1255550213
