"Freq [GHz]","re(S(Tx_p1,Tx_p1)) []","im(S(Tx_p1,Tx_p1)) []"
1,-0.02364498612,-0.1004814323
1.01,-0.02715452054,-0.09955139439
1.02,-0.03064204721,-0.09849865907
1.03,-0.03410287122,-0.09732333931
1.04,-0.03753230877,-0.09602573573
1.05,-0.04092569194,-0.09460633281
1.06,-0.04427837306,-0.09306579525
1.07,-0.04758572884,-0.09140496469
1.08,-0.05084316423,-0.08962485667
1.09,-0.05404611601,-0.08772665784
1.1,-0.05719005634,-0.08571172351
1.11,-0.060270496,-0.08358157537
1.12,-0.06328298772,-0.08133789961
1.13,-0.06622312935,-0.07898254522
1.14,-0.06908656709,-0.07651752261
1.15,-0.07186899874,-0.07394500243
1.16,-0.07456617701,-0.07126731465
1.17,-0.07717391295,-0.06848694782
1.18,-0.07968807956,-0.06560654859
1.19,-0.08210461551,-0.0626289213
1.2,-0.08441952911,-0.05955702775
1.21,-0.08662890252,-0.05639398711
1.22,-0.08872889616,-0.05314307583
1.23,-0.09071575347,-0.04980772763
1.24,-0.09258580588,-0.04639153351
1.25,-0.09433547818,-0.04289824164
1.26,-0.09596129407,-0.03933175729
1.27,-0.09745988221,-0.03569614254
1.28,-0.09882798238,-0.03199561588
1.29,-0.1000624522,-0.0282345516
1.3,-0.1011602739,-0.02441747894
1.31,-0.1021185616,-0.02054908097
1.32,-0.1029345689,-0.01663419311
1.33,-0.1036056965,-0.01267780131
1.34,-0.1041295005,-0.008685039833
1.35,-0.1045037002,-0.004661188577
1.36,-0.1047261873,-0.0006116699415
1.37,-0.1047950338,0.003457954834
1.38,-0.1047085013,0.007541989867
1.39,-0.1044650497,0.0116346094
1.4,-0.1040633463,0.01572986315
1.41,-0.1035022744,0.01982168234
1.42,-0.1027809429,0.02390388627
1.43,-0.1018986945,0.02797018962
1.44,-0.1008551149,0.03201421043
1.45,-0.09965004136,0.0360294787
1.46,-0.09828357071,0.04000944573
1.47,-0.09675606782,0.04394749409
1.48,-0.09506817314,0.04783694836
1.49,-0.09322081009,0.05167108643
1.5,-0.09121519197,0.05544315157
1.51,-0.08905282838,0.05914636508
1.52,-0.08673553105,0.06277393957
1.53,-0.0842654191,0.06631909292
1.54,-0.08164492363,0.06977506269
1.55,-0.07887679161,0.07313512116
1.56,-0.07596408896,0.07639259089
1.57,-0.07291020291,0.07954086061
1.58,-0.06971884346,0.08257340173
1.59,-0.06639404391,0.08548378499
1.6,-0.06294016057,0.08826569767
1.61,-0.05936187141,0.09091296081
1.62,-0.05566417373,0.09341954686
1.63,-0.05185238088,0.09577959731
1.64,-0.04793211782,0.09798744047
1.65,-0.0439093157,0.1000376093
1.66,-0.03979020535,0.1019248589
1.67,-0.03558130961,0.1036441846
1.68,-0.03128943469,0.1051908387
1.69,-0.02692166028,0.1065603483
1.7,-0.0224853287,0.1077485313
1.71,-0.01798803292,0.1087515135
1.72,-0.01343760346,0.1095657441
1.73,-0.008842094339,0.110188011
1.74,-0.004209767904,0.1106154557
1.75,0.0004509212546,0.110845587
1.76,0.005131343399,0.1108762945
1.77,0.009822711645,0.1107058607
1.78,0.01451610083,0.1103329728
1.79,0.01920246723,0.1097567328
1.8,0.02387266902,0.1089766673
1.81,0.02851748748,0.1079927357
1.82,0.03312764882,0.1068053376
1.83,0.03769384664,0.1054153186
1.84,0.04220676488,0.1038239755
1.85,0.04665710118,0.1020330597
1.86,0.05103559071,0.1000447795
1.87,0.0553330302,0.09786180083
1.88,0.05954030221,0.09548724711
1.89,0.06364839956,0.09292469731
1.9,0.06764844974,0.0901781827
1.91,0.07153173937,0.08725218228
1.92,0.07528973843,0.0841516167
1.93,0.07891412436,0.08088184086
1.94,0.08239680581,0.077448635
1.95,0.08572994601,0.07385819446
1.96,0.08890598567,0.0701171181
1.97,0.09191766533,0.06623239524
1.98,0.09475804699,0.06221139146
1.99,0.09742053515,0.05806183294
2,0.09989889689,0.05379178965
2.01,0.1021872812,0.04940965735
2.02,0.104280237,0.04492413836
2.03,0.1061727311,0.04034422134
2.04,0.1078601633,0.03567915992
2.05,0.1093383823,0.03093845052
2.06,0.1106036991,0.02613180906
2.07,0.1116528992,0.02126914708
2.08,0.1124832543,0.01636054692
2.09,0.1130925315,0.01141623633
2.1,0.1134790019,0.006446562474
2.11,0.1136414474,0.001461965437
2.12,0.1135791661,-0.003527048688
2.13,0.1132919759,-0.008509935018
2.14,0.1127802172,-0.01347613735
2.15,0.1120447532,-0.01841511572
2.16,0.1110869694,-0.02331637409
2.17,0.1099087711,-0.02816948786
2.18,0.1085125794,-0.03296413137
2.19,0.1069013259,-0.03769010503
2.2,0.1050784456,-0.04233736222
2.21,0.1030478681,-0.04689603574
2.22,0.1008140082,-0.05135646369
2.23,0.0983817538,-0.05570921479
2.24,0.09575645344,-0.05994511307
2.25,0.09294390197,-0.06405526166
2.26,0.08995032496,-0.06803106581
2.27,0.08678236198,-0.07186425503
2.28,0.0834470485,-0.07554690406
2.29,0.07995179687,-0.07907145299
2.3,0.07630437602,-0.08243072602
2.31,0.07251289028,-0.08561794925
2.32,0.06858575727,-0.08862676699
2.33,0.06453168493,-0.09145125698
2.34,0.06035964777,-0.09408594411
2.35,0.05607886246,-0.09652581283
2.36,0.05169876284,-0.0987663181
2.37,0.04722897439,-0.1008033949
2.38,0.04267928833,-0.1026334665
2.39,0.03805963537,-0.1042534504
2.4,0.03338005919,-0.1056607642
2.41,0.02865068985,-0.1068533285
2.42,0.02388171712,-0.1078295693
2.43,0.01908336378,-0.1085884184
2.44,0.01426585916,-0.1091293124
2.45,0.009439412845,-0.1094521903
2.46,0.004614188631,-0.1095574898
2.47,-0.0001997210375,-0.1094461416
2.48,-0.004992320225,-0.1091195632
2.49,-0.009753734091,-0.1085796505
2.5,-0.01447423285,-0.1078287685
2.51,-0.01914425506,-0.1068697407
2.52,-0.02375443006,-0.1057058374
2.53,-0.0282955997,-0.1043407626
2.54,-0.03275883907,-0.1027786399
2.55,-0.03713547629,-0.1010239975
2.56,-0.04141711134,-0.09908175203
2.57,-0.04559563381,-0.09695719159
2.58,-0.04966323951,-0.09465595802
2.59,-0.05361244602,-0.09218402829
2.6,-0.05743610696,-0.08954769533
2.61,-0.06112742519,-0.08675354815
2.62,-0.06467996468,-0.08380845155
2.63,-0.06808766118,-0.08071952532
2.64,-0.07134483163,-0.07749412307
2.65,-0.07444618231,-0.07413981082
2.66,-0.07738681571,-0.07066434537
2.67,-0.08016223616,-0.06707565252
2.68,-0.08276835418,-0.06338180526
2.69,-0.08520148959,-0.05959100199
2.7,-0.08745837343,-0.0557115448
2.71,-0.08953614861,-0.05175181801
2.72,-0.09143236945,-0.04772026685
2.73,-0.09314500001,-0.04362537652
2.74,-0.09467241135,-0.03947565158
2.75,-0.09601337773,-0.03527959583
2.76,-0.09716707169,-0.03104569261
2.77,-0.09813305823,-0.02678238573
2.78,-0.09891128803,-0.02249806091
2.79,-0.09950208977,-0.018201028
2.8,-0.09990616155,-0.01389950371
2.81,-0.1001245617,-0.009601595244
2.82,-0.1001586986,-0.005315284603
2.83,-0.1000103202,-0.001048413695
2.84,-0.09968150261,0.003191329703
2.85,-0.0991746381,0.007396425164
2.86,-0.09849242307,0.01155953196
2.87,-0.09763784513,0.01567350052
2.88,-0.09661417004,0.01973138303
2.89,-0.09542492827,0.02372644314
2.9,-0.09407390136,0.02765216472
2.91,-0.09256510813,0.03150225984
2.92,-0.09090279066,0.03527067578
2.93,-0.08909140034,0.0389516012
2.94,-0.08713558379,0.04253947146
2.95,-0.08504016891,0.04602897311
2.96,-0.08281015097,0.04941504756
2.97,-0.08045067884,0.05269289397
2.98,-0.07796704147,0.05585797136
2.99,-0.07536465453,0.05890600003
3,-0.07264904731,0.06183296223
3.01,-0.06982585003,0.06463510223
3.02,-0.06690078136,0.06730892575
3.03,-0.0638796364,0.06985119874
3.04,-0.06076827498,0.07225894572
3.05,-0.05757261051,0.07452944755
3.06,-0.05429859908,0.07666023876
3.07,-0.05095222919,0.07864910446
3.08,-0.04753951186,0.08049407687
3.09,-0.0440664712,0.08219343155
3.1,-0.04053913556,0.0837456833
3.11,-0.03696352903,0.08514958184
3.12,-0.03334566354,0.08640410726
3.13,-0.02969153138,0.08750846536
3.14,-0.02600709822,0.08846208284
3.15,-0.02229829654,0.08926460233
3.16,-0.0185710196,0.08991587755
3.17,-0.01483111576,0.09041596824
3.18,-0.01108438324,0.0907651353
3.19,-0.007336565303,0.09096383585
3.2,-0.003593345749,0.09101271842
3.21,0.0001396551702,0.09091261824
3.22,0.003856884573,0.09066455265
3.23,0.007552860457,0.09026971667
3.24,0.01122217494,0.08972947867
3.25,0.01485949727,0.08904537634
3.26,0.01845957664,0.08821911271
3.27,0.02201724482,0.08725255246
3.28,0.02552741862,0.0861477184
3.29,0.02898510233,0.08490678815
3.3,0.03238538996,0.08353209107
3.31,0.03572346753,0.08202610531
3.32,0.03899461529,0.08039145511
3.33,0.04219420994,0.07863090834
3.34,0.04531772695,0.07674737405
3.35,0.04836074285,0.0747439004
3.36,0.05131893767,0.07262367253
3.37,0.05418809748,0.0703900107
3.38,0.05696411705,0.0680463685
3.39,0.05964300264,0.06559633108
3.4,0.06222087499,0.06304361355
3.41,0.06469397248,0.06039205932
3.42,0.06705865446,0.05764563849
3.43,0.06931140479,0.05480844625
3.44,0.07144883558,0.05188470114
3.45,0.07346769115,0.04887874335
3.46,0.07536485221,0.0457950328
3.47,0.07713734018,0.04263814718
3.48,0.07878232181,0.03941277972
3.49,0.08029711392,0.03612373687
3.5,0.08167918833,0.03277593567
3.51,0.082926177,0.02937440092
3.52,0.08403587728,0.02592426198
3.53,0.08500625731,0.02243074941
3.54,0.08583546154,0.01889919113
3.55,0.08652181635,0.01533500829
3.56,0.08706383566,0.01174371075
3.57,0.08746022669,0.008130892202
3.58,0.08770989562,0.004502224783
3.59,0.08781195329,0.0008634533503
3.6,0.08776572081,-0.00277961073
3.61,0.08757073507,-0.006421096239
3.62,0.08722675414,-0.01005507922
3.63,0.08673376248,-0.01367559057
3.64,0.08609197594,-0.01727662403
3.65,0.08530184656,-0.02085214478
3.66,0.08436406699,-0.0243960983
3.67,0.0832795747,-0.02790241987
3.68,0.08204955573,-0.03136504436
3.69,0.08067544811,-0.03477791654
3.7,0.07915894477,-0.03813500173
3.71,0.07750199606,-0.04143029691
3.72,0.07570681169,-0.04465784212
3.73,0.07377586211,-0.04781173223
3.74,0.07171187942,-0.05088612902
3.75,0.0695178575,-0.05387527354
3.76,0.06719705167,-0.05677349869
3.77,0.06475297757,-0.059575242
3.78,0.06218940937,-0.06227505862
3.79,0.05951037729,-0.06486763437
3.8,0.0567201644,-0.06734779891
3.81,0.0538233026,-0.06971053893
3.82,0.05082456791,-0.07195101133
3.83,0.04772897495,-0.07406455633
3.84,0.04454177066,-0.07604671047
3.85,0.0412684272,-0.07789321944
3.86,0.03791463412,-0.07960005073
3.87,0.03448628971,-0.08116340598
3.88,0.03098949159,-0.082579733
3.89,0.02743052651,-0.08384573747
3.9,0.02381585948,-0.0849583942
3.91,0.0201521221,-0.08591495786
3.92,0.01644610017,-0.0867129733
3.93,0.0127047207,-0.08735028522
3.94,0.008935038174,-0.08782504723
3.95,0.005144220248,-0.08813573025
3.96,0.00133953284,-0.08828113027
3.97,-0.002471675326,-0.08826037523
3.98,-0.006281988688,-0.08807293123
3.99,-0.01008394127,-0.08771860783
4,-0.01387003354,-0.08719756258
4.01,-0.0176327496,-0.08651030454
4.02,-0.02136457474,-0.08565769698
4.03,-0.02505801323,-0.08464095911
4.04,-0.0287056063,-0.08346166676
4.05,-0.03229995031,-0.08212175223
4.06,-0.035833715,-0.08062350298
4.07,-0.03929966171,-0.07896955942
4.08,-0.04269066169,-0.07716291161
4.09,-0.0459997142,-0.07520689499
4.1,-0.04921996453,-0.07310518507
4.11,-0.05234472178,-0.07086179105
4.12,-0.05536747636,-0.06848104855
4.13,-0.05828191715,-0.06596761125
4.14,-0.06108194829,-0.06332644155
4.15,-0.06376170545,-0.06056280034
4.16,-0.06631557166,-0.0576822358
4.17,-0.0687381925,-0.05469057125
4.18,-0.07102449069,-0.05159389224
4.19,-0.07316967997,-0.04839853268
4.2,-0.07516927832,-0.04511106025
4.21,-0.07701912026,-0.04173826105
4.22,-0.07871536848,-0.03828712351
4.23,-0.08025452445,-0.03476482164
4.24,-0.08163343824,-0.03117869771
4.25,-0.08284931728,-0.02753624435
4.26,-0.08389973421,-0.02384508611
4.27,-0.08478263371,-0.02011296068
4.28,-0.08549633823,-0.0163476996
4.29,-0.08603955274,-0.01255720879
4.3,-0.08641136831,-0.008749448669
4.31,-0.0866112647,-0.004932414244
4.32,-0.08663911172,-0.001114114938
4.33,-0.08649516956,0.002697445569
4.34,-0.08618008801,0.006494289514
4.35,-0.08569490446,0.01026848516
4.36,-0.08504104097,0.01401216675
4.37,-0.08422030005,0.01771755429
4.38,-0.08323485948,0.02137697304
4.39,-0.08208726605,0.02498287267
4.4,-0.08078042819,0.02852784604
4.41,-0.07931760764,0.03200464756
4.42,-0.07770241013,0.03540621094
4.43,-0.07593877508,0.03872566647
4.44,-0.07403096439,0.04195635765
4.45,-0.07198355034,0.0450918571
4.46,-0.0698014027,0.04812598183
4.47,-0.06748967497,0.05105280764
4.48,-0.06505378995,0.05386668277
4.49,-0.06249942459,0.05656224072
4.5,-0.05983249419,0.05913441209
4.51,-0.05705913606,0.06157843557
4.52,-0.0541856926,0.06388986795
4.53,-0.05121869394,0.06606459315
4.54,-0.04816484022,0.06809883023
4.55,-0.04503098343,0.06998914043
4.56,-0.04182410904,0.07173243312
4.57,-0.0385513174,0.07332597074
4.58,-0.03521980496,0.07476737265
4.59,-0.03183684541,0.07605461797
4.6,-0.0284097708,0.07718604733
4.61,-0.02494595266,0.07816036361
4.62,-0.02145278323,0.0789766316
4.63,-0.01793765685,0.07963427662
4.64,-0.01440795157,0.08013308225
4.65,-0.01087101099,0.0804731869
4.66,-0.007334126432,0.08065507951
4.67,-0.003804519565,0.08067959433
4.68,-0.0002893253516,0.08054790475
4.69,0.003204424449,0.08026151625
4.7,0.006669817272,0.0798222585
4.71,0.01010007517,0.07923227675
4.72,0.01348856961,0.07849402234
4.73,0.01682883563,0.07761024254
4.74,0.02011458528,0.07658396979
4.75,0.02333972038,0.07541851016
4.76,0.02649834452,0.0741174314
4.77,0.0295847742,0.07268455036
4.78,0.03259354933,0.07112391998
4.79,0.03551944275,0.06943981581
4.8,0.03835746901,0.06763672226
4.81,0.04110289229,0.06571931843
4.82,0.04375123342,0.06369246374
4.83,0.04629827612,0.06156118332
4.84,0.04874007227,0.05933065327
4.85,0.05107294643,0.05700618583
4.86,0.05329349942,0.05459321443
4.87,0.05539861112,0.05209727884
4.88,0.05738544236,0.04952401029
4.89,0.05925143608,0.04687911675
4.9,0.06099431757,0.0441683683
4.91,0.06261209408,0.04139758276
4.92,0.06410305349,0.03857261147
4.93,0.06546576241,0.03569932547
4.94,0.06669906346,0.03278360183
4.95,0.06780207192,0.02983131054
4.96,0.06877417174,0.02684830159
4.97,0.06961501092,0.02384039259
4.98,0.0703244963,0.02081335682
4.99,0.07090278786,0.01777291176
5,0.07135029244,0.01472470805
5.01,0.07166765711,0.01167431909
5.02,0.07185576199,0.008627231108
5.03,0.07191571275,0.005588833776
5.04,0.07184883283,0.002564411429
5.05,0.07165665519,-0.0004408651529
5.06,0.07134091399,-0.00342194638
5.07,0.07090353589,-0.0063739109
5.08,0.07034663131,-0.009291972052
5.09,0.06967248541,-0.01217148374
5.1,0.06888354908,-0.0150079457
5.11,0.0679824298,-0.01779700825
5.12,0.06697188251,-0.02053447638
5.13,0.06585480046,-0.02321631339
5.14,0.06463420612,-0.02583864388
5.15,0.06331324215,-0.02839775631
5.16,0.0618951625,-0.030890105
5.17,0.06038332358,-0.03331231166
5.18,0.0587811757,-0.0356611664
5.19,0.05709225456,-0.03793362839
5.2,0.05532017309,-0.04012682606
5.21,0.05346861337,-0.04223805681
5.22,0.05154131895,-0.04426478653
5.23,0.04954208728,-0.04620464863
5.24,0.04747476255,-0.04805544282
5.25,0.04534322872,-0.04981513359
5.26,0.04315140295,-0.05148184843
5.27,0.04090322917,-0.05305387582
5.28,0.03860267217,-0.05452966302
5.29,0.03625371182,-0.05590781371
5.3,0.0338603377,-0.0571870854
5.31,0.03142654404,-0.05836638685
5.32,0.02895632488,-0.05944477526
5.33,0.02645366964,-0.06042145352
5.34,0.02392255893,-0.06129576732
5.35,0.02136696063,-0.06206720226
5.36,0.01879082625,-0.06273538102
5.37,0.0161980876,-0.06330006048
5.38,0.0135926536,-0.06376112891
5.39,0.01097840744,-0.06411860324
5.4,0.008359203853,-0.06437262636
5.41,0.005738866632,-0.06452346455
5.42,0.003121186329,-0.06457150497
5.43,0.0005099180845,-0.06451725333
5.44,-0.002091220391,-0.06436133158
5.45,-0.004678550715,-0.06410447582
5.46,-0.007248435644,-0.06374753432
5.47,-0.009797280797,-0.06329146559
5.48,-0.01232153633,-0.06273733673
5.49,-0.01481769857,-0.06208632181
5.5,-0.01728231164,-0.06133970038
5.51,-0.01971196908,-0.06049885619
5.52,-0.02210331546,-0.05956527595
5.53,-0.02445304813,-0.05854054824
5.54,-0.02675791889,-0.05742636251
5.55,-0.02901473583,-0.05622450817
5.56,-0.03122036523,-0.0549368738
5.57,-0.03337173353,-0.05356544636
5.58,-0.0354658295,-0.0521123105
5.59,-0.03749970637,-0.05057964788
5.6,-0.0394704843,-0.04896973654
5.61,-0.04137535279,-0.04728495022
5.62,-0.04321157337,-0.04552775771
5.63,-0.04497648238,-0.04370072213
5.64,-0.04666749394,-0.04180650018
5.65,-0.04828210297,-0.03984784127
5.66,-0.04981788851,-0.03782758662
5.67,-0.05127251708,-0.03574866817
5.68,-0.05264374617,-0.0336141074
5.69,-0.05392942796,-0.031427014
5.7,-0.05512751309,-0.02919058432
5.71,-0.05623605454,-0.02690809968
5.72,-0.05725321164,-0.02458292442
5.73,-0.05817725421,-0.02221850379
5.74,-0.05900656666,-0.0198183615
5.75,-0.05973965225,-0.01738609714
5.76,-0.06037513738,-0.01492538317
5.77,-0.06091177581,-0.0124399618
5.78,-0.061348453,-0.009933641458
5.79,-0.06168419034,-0.007410292982
5.8,-0.06191814938,-0.004873845534
5.81,-0.06204963597,-0.002328282179
5.82,-0.06207810431,0.0002223648617
5.83,-0.0620031609,0.002774019257
5.84,-0.0618245683,0.005322565946
5.85,-0.0615422488,0.007863856832
5.86,-0.06115628785,0.01039371679
5.87,-0.06066693723,0.01290794996
5.88,-0.06007461806,0.01540234641
5.89,-0.05937992349,0.01787268899
5.9,-0.05858362111,0.02031476051
5.91,-0.05768665503,0.02272435123
5.92,-0.05669014765,0.02509726651
5.93,-0.05559540104,0.02742933477
5.94,-0.05440389792,0.02971641559
5.95,-0.0531173023,0.03195440804
5.96,-0.05173745962,0.03413925919
5.97,-0.05026639653,0.03626697276
5.98,-0.04870632013,0.03833361782
5.99,-0.04705961681,0.0403353377
6,-0.04532885056,0.04226835886
