"Freq [GHz]","re(S(Tx_p1,Tx_p1)) []","im(S(Tx_p1,Tx_p1)) []"
1,-0.005673215609,-0.0220367874
1.01,-0.006385422552,-0.02173826541
1.02,-0.007085017409,-0.02141713167
1.03,-0.00777117595,-0.02107397321
1.04,-0.008443116406,-0.02070941178
1.05,-0.009100100478,-0.02032410025
1.06,-0.009741434078,-0.01991871897
1.07,-0.01036646782,-0.0194939722
1.08,-0.01097459726,-0.01905058466
1.09,-0.01156526289,-0.01858929805
1.1,-0.0121379499,-0.01811086781
1.11,-0.01269218774,-0.01761605986
1.12,-0.01322754942,-0.0171056475
1.13,-0.01374365069,-0.0165804085
1.14,-0.01424014897,-0.01604112224
1.15,-0.01471674214,-0.01548856706
1.16,-0.01517316712,-0.01492351775
1.17,-0.01560919841,-0.01434674321
1.18,-0.01602464637,-0.01375900431
1.19,-0.01641935549,-0.01316105187
1.2,-0.01679320248,-0.01255362491
1.21,-0.01714609432,-0.01193744903
1.22,-0.01747796625,-0.01131323503
1.23,-0.01778877963,-0.01068167763
1.24,-0.01807851983,-0.01004345454
1.25,-0.01834719411,-0.009399225599
1.26,-0.01859482937,-0.00874963217
1.27,-0.01882147008,-0.008095296703
1.28,-0.01902717604,-0.00743682251
1.29,-0.01921202036,-0.006774793712
1.3,-0.0193760873,-0.006109775375
1.31,-0.01951947036,-0.005442313815
1.32,-0.01964227025,-0.004772937079
1.33,-0.01974459312,-0.004102155579
1.34,-0.01982654878,-0.003430462886
1.35,-0.01988824904,-0.002758336662
1.36,-0.01992980621,-0.002086239728
1.37,-0.01995133168,-0.00141462125
1.38,-0.01995293468,-0.0007439180434
1.39,-0.01993472112,-7.455596933E-05
1.4,-0.01989679268,0.000593048576
1.41,-0.01983924593,0.001258487101
1.42,-0.01976217172,0.001921357394
1.43,-0.01966565467,0.002581261855
1.44,-0.01954977288,0.003237805786
1.45,-0.0194145977,0.003890595665
1.46,-0.01926019386,0.004539237412
1.47,-0.01908661955,0.005183334659
1.48,-0.01889392686,0.005822487042
1.49,-0.01868216224,0.006456288527
1.5,-0.01845136723,0.007084325778
1.51,-0.0182015793,0.007706176592
1.52,-0.01793283286,0.008321408398
1.53,-0.01764516037,0.008929576852
1.54,-0.0173385937,0.009530224515
1.55,-0.01701316551,0.01012287965
1.56,-0.01666891084,0.01070705514
1.57,-0.01630586876,0.0112822475
1.58,-0.01592408418,0.0118479361
1.59,-0.01552360969,0.01240358246
1.6,-0.01510450758,0.01294862974
1.61,-0.01466685182,0.01348250239
1.62,-0.01421073021,0.01400460592
1.63,-0.01373624651,0.01451432698
1.64,-0.01324352263,0.0150110334
1.65,-0.01273270085,0.01549407465
1.66,-0.01220394601,0.01596278229
1.67,-0.01165744779,0.01641647073
1.68,-0.01109342282,0.01685443813
1.69,-0.01051211693,0.01727596746
1.7,-0.009913807187,0.01768032783
1.71,-0.009298804037,0.0180667759
1.72,-0.008667453223,0.01843455753
1.73,-0.008020137709,0.01878290963
1.74,-0.007357279474,0.01911106208
1.75,-0.006679341185,0.01941823996
1.76,-0.00598682776,0.01970366577
1.77,-0.005280287776,0.01996656196
1.78,-0.004560314741,0.02020615348
1.79,-0.003827548195,0.02042167053
1.8,-0.00308267464,0.02061235139
1.81,-0.002326428299,0.02077744539
1.82,-0.001559591671,0.02091621595
1.83,-0.0007829958982,0.02102794375
1.84,2.479078562E-06,0.02111192989
1.85,0.0007959045719,0.02116749921
1.86,0.00159630342,0.02119400356
1.87,0.00240265048,0.02119082519
1.88,0.003213873347,0.02115738006
1.89,0.004028853301,0.02109312123
1.9,0.004846426483,0.02099754222
1.91,0.005665385307,0.02087018025
1.92,0.006484480092,0.02071061959
1.93,0.007302420933,0.02051849472
1.94,0.008117879789,0.02029349347
1.95,0.008929492806,0.02003536005
1.96,0.009735862843,0.01974389797
1.97,0.01053556222,0.01941897287
1.98,0.01132713568,0.01906051516
1.99,0.01210910352,0.01866852255
2,0.01287996495,0.01824306238
2.01,0.01363820161,0.01778427383
2.02,0.01438228125,0.01729236984
2.03,0.01511066162,0.01676763897
2.04,0.01582179441,0.01621044686
2.05,0.01651412943,0.01562123765
2.06,0.01718611885,0.01500053504
2.07,0.01783622157,0.01434894314
2.08,0.01846290765,0.01366714711
2.09,0.01906466286,0.01295591345
2.1,0.0196399933,0.01221609013
2.11,0.02018742998,0.01144860636
2.12,0.02070553354,0.01065447212
2.13,0.02119289887,0.009834777431
2.14,0.02164815987,0.008990691321
2.15,0.022069994,0.008123460493
2.16,0.02245712698,0.007234407746
2.17,0.02280833727,0.006324930094
2.18,0.0231224606,0.00539649661
2.19,0.02339839432,0.004450645995
2.2,0.0236351017,0.003488983876
2.21,0.02383161605,0.002513179838
2.22,0.02398704474,0.00152496419
2.23,0.02410057306,0.0005261244931
2.24,0.02417146785,-0.0004814981706
2.25,0.02419908102,-0.001496013151
2.26,0.02418285279,-0.002515484411
2.27,0.02412231474,-0.003537934923
2.28,0.02401709268,-0.004561351253
2.29,0.02386690914,-0.005583688348
2.3,0.02367158576,-0.006602874478
2.31,0.02343104529,-0.007616816347
2.32,0.02314531336,-0.008623404344
2.33,0.02281451998,-0.009620517914
2.34,0.02243890068,-0.01060603104
2.35,0.02201879743,-0.01157781784
2.36,0.02155465916,-0.01253375818
2.37,0.02104704204,-0.0134717434
2.38,0.02049660938,-0.01438968208
2.39,0.01990413125,-0.01528550575
2.4,0.01927048377,-0.01615717469
2.41,0.01859664801,-0.01700268368
2.42,0.01788370869,-0.01782006765
2.43,0.01713285242,-0.01860740741
2.44,0.01634536573,-0.01936283513
2.45,0.0155226327,-0.02008453989
2.46,0.01466613231,-0.02077077298
2.47,0.01377743552,-0.02141985319
2.48,0.01285820197,-0.02203017181
2.49,0.01191017648,-0.02260019762
2.5,0.01093518518,-0.02312848155
2.51,0.009935131456,-0.02361366126
2.52,0.008911991551,-0.02405446538
2.53,0.007867809985,-0.02444971763
2.54,0.006804694709,-0.02479834064
2.55,0.005724812044,-0.02509935947
2.56,0.004630381417,-0.02535190497
2.57,0.003523669902,-0.02555521672
2.58,0.002406986597,-0.02570864575
2.59,0.001282676837,-0.02581165696
2.6,0.0001531162675,-0.02586383121
2.61,-0.0009792951957,-0.025864867
2.62,-0.002112139516,-0.02581458201
2.63,-0.003242986765,-0.02571291409
2.64,-0.004369401414,-0.02555992205
2.65,-0.005488948677,-0.02535578608
2.66,-0.006599200865,-0.02510080775
2.67,-0.00769774376,-0.02479540974
2.68,-0.008782182963,-0.02444013523
2.69,-0.00985015021,-0.02403564682
2.7,-0.01089930963,-0.02358272528
2.71,-0.01192736394,-0.02308226779
2.72,-0.01293206053,-0.02253528596
2.73,-0.01391119743,-0.02194290348
2.74,-0.01486262918,-0.0213063534
2.75,-0.01578427252,-0.02062697517
2.76,-0.01667411188,-0.01990621131
2.77,-0.01753020478,-0.01914560382
2.78,-0.01835068691,-0.01834679026
2.79,-0.0191337771,-0.01751149959
2.8,-0.01987778198,-0.01664154775
2.81,-0.02058110039,-0.01573883297
2.82,-0.02124222762,-0.01480533083
2.83,-0.02185975925,-0.01384308914
2.84,-0.0224323948,-0.01285422261
2.85,-0.02295894101,-0.01184090727
2.86,-0.02343831488,-0.01080537486
2.87,-0.02386954637,-0.009749906869
2.88,-0.0242517807,-0.008676828646
2.89,-0.02458428047,-0.007588503245
2.9,-0.0248664273,-0.006487325248
2.91,-0.02509772321,-0.00537571449
2.92,-0.02527779161,-0.004256109733
2.93,-0.02540637802,-0.003130962291
2.94,-0.02548335032,-0.002002729656
2.95,-0.02550869875,-0.0008738691045
2.96,-0.02548253556,0.0002531686555
2.97,-0.02540509422,0.00137594581
2.98,-0.02527672844,0.002492043697
2.99,-0.02509791071,0.003599068988
3,-0.0248692306,0.00469465977
3.01,-0.02459139267,0.005776491513
3.02,-0.02426521417,0.006842282904
3.03,-0.0238916223,0.007889801523
3.04,-0.02347165127,0.008916869361
3.05,-0.02300643902,0.009921368149
3.06,-0.0224972237,0.01090124448
3.07,-0.02194533987,0.01185451474
3.08,-0.02135221444,0.01277926978
3.09,-0.0207193624,0.01367367935
3.1,-0.02004838232,0.01453599634
3.11,-0.01934095162,0.01536456066
3.12,-0.01859882169,0.01615780289
3.13,-0.01782381282,0.01691424771
3.14,-0.01701780895,0.0176325169
3.15,-0.01618275232,0.01831133218
3.16,-0.015320638,0.01894951762
3.17,-0.01443350826,0.01954600187
3.18,-0.0135234469,0.02009981995
3.19,-0.01259257355,0.02061011478
3.2,-0.01164303783,0.02107613842
3.21,-0.01067701354,0.02149725292
3.22,-0.009696692834,0.0218729309
3.23,-0.008704280389,0.02220275579
3.24,-0.007701987603,0.02248642175
3.25,-0.006692026831,0.02272373329
3.26,-0.005676605685,0.02291460456
3.27,-0.00465792141,0.02305905838
3.28,-0.00363815535,0.02315722488
3.29,-0.002619467533,0.02320933998
3.3,-0.00160399137,0.02321574344
3.31,-0.0005938285011,0.02317687678
3.32,0.0004089562024,0.02309328084
3.33,0.00140233947,0.0229655931
3.34,0.002384344282,0.02279454482
3.35,0.00335304432,0.02258095785
3.36,0.004306568218,0.02232574131
3.37,0.005243103594,0.02202988806
3.38,0.00616090085,0.02169447087
3.39,0.007058276748,0.02132063862
3.4,0.007933617726,0.02090961211
3.41,0.008785382981,0.02046267991
3.42,0.009612107278,0.01998119397
3.43,0.01041240351,0.01946656516
3.44,0.01118496499,0.01892025871
3.45,0.01192856745,0.01834378956
3.46,0.0126420708,0.01773871764
3.47,0.01332442061,0.01710664311
3.48,0.01397464929,0.01644920159
3.49,0.01459187702,0.01576805929
3.5,0.0151753124,0.01506490826
3.51,0.01572425283,0.01434146153
3.52,0.01623808465,0.0135994484
3.53,0.01671628296,0.01284060965
3.54,0.01715841124,0.01206669291
3.55,0.01756412068,0.01127944808
3.56,0.0179331493,0.01048062277
3.57,0.01826532081,0.009671957944
3.58,0.01856054324,0.008855183599
3.59,0.01881880737,0.008032014607
3.6,0.01904018492,0.007204146678
3.61,0.01922482659,0.006373252476
3.62,0.01937295984,0.005540977892
3.63,0.01948488655,0.004708938479
3.64,0.01956098049,0.003878716071
3.65,0.01960168468,0.003051855575
3.66,0.01960750848,0.002229861961
3.67,0.01957902473,0.001414197437
3.68,0.01951686664,0.0006062788421
3.69,0.01942172462,-0.0001925247749
3.7,0.01929434305,-0.0009808943513
3.71,0.01913551691,-0.001757562803
3.72,0.01894608841,-0.002521316803
3.73,0.01872694351,-0.003270998337
3.74,0.01847900851,-0.004005506057
3.75,0.01820324645,-0.004723796412
3.76,0.01790065367,-0.005424884561
3.77,0.01757225627,-0.006107845089
3.78,0.01721910661,-0.006771812504
3.79,0.01684227987,-0.007415981531
3.8,0.0164428706,-0.008039607212
3.81,0.01602198934,-0.008642004805
3.82,0.01558075934,-0.009222549497
3.83,0.0151203133,-0.009780675938
3.84,0.01464179019,-0.01031587759
3.85,0.01414633225,-0.01082770592
3.86,0.01363508197,-0.01131576942
3.87,0.01310917927,-0.01177973249
3.88,0.01256975876,-0.01221931418
3.89,0.01201794713,-0.01263428677
3.9,0.01145486066,-0.01302447426
3.91,0.01088160293,-0.01338975074
3.92,0.01029926253,-0.01373003863
3.93,0.009708911104,-0.01404530689
3.94,0.009111601392,-0.01433556907
3.95,0.008508365487,-0.01460088135
3.96,0.007900213249,-0.01484134046
3.97,0.007288130854,-0.01505708166
3.98,0.006673079519,-0.01524827652
3.99,0.00605599437,-0.01541513083
4,0.005437783468,-0.01555788237
4.01,0.004819326998,-0.01567679878
4.02,0.004201476598,-0.01577217534
4.03,0.003585054846,-0.01584433279
4.04,0.00297085489,-0.01589361523
4.05,0.00235964022,-0.01592038797
4.06,0.001752144577,-0.01592503548
4.07,0.001149072001,-0.01590795933
4.08,0.0005510969918,-0.01586957627
4.09,-4.113519081E-05,-0.01581031629
4.1,-0.0006270081282,-0.01573062081
4.11,-0.001205933728,-0.01563094093
4.12,-0.00177735161,-0.01551173574
4.13,-0.002340728402,-0.01537347078
4.14,-0.00289555695,-0.01521661653
4.15,-0.003441355447,-0.01504164704
4.16,-0.0039776665,-0.01484903867
4.17,-0.004504056137,-0.01463926886
4.18,-0.005020112754,-0.01441281514
4.19,-0.00552544603,-0.01417015413
4.2,-0.006019685804,-0.01391176071
4.21,-0.006502480925,-0.01363810731
4.22,-0.00697349809,-0.01334966327
4.23,-0.007432420668,-0.01304689434
4.24,-0.007878947535,-0.01273026232
4.25,-0.008312791905,-0.01240022472
4.26,-0.00873368019,-0.01205723463
4.27,-0.009141350878,-0.01170174066
4.28,-0.009535553445,-0.01133418689
4.29,-0.009916047312,-0.01095501309
4.3,-0.01028260084,-0.01056465487
4.31,-0.01063499039,-0.01016354402
4.32,-0.01097299942,-0.009752108862
4.33,-0.01129641769,-0.009330774759
4.34,-0.01160504049,-0.008899964605
4.35,-0.01189866796,-0.008460099441
4.36,-0.01217710454,-0.008011599106
4.37,-0.01244015838,-0.007554882937
4.38,-0.01268764099,-0.007090370522
4.39,-0.01291936688,-0.006618482475
4.4,-0.01313515329,-0.00613964125
4.41,-0.01333482008,-0.005654271975
4.42,-0.01351818964,-0.005162803289
4.43,-0.01368508699,-0.004665668195
4.44,-0.01383533983,-0.004163304906
4.45,-0.01396877884,-0.003656157678
4.46,-0.01408523798,-0.003144677633
4.47,-0.01418455492,-0.002629323543
4.48,-0.01426657149,-0.002110562599
4.49,-0.01433113435,-0.001588871121
4.5,-0.01437809563,-0.001064735237
4.51,-0.01440731366,-0.000538651498
4.52,-0.01441865385,-1.112743924E-05
4.53,-0.01441198956,0.0005173179299
4.54,-0.01438720307,0.001046153704
4.55,-0.01434418661,0.001574836736
4.56,-0.01428284348,0.002102811382
4.57,-0.0142030891,0.002629509319
4.58,-0.01410485227,0.003154349465
4.59,-0.01398807633,0.003676737988
4.6,-0.01385272038,0.004196068417
4.61,-0.01369876059,0.004711721843
4.62,-0.01352619144,0.005223067235
4.63,-0.01333502699,0.005729461853
4.64,-0.01312530216,0.00623025176
4.65,-0.01289707399,0.006724772455
4.66,-0.01265042291,0.007212349595
4.67,-0.01238545395,0.00769229983
4.68,-0.01210229789,0.008163931743
4.69,-0.01180111248,0.008626546885
4.7,-0.01148208348,0.009079440916
4.71,-0.01114542573,0.00952190484
4.72,-0.01079138414,0.009953226332
4.73,-0.01042023456,0.01037269116
4.74,-0.01003228468,0.0107795847
4.75,-0.009627874726,0.0111731935
4.76,-0.009207378147,0.01155280695
4.77,-0.008771202179,0.01191771904
4.78,-0.008319788313,0.01226723011
4.79,-0.00785361265,0.01260064877
4.8,-0.007373186159,0.01291729373
4.81,-0.006879054807,0.01321649582
4.82,-0.00637179958,0.01349759993
4.83,-0.005852036377,0.01375996707
4.84,-0.005320415781,0.01400297638
4.85,-0.004777622703,0.0142260272
4.86,-0.004224375899,0.0144285411
4.87,-0.003661427353,0.01460996401
4.88,-0.003089561533,0.01476976817
4.89,-0.002509594519,0.01490745424
4.9,-0.00192237299,0.01502255325
4.91,-0.001328773093,0.01511462858
4.92,-0.0007296991793,0.0151832779
4.93,-0.0001260824132,0.01522813498
4.94,0.000481120739,0.01524887155
4.95,0.001090930142,0.01524519901
4.96,0.001702343744,0.01521687009
4.97,0.002314339432,0.0151636804
4.98,0.002925877011,0.01508546998
4.99,0.003535900267,0.01498212458
5,0.004143339144,0.01485357703
5.01,0.004747112001,0.01469980835
5.02,0.005346127959,0.01452084879
5.03,0.005939289324,0.01431677877
5.04,0.006525494082,0.01408772966
5.05,0.007103638454,0.01383388444
5.06,0.007672619514,0.0135554782
5.07,0.008231337842,0.01325279851
5.08,0.008778700228,0.01292618568
5.09,0.0093136224,0.01257603278
5.1,0.009835031774,0.0122027856
5.11,0.01034187022,0.01180694243
5.12,0.01083309681,0.01138905363
5.13,0.01130769062,0.01094972114
5.14,0.01176465344,0.01048959773
5.15,0.0122030125,0.0100093862
5.16,0.01262182316,0.009509838332
5.17,0.01302017158,0.008991753759
5.18,0.01339717729,0.008455978634
5.19,0.01375199571,0.007903404177
5.2,0.01408382066,0.007334965074
5.21,0.01439188669,0.006751637724
5.22,0.01467547145,0.00615443836
5.23,0.01493389782,0.005544421028
5.24,0.01516653607,0.00492267545
5.25,0.01537280582,0.00429032475
5.26,0.01555217794,0.003648523078
5.27,0.01570417629,0.002998453117
5.28,0.01582837934,0.002341323492
5.29,0.01592442167,0.001678366081
5.3,0.01599199529,0.00101083324
5.31,0.01603085087,0.0003399949509
5.32,0.01604079875,-0.0003328641048
5.33,0.01602170986,-0.001006447532
5.34,0.01597351641,-0.001679450264
5.35,0.01589621252,-0.002350561643
5.36,0.01578985455,-0.003018468544
5.37,0.01565456139,-0.003681858519
5.38,0.01549051448,-0.004339422957
5.39,0.01529795775,-0.004989860256
5.4,0.01507719732,-0.005631878985
5.41,0.01482860106,-0.00626420104
5.42,0.01455259796,-0.006885564773
5.43,0.0142496774,-0.007494728092
5.44,0.01392038813,-0.008090471524
5.45,0.01356533722,-0.008671601218
5.46,0.01318518878,-0.009236951895
5.47,0.01278066247,-0.009785389735
5.48,0.01235253201,-0.01031581517
5.49,0.01190162339,-0.01082716562
5.5,0.011428813,-0.01131841808
5.51,0.01093502565,-0.01178859171
5.52,0.01042123238,-0.01223675017
5.53,0.009888448229,-0.01266200398
5.54,0.009337729818,-0.01306351266
5.55,0.008770172862,-0.01344048679
5.56,0.008186909558,-0.01379218989
5.57,0.007589105878,-0.01411794026
5.58,0.006977958779,-0.0144171125
5.59,0.006354693326,-0.01468913908
5.6,0.005720559745,-0.01493351158
5.61,0.005076830417,-0.01514978189
5.62,0.004424796807,-0.01533756319
5.63,0.00376576636,-0.01549653079
5.64,0.003101059353,-0.01562642278
5.65,0.002432005719,-0.01572704057
5.66,0.001759941861,-0.01579824915
5.67,0.00108620745,-0.01583997731
5.68,0.0004121422311,-0.01585221761
5.69,-0.0002609171673,-0.01583502619
5.7,-0.000931640398,-0.01578852246
5.71,-0.001598706535,-0.01571288854
5.72,-0.002260807171,-0.01560836866
5.73,-0.002916649476,-0.01547526824
5.74,-0.00356495919,-0.01531395298
5.75,-0.004204483563,-0.01512484765
5.76,-0.004833994213,-0.01490843485
5.77,-0.005452289911,-0.01466525354
5.78,-0.006058199278,-0.01439589748
5.79,-0.006650583384,-0.01410101351
5.8,-0.007228338245,-0.01378129971
5.81,-0.007790397222,-0.01343750345
5.82,-0.008335733288,-0.01307041929
5.83,-0.008863361194,-0.01268088681
5.84,-0.009372339493,-0.01226978833
5.85,-0.009861772449,-0.01183804652
5.86,-0.0103308118,-0.0113866219
5.87,-0.01077865838,-0.01091651038
5.88,-0.01120456361,-0.01042874052
5.89,-0.01160783087,-0.009924370967
5.9,-0.01198781661,-0.009404487649
5.91,-0.01234393149,-0.008870201019
5.92,-0.01267564121,-0.008322643238
5.93,-0.01298246727,-0.00776296533
5.94,-0.01326398755,-0.007192334314
5.95,-0.01351983675,-0.006611930328
5.96,-0.01374970669,-0.006022943753
5.97,-0.01395334638,-0.005426572331
5.98,-0.01413056206,-0.004824018311
5.99,-0.01428121702,-0.004216485608
6,-0.01440523124,-0.00360517699
