"Freq [GHz]","re(S(Tx_p1,Tx_p1)) []","im(S(Tx_p1,Tx_p1)) []"
1,-0.002931763261,-0.001794009234
1.01,-0.002991320712,-0.001669443589
1.02,-0.003046294938,-0.001543409311
1.03,-0.003096702596,-0.001416032545
1.04,-0.003142560185,-0.001287431198
1.05,-0.003183882945,-0.00115771545
1.06,-0.003220683812,-0.001026988385
1.07,-0.003252972468,-0.0008953467316
1.08,-0.003280754489,-0.0007628816994
1.09,-0.003304030582,-0.0006296799082
1.1,-0.003322795957,-0.0004958243933
1.11,-0.003337039793,-0.000361395678
1.12,-0.003346744848,-0.0002264729008
1.13,-0.003351887185,-9.113498473E-05
1.14,-0.003352436038,4.45381636E-05
1.15,-0.003348353813,0.0001804644392
1.16,-0.003339596217,0.0003165583201
1.17,-0.003326112533,0.0004527296593
1.18,-0.003307846023,0.0005888824996
1.19,-0.00328473447,0.0007249139249
1.2,-0.003256710838,0.0008607129602
1.21,-0.003223704068,0.0009961595329
1.22,-0.003185639986,0.001131123508
1.23,-0.003142442322,0.001265463807
1.24,-0.003094033838,0.001399027621
1.25,-0.003040337544,0.001531649736
1.26,-0.002981278004,0.001663151958
1.27,-0.002916782717,0.00179334268
1.28,-0.002846783558,0.001922016564
1.29,-0.002771218277,0.002048954366
1.3,-0.002690032031,0.002173922903
1.31,-0.002603178947,0.002296675165
1.32,-0.002510623695,0.00241695058
1.33,-0.00241234307,0.002534475422
1.34,-0.002308327547,0.002648963382
1.35,-0.002198582817,0.002760116281
1.36,-0.002083131286,0.002867624944
1.37,-0.001962013508,0.002971170212
1.38,-0.001835289558,0.003070424098
1.39,-0.001703040324,0.003165051094
1.4,-0.001565368704,0.003254709592
1.41,-0.001422400694,0.003339053446
1.42,-0.001274286368,0.003417733641
1.43,-0.00112120072,0.003490400075
1.44,-0.0009633443714,0.003556703435
1.45,-0.0008009441394,0.003616297159
1.46,-0.000634253437,0.003668839477
1.47,-0.0004635525194,0.003713995508
1.48,-0.0002891485588,0.003751439409
1.49,-0.0001113755456,0.003780856555
1.5,6.940598844E-05,0.003801945749
1.51,0.0002528094273,0.003814421422
1.52,0.0004384227109,0.003818015841
1.53,0.0006258091568,0.003812481278
1.54,0.0008145084655,0.003797592156
1.55,0.001004037904,0.003773147124
1.56,0.001193893666,0.003738971076
1.57,0.001383552407,0.003694917082
1.58,0.001572472939,0.003640868217
1.59,0.001760098095,0.003576739289
1.6,0.001945856733,0.003502478429
1.61,0.002129165892,0.003418068553
1.62,0.002309433074,0.003323528671
1.63,0.002486058652,0.003218915033
1.64,0.002658438382,0.003104322109
1.65,0.002825966015,0.00297988338
1.66,0.002988035988,0.002845771951
1.67,0.003144046189,0.002702200956
1.68,0.003293400767,0.002549423771
1.69,0.003435512986,0.002387734011
1.7,0.003569808099,0.00221746532
1.71,0.003695726226,0.002038990947
1.72,0.003812725228,0.001852723106
1.73,0.003920283541,0.001659112118
1.74,0.004017902981,0.001458645348
1.75,0.004105111476,0.001251845916
1.76,0.004181465734,0.001039271217
1.77,0.004246553805,0.0008215112228
1.78,0.004299997547,0.0005991866016
1.79,0.004341454959,0.0003729466392
1.8,0.004370622386,0.0001434669849
1.81,0.004387236566,-8.855277367E-05
1.82,0.00439107651,-0.0003223916943
1.83,0.004381965212,-0.0005573102113
1.84,0.00435977117,-0.0007925530009
1.85,0.004324409698,-0.001027351967
1.86,0.004275844047,-0.001260929332
1.87,0.004214086291,-0.00149250082
1.88,0.004139198006,-0.001721278915
1.89,0.004051290711,-0.00194647617
1.9,0.003950526071,-0.002167308574
1.91,0.00383711588,-0.002382998924
1.92,0.003711321781,-0.002592780217
1.93,0.003573454767,-0.00279589903
1.94,0.003423874431,-0.002991618862
1.95,0.003262987982,-0.003179223445
1.96,0.003091249026,-0.003358019979
1.97,0.002909156118,-0.003527342293
1.98,0.002717251091,-0.00368655391
1.99,0.002516117168,-0.003835050993
2,0.002306376863,-0.003972265167
2.01,0.002088689685,-0.004097666195
2.02,0.001863749656,-0.004210764494
2.03,0.001632282648,-0.004311113482
2.04,0.001395043558,-0.004398311738
2.05,0.001152813331,-0.004472004965
2.06,0.0009063958509,-0.004531887746
2.07,0.0006566147015,-0.004577705087
2.08,0.0004043098317,-0.004609253729
2.09,0.0001503341257,-0.004626383228
2.1,-0.000104450097,-0.004628996806
2.11,-0.000359174637,-0.004617051942
2.12,-0.0006129690075,-0.004590560733
2.13,-0.0008649640459,-0.004549589994
2.14,-0.001114295528,-0.004494261114
2.15,-0.001360107766,-0.004424749664
2.16,-0.001601557168,-0.00434128475
2.17,-0.001837815757,-0.004244148132
2.18,-0.002068074606,-0.004133673094
2.19,-0.002291547198,-0.004010243085
2.2,-0.002507472681,-0.003874290129
2.21,-0.002715119001,-0.00372629302
2.22,-0.002913785906,-0.0035667753
2.23,-0.003102807801,-0.003396303047
2.24,-0.003281556437,-0.003215482463
2.25,-0.003449443433,-0.003024957293
2.26,-0.003605922603,-0.002825406078
2.27,-0.00375049209,-0.002617539261
2.28,-0.003882696298,-0.002402096154
2.29,-0.004002127594,-0.002179841791
2.3,-0.004108427803,-0.001951563674
2.31,-0.004201289462,-0.00171806843
2.32,-0.004280456844,-0.001480178404
2.33,-0.004345726743,-0.001238728193
2.34,-0.004396949019,-0.000994561147
2.35,-0.004434026895,-0.0007485258494
2.36,-0.00445691702,-0.0005014725965
2.37,-0.004465629287,-0.0002542498929
2.38,-0.004460226408,-7.700979652E-06
2.39,-0.004440823265,0.0002373395882
2.4,-0.004407586018,0.0004800492988
2.41,-0.004360730999,0.0007196209577
2.42,-0.004300523388,0.0009552658665
2.43,-0.004227275673,0.001186216888
2.44,-0.004141345923,0.001411731387
2.45,-0.004043135862,0.00163109403
2.46,-0.003933088774,0.001843619437
2.47,-0.003811687231,0.002048654664
2.48,-0.003679450685,0.002245581519
2.49,-0.003536932904,0.002433818689
2.5,-0.003384719294,0.002612823679
2.51,-0.003223424106,0.002782094549
2.52,-0.003053687549,0.002941171448
2.53,-0.002876172822,0.003089637935
2.54,-0.002691563083,0.003227122091
2.55,-0.002500558366,0.003353297403
2.56,-0.002303872472,0.003467883441
2.57,-0.002102229835,0.003570646307
2.58,-0.001896362392,0.003661398874
2.59,-0.00168700647,0.003740000794
2.6,-0.001474899694,0.00380635831
2.61,-0.001260777951,0.003860423847
2.62,-0.001045372404,0.0039021954
2.63,-0.0008294065847,0.003931715727
2.64,-0.0006135935752,0.00394907135
2.65,-0.0003986332821,0.003954391375
2.66,-0.0001852098294,0.003947846131
2.67,2.601092841E-05,0.003929645658
2.68,0.0002343837591,0.003900038028
2.69,0.0004392862619,0.003859307536
2.7,0.0006401209252,0.003807772753
2.71,0.0008363170238,0.003745784465
2.72,0.001027332351,0.003673723506
2.73,0.001212654778,0.0035919985
2.74,0.001391803635,0.003501043525
2.75,0.001564330916,0.003401315713
2.76,0.001729822299,0.0032932928
2.77,0.001887897978,0.003177470637
2.78,0.002038213319,0.003054360682
2.79,0.002180459324,0.002924487481
2.8,0.002314362915,0.002788386154
2.81,0.002439687047,0.002646599901
2.82,0.002556230629,0.002499677533
2.83,0.002663828289,0.002348171055
2.84,0.002762349964,0.002192633301
2.85,0.002851700335,0.00203361563
2.86,0.002931818112,0.00187166571
2.87,0.003002675167,0.001707325381
2.88,0.00306427554,0.001541128625
2.89,0.003116654311,0.001373599631
2.9,0.003159876367,0.001205250985
2.91,0.003194035047,0.001036581971
2.92,0.003219250705,0.0008680770074
2.93,0.003235669185,0.0007002042126
2.94,0.003243460215,0.0005334141058
2.95,0.003242815753,0.0003681384512
2.96,0.003233948272,0.0002047892427
2.97,0.003217089012,4.375783385E-05
2.98,0.003192486203,-0.0001145857877
2.99,0.003160403278,-0.0002698935816
3,0.003121117075,-0.0004218398923
3.01,0.003074916053,-0.0005701217466
3.02,0.003022098522,-0.0007144590117
3.03,0.002962970906,-0.0008545944201
3.04,0.002897846042,-0.0009902934649
3.05,0.00282704153,-0.00112134417
3.06,0.002750878136,-0.001247556742
3.07,0.002669678268,-0.001368763113
3.08,0.002583764518,-0.001484816375
3.09,0.002493458292,-0.00159559012
3.1,0.002399078522,-0.001700977696
3.11,0.002300940471,-0.001800891375
3.12,0.002199354639,-0.001895261455
3.13,0.002094625767,-0.001984035305
3.14,0.001987051948,-0.002067176354
3.15,0.001876923842,-0.002144663033
3.16,0.001764524002,-0.0022164877
3.17,0.001650126307,-0.002282655523
3.18,0.001533995507,-0.002343183369
3.19,0.001416386876,-0.002398098677
3.2,0.001297545963,-0.002447438343
3.21,0.00117770846,-0.002491247618
3.22,0.001057100162,-0.002529579033
3.23,0.0009359370233,-0.002562491351
3.24,0.0008144253095,-0.002590048567
3.25,0.0006927618351,-0.002612318949
3.26,0.0005711342799,-0.00262937414
3.27,0.0004497215824,-0.002641288312
3.28,0.0003286943995,-0.002648137399
3.29,0.0002082156266,-0.002649998392
3.3,8.844097088E-05,-0.002646948717
3.31,-3.048043066E-05,-0.002639065687
3.32,-0.0001484053569,-0.002626426043
3.33,-0.0002651958195,-0.002609105576
3.34,-0.0003807183609,-0.002587178838
3.35,-0.0004948433395,-0.002560718941
3.36,-0.0006074442139,-0.002529797438
3.37,-0.0007183968313,-0.002494484298
3.38,-0.0008275787304,-0.002454847963
3.39,-0.0009348684667,-0.002410955484
3.4,-0.001040144967,-0.002362872742
3.41,-0.001143286922,-0.002310664744
3.42,-0.001244172221,-0.002254395987
3.43,-0.001342677443,-0.002194130894
3.44,-0.001438677399,-0.002129934311
3.45,-0.001532044739,-0.002061872051
3.46,-0.001622649634,-0.001990011503
3.47,-0.00171035952,-0.001914422265
3.48,-0.001795038924,-0.001835176828
3.49,-0.001876549371,-0.001752351274
3.5,-0.001954749375,-0.001666026005
3.51,-0.002029494503,-0.001576286474
3.52,-0.002100637542,-0.001483223926
3.53,-0.002168028736,-0.001386936128
3.54,-0.002231516116,-0.001287528094
3.55,-0.002290945915,-0.00118511278
3.56,-0.002346163061,-0.001079811753
3.57,-0.002397011756,-0.0009717558274
3.58,-0.002443336124,-0.0008610856461
3.59,-0.002484980938,-0.000747952219
3.6,-0.002521792415,-0.0006325173959
3.61,-0.002553619074,-0.0005149542757
3.62,-0.002580312644,-0.0003954475426
3.63,-0.002601729037,-0.0002741937245
3.64,-0.002617729354,-0.0001514013676
3.65,-0.002628180935,-2.729112409E-05
3.66,-0.002632958434,9.790425283E-05
3.67,-0.002631944918,0.0002239400082
3.68,-0.002625032982,0.0003505595824
3.69,-0.002612125862,0.0004774949083
3.7,-0.002593138552,0.0006044668085
3.71,-0.002567998907,0.0007311854937
3.72,-0.002536648716,0.000857351163
3.73,-0.002499044761,0.0009826547026
3.74,-0.00245515982,0.001106778484
3.75,-0.002404983635,0.001229397255
3.76,-0.002348523822,0.001350179129
3.77,-0.002285806709,0.001468786655
3.78,-0.002216878112,0.001584877975
3.79,-0.002141804029,0.001698108063
3.8,-0.002060671242,0.001808130028
3.81,-0.001973587836,0.001914596493
3.82,-0.00188068361,0.002017161023
3.83,-0.001782110387,0.002115479613
3.84,-0.001678042218,0.00220921221
3.85,-0.001568675467,0.002298024281
3.86,-0.00145422878,0.002381588392
3.87,-0.00133494294,0.00245958582
3.88,-0.001211080592,0.002531708156
3.89,-0.001082925847,0.00259765892
3.9,-0.0009507837669,0.002657155154
3.91,-0.0008149797205,0.002709928996
3.92,-0.0006758586172,0.002755729222
3.93,-0.0005337840226,0.002794322751
3.94,-0.0003891371532,0.002825496089
3.95,-0.0002423157576,0.002849056724
3.96,-9.373288574E-05,0.00286483444
3.97,5.61844472E-05,0.002872682564
3.98,0.0002069966981,0.002872479115
3.99,0.0003582533275,0.002864127864
4,0.0005094944183,0.002847559291
4.01,0.0006602523756,0.002822731431
4.02,0.0008100536975,0.002789630603
4.03,0.0009584208106,0.002748272015
4.04,0.00110487396,0.002698700249
4.05,0.001248933142,0.002640989604
4.06,0.001390120078,0.002575244308
4.07,0.001527960209,0.002501598593
4.08,0.001661984704,0.002420216624
4.09,0.001791732479,0.002331292291
4.1,0.001916752205,0.002235048847
4.11,0.002036604301,0.002131738416
4.12,0.002150862898,0.002021641349
4.13,0.00225911777,0.001905065443
4.14,0.002360976211,0.001782345019
4.15,0.002456064854,0.001653839868
4.16,0.002544031425,0.001519934067
4.17,0.002624546419,0.001381034665
4.18,0.002697304679,0.001237570249
4.19,0.00276202689,0.001089989402
4.2,0.002818460965,0.0009387590496
4.21,0.002866383311,0.0007843627028
4.22,0.002905599985,0.0006272986189
4.23,0.002935947716,0.0004680778731
4.24,0.002957294799,0.0003072223593
4.25,0.002969541845,0.0001452627266
4.26,0.002972622396,-1.726373749E-05
4.27,0.00296650339,-0.0001798152672
4.28,0.002951185471,-0.0003418478117
4.29,0.002926703159,-0.0005028172492
4.3,0.002893124854,-0.000662181613
4.31,0.002850552697,-0.0008194033168
4.32,0.002799122275,-0.0009739513685
4.33,0.002739002162,-0.001125303562
4.34,0.002670393333,-0.001272948637
4.35,0.002593528403,-0.00141638839
4.36,0.002508670743,-0.001555139741
4.37,0.002416113444,-0.001688736722
4.38,0.002316178153,-0.001816732403
4.39,0.00220921377,-0.001938700725
4.4,0.002095595029,-0.002054238248
4.41,0.001975720967,-0.002162965788
4.42,0.001850013271,-0.002264529955
4.43,0.001718914534,-0.002358604565
4.44,0.001582886423,-0.002444891932
4.45,0.001442407749,-0.00252312403
4.46,0.001297972485,-0.002593063521
4.47,0.0011500877,-0.002654504642
4.48,0.0009992714542,-0.002707273944
4.49,0.0008460506475,-0.002751230892
4.5,0.0006909588341,-0.00278626831
4.51,0.0005345340186,-0.002812312676
4.52,0.0003773164409,-0.002829324267
4.53,0.000219846361,-0.00283729715
4.54,6.266185602E-05,-0.002836259022
4.55,-9.370336136E-05,-0.002826270904
4.56,-0.0002487220921,-0.002807426687
4.57,-0.0004018757576,-0.002779852526
4.58,-0.0005526564532,-0.002743706108
4.59,-0.0007005689407,-0.002699175775
4.6,-0.0008451325689,-0.002646479516
4.61,-0.0009858831136,-0.002585863839
4.62,-0.00112237453,-0.002517602527
4.63,-0.001254180609,-0.002441995271
4.64,-0.00138089653,-0.002359366215
4.65,-0.001502140299,-0.002270062396
4.66,-0.001617554084,-0.002174452096
4.67,-0.001726805411,-0.002072923124
4.68,-0.001829588248,-0.00196588102
4.69,-0.001925623955,-0.001853747203
4.7,-0.002014662098,-0.001736957071
4.71,-0.002096481128,-0.001615958057
4.72,-0.002170888931,-0.001491207656
4.73,-0.002237723224,-0.001363171433
4.74,-0.002296851827,-0.001232321018
4.75,-0.002348172788,-0.0010991321
4.76,-0.002391614376,-0.0009640824364
4.77,-0.002427134932,-0.0008276498704
4.78,-0.002454722595,-0.0006903103866
4.79,-0.002474394893,-0.0005525361979
4.8,-0.002486198209,-0.0004147938807
4.81,-0.00249020713,-0.0002775425641
4.82,-0.00248652367,-0.0001412321817
4.83,-0.002475276393,-6.301793702E-06
4.84,-0.002456619426,0.0001268220138
4.85,-0.002430731372,0.0002577266452
4.86,-0.002397814135,0.0003860149221
4.87,-0.002358091661,0.0005113064143
4.88,-0.002311808599,0.00063323867
4.89,-0.002259228899,0.0007514683413
4.9,-0.002200634345,0.0008656722011
4.91,-0.002136323038,0.0009755480484
4.92,-0.002066607837,0.001080815499
4.93,-0.001991814763,0.001181216662
4.94,-0.001912281377,0.001276516695
4.95,-0.001828355145,0.001366504248
4.96,-0.001740391787,0.001450991785
4.97,-0.001648753628,0.001529815792
4.98,-0.001553807963,0.001602836866
4.99,-0.001455925427,0.001669939695
5,-0.001355478399,0.001731032926
5.01,-0.00125283943,0.001786048924
5.02,-0.001148379717,0.001834943428
5.03,-0.001042467613,0.001877695107
5.04,-0.0009354672003,0.001914305025
5.05,-0.0008277369132,0.001944796006
5.06,-0.0007196282303,0.001969211925
5.07,-0.0006114844331,0.001987616912
5.08,-0.0005036394398,0.00200009449
5.09,-0.0003964167176,0.00200674664
5.1,-0.0002901282759,0.002007692809
5.11,-0.0001850737452,0.002003068868
5.12,-8.15395439E-05,0.001993026018
5.13,2.020186573E-05,0.001977729661
5.14,0.0001198926302,0.001957358237
5.15,0.0002172900652,0.001932102038
5.16,0.0003121671235,0.001902162002
5.17,0.0004043127703,0.001867748499
5.18,0.000493532267,0.001829080109
5.19,0.0005796473647,0.001786382409
5.2,0.0006624964078,0.001739886766
5.21,0.0007419343524,0.001689829144
5.22,0.0008178326991,0.001636448938
5.23,0.0008900793458,0.001579987836
5.24,0.0009585783624,0.001520688708
5.25,0.001023249692,0.001458794541
5.26,0.001084028782,0.001394547415
5.27,0.001140866152,0.001328187531
5.28,0.001193726896,0.00125995228
5.29,0.001242590139,0.001190075383
5.3,0.001287448432,0.00111878608
5.31,0.001328307112,0.001046308384
5.32,0.001365183616,0.0009728603974
5.33,0.001398106767,0.0008986536987
5.34,0.001427116027,0.0008238927912
5.35,0.001452260732,0.0007487746237
5.36,0.001473599308,0.0006734881779
5.37,0.001491198476,0.0005982141256
5.38,0.001505132458,0.0005231245534
5.39,0.001515482171,0.0004483827548
5.4,0.001522334442,0.0003741430887
5.41,0.001525781217,0.0003005509017
5.42,0.001525918802,0.0002277425128
5.43,0.001522847112,0.0001558452575
5.44,0.001516668952,8.49775894E-05
5.45,0.001507489322,1.524923506E-05
5.46,0.001495414758,-5.323860068E-05
5.47,0.001480552709,-0.0001203929826
5.48,0.001463010952,-0.0001861289501
5.49,0.001442897047,-0.0002503691837
5.5,0.001420317845,-0.0003130436372
5.51,0.001395379031,-0.0003740891393
5.52,0.001368184723,-0.0004334489703
5.53,0.001338837117,-0.0004910724177
5.54,0.001307436188,-0.0005469143153
5.55,0.001274079431,-0.000600934571
5.56,0.001238861663,-0.0006530976873
5.57,0.00120187487,-0.0007033722793
5.58,0.001163208106,-0.0007517305954
5.59,0.00112294744,-0.0007981480431
5.6,0.001081175948,-0.0008426027267
5.61,0.001037973754,-0.0008850749988
5.62,0.000993418115,-0.0009255470305
5.63,0.000947583542,-0.000964002404
5.64,0.0009005419631,-0.00100042573
5.65,0.0008523629223,-0.001034802296
5.66,0.0008031138084,-0.001067117741
5.67,0.0007528601144,-0.00109735777
5.68,0.0007016657217,-0.001125507901
5.69,0.0006495932061,-0.001151553254
5.7,0.0005967041608,-0.001175478373
5.71,0.0005430595348,-0.001197267094
5.72,0.0004887199794,-0.001216902456
5.73,0.0004337462017,-0.00123436665
5.74,0.0003781993191,-0.001249641012
5.75,0.0003221412125,-0.00126270606
5.76,0.0002656348714,-0.001273541571
5.77,0.0002087447311,-0.001282126697
5.78,0.0001515369935,-0.001288440125
5.79,9.407993218E-05,-0.001292460272
5.8,3.644417491E-05,-0.001294165515
5.81,-2.129703789E-05,-0.001293534462
5.82,-7.906762246E-05,-0.001290546242
5.83,-0.0001367884518,-0.001285180837
5.84,-0.0001943771891,-0.001277419434
5.85,-0.0002517481566,-0.001267244796
5.86,-0.0003088122429,-0.001254641662
5.87,-0.0003654768493,-0.001239597154
5.88,-0.0004216458778,-0.001222101202
5.89,-0.0004772197616,-0.001202146973
5.9,-0.0005320955383,-0.001179731312
5.91,-0.0005861669676,-0.001154855173
5.92,-0.0006393246928,-0.001127524057
5.93,-0.0006914564457,-0.001097748439
5.94,-0.0007424472961,-0.001065544179
5.95,-0.0007921799426,-0.001030932927
5.96,-0.0008405350455,-0.0009939425003
5.97,-0.0008873916001,-0.0009546072456
5.98,-0.000932627347,-0.0009129683692
5.99,-0.0009761192202,-0.0008690742397
6,-0.001017743827,-0.000822980658
