"Freq [GHz]","re(S(Tx_p1,Tx_p1)) []","im(S(Tx_p1,Tx_p1)) []"
1,-0.0262203887,-0.09379789774
1.01,-0.02979193577,-0.09275235847
1.02,-0.03333526161,-0.09156226905
1.03,-0.03684363627,-0.09022799792
1.04,-0.04031034019,-0.0887502602
1.05,-0.0437286811,-0.08713011518
1.06,-0.04709201078,-0.08536896311
1.07,-0.05039374158,-0.08346854134
1.08,-0.05362736263,-0.08143091975
1.09,-0.0567864558,-0.07925849555
1.1,-0.05986471136,-0.07695398732
1.11,-0.06285594328,-0.07452042852
1.12,-0.06575410412,-0.07196116027
1.13,-0.06855329964,-0.06927982352
1.14,-0.07124780285,-0.06648035067
1.15,-0.07383206773,-0.0635669565
1.16,-0.07630074241,-0.06054412862
1.17,-0.07864868191,-0.0574166173
1.18,-0.08087096032,-0.05418942482
1.19,-0.08296288245,-0.05086779426
1.2,-0.08491999496,-0.04745719786
1.21,-0.08673809685,-0.04396332487
1.22,-0.08841324941,-0.04039206899
1.23,-0.08994178554,-0.03674951539
1.24,-0.0913203184,-0.03304192741
1.25,-0.09254574944,-0.02927573277
1.26,-0.0936152758,-0.02545750963
1.27,-0.09452639699,-0.02159397222
1.28,-0.09527692089,-0.01769195626
1.29,-0.0958649691,-0.0137584042
1.3,-0.0962889815,-0.009800350153
1.31,-0.09654772021,-0.005824904762
1.32,-0.09664027272,-0.001839239861
1.33,-0.09656605441,0.00214942692
1.34,-0.09632481024,0.006133847645
1.35,-0.09591661578,0.01010675959
1.36,-0.09534187754,0.01406090075
1.37,-0.09460133249,0.01798902535
1.38,-0.09369604693,0.02188391929
1.39,-0.09262741464,0.02573841543
1.4,-0.09139715427,0.02954540884
1.41,-0.09000730612,0.03329787186
1.42,-0.08846022814,0.03698886893
1.43,-0.08675859129,0.04061157123
1.44,-0.08490537424,0.04415927111
1.45,-0.08290385741,0.04762539614
1.46,-0.08075761632,0.05100352295
1.47,-0.07847051442,0.05428739068
1.48,-0.07604669519,0.05747091404
1.49,-0.07349057375,0.06054819604
1.5,-0.07080682786,0.06351354025
1.51,-0.06800038836,0.06636146264
1.52,-0.06507642912,0.06908670293
1.53,-0.06204035644,0.07168423548
1.54,-0.05889779801,0.07414927964
1.55,-0.05565459141,0.07647730955
1.56,-0.05231677217,0.07866406346
1.57,-0.04889056142,0.0807055524
1.58,-0.0453823532,0.08259806828
1.59,-0.04179870139,0.08433819143
1.6,-0.03814630633,0.08592279744
1.61,-0.03443200116,0.08734906348
1.62,-0.0306627379,0.08861447386
1.63,-0.02684557332,0.08971682502
1.64,-0.02298765455,0.09065422981
1.65,-0.01909620459,0.09142512116
1.66,-0.01517850769,0.09202825497
1.67,-0.01124189455,0.09246271244
1.68,-0.007293727506,0.09272790167
1.69,-0.003341385699,0.0928235585
1.7,0.0006077498341,0.09274974684
1.71,0.004546310996,0.09250685812
1.72,0.00846695743,0.09209561021
1.73,0.01236239123,0.0915170456
1.74,0.01622537154,0.09077252891
1.75,0.020048729,0.08986374377
1.76,0.02382538001,0.08879268899
1.77,0.02754834084,0.08756167416
1.78,0.03121074141,0.08617331456
1.79,0.03480583889,0.08463052548
1.8,0.03832703098,0.08293651591
1.81,0.04176786884,0.08109478166
1.82,0.04512206977,0.07910909788
1.83,0.04838352939,0.0769835111
1.84,0.05154633353,0.07472233057
1.85,0.05460476968,0.07233011929
1.86,0.05755333792,0.06981168434
1.87,0.06038676155,0.06717206688
1.88,0.06309999704,0.06441653163
1.89,0.06568824366,0.06155055592
1.9,0.06814695245,0.05857981833
1.91,0.07047183476,0.055510187
1.92,0.07265887013,0.0523477075
1.93,0.07470431371,0.04909859043
1.94,0.07660470303,0.04576919869
1.95,0.07835686416,0.04236603451
1.96,0.07995791736,0.03889572616
1.97,0.08140528198,0.03536501453
1.98,0.08269668087,0.03178073946
1.99,0.08383014408,0.0281498259
2,0.08480401192,0.02447926998
2.01,0.08561693746,0.02077612498
2.02,0.08626788825,0.01704748716
2.03,0.08675614758,0.01330048161
2.04,0.08708131491,0.009542248075
2.05,0.08724330578,0.005779926755
2.06,0.08724235104,0.002020644212
2.07,0.08707899545,-0.001728500706
2.08,0.08675409562,-0.00546045081
2.09,0.08626881738,-0.009168204391
2.1,0.08562463249,-0.01284482889
2.11,0.08482331475,-0.01648347435
2.12,0.08386693551,-0.02007738674
2.13,0.08275785866,-0.02361992089
2.14,0.08149873489,-0.02710455335
2.15,0.0800924956,-0.03052489478
2.16,0.07854234607,-0.03387470214
2.17,0.07685175823,-0.03714789051
2.18,0.07502446286,-0.04033854451
2.19,0.07306444133,-0.0434409294
2.2,0.07097591682,-0.04644950175
2.21,0.06876334515,-0.04935891963
2.22,0.06643140512,-0.05216405246
2.23,0.06398498846,-0.05485999031
2.24,0.06142918939,-0.05744205274
2.25,0.0587692938,-0.05990579719
2.26,0.05601076815,-0.06224702677
2.27,0.05315924793,-0.06446179763
2.28,0.05022052596,-0.06654642571
2.29,0.04720054029,-0.06849749296
2.3,0.04410536201,-0.07031185303
2.31,0.0409411827,-0.07198663637
2.32,0.03771430176,-0.07351925472
2.33,0.03443111358,-0.07490740508
2.34,0.03109809457,-0.07614907307
2.35,0.02772179003,-0.07724253563
2.36,0.02430880102,-0.07818636323
2.37,0.02086577112,-0.07897942141
2.38,0.01739937318,-0.07962087177
2.39,0.01391629607,-0.08011017228
2.4,0.01042323146,-0.08044707709
2.41,0.006926860629,-0.08063163571
2.42,0.003433841397,-0.08066419156
2.43,-4.920486923E-05,-0.08054538002
2.44,-0.003515706103,-0.08027612584
2.45,-0.006959152233,-0.07985763999
2.46,-0.01037310769,-0.07929141598
2.47,-0.01375122371,-0.07857922564
2.48,-0.01708725041,-0.07772311427
2.49,-0.02037504857,-0.07672539543
2.5,-0.02360860123,-0.07558864503
2.51,-0.02678202484,-0.07431569508
2.52,-0.02988958026,-0.07290962687
2.53,-0.03292568328,-0.07137376374
2.54,-0.03588491483,-0.06971166333
2.55,-0.03876203082,-0.06792710948
2.56,-0.04155197158,-0.06602410364
2.57,-0.04424987083,-0.064006856
2.58,-0.04685106434,-0.06187977612
2.59,-0.04935109796,-0.05964746326
2.6,-0.05174573538,-0.05731469647
2.61,-0.05403096527,-0.0548864242
2.62,-0.05620300804,-0.05236775377
2.63,-0.058258322,-0.04976394051
2.64,-0.06019360909,-0.04708037668
2.65,-0.06200582008,-0.04432258019
2.66,-0.06369215923,-0.04149618309
2.67,-0.06525008839,-0.03860691992
2.68,-0.06667733064,-0.03566061595
2.69,-0.06797187333,-0.03266317522
2.7,-0.06913197058,-0.02962056858
2.71,-0.07015614526,-0.02653882161
2.72,-0.07104319043,-0.02342400248
2.73,-0.07179217015,-0.02028220987
2.74,-0.0724024199,-0.01711956083
2.75,-0.07287354629,-0.01394217868
2.76,-0.07320542632,-0.01075618098
2.77,-0.07339820613,-0.007567667604
2.78,-0.07345229916,-0.00438270885
2.79,-0.0733683838,-0.001207333757
2.8,-0.07314740056,0.001952481486
2.81,-0.07279054868,0.005090824927
2.82,-0.07229928233,0.008201860063
2.83,-0.07167530622,0.01127983682
2.84,-0.07092057081,0.01431910229
2.85,-0.07003726706,0.01731411126
2.86,-0.06902782066,0.02025943637
2.87,-0.06789488595,0.02314977808
2.88,-0.06664133928,0.02597997425
2.89,-0.06527027209,0.02874500939
2.9,-0.06378498352,0.03144002363
2.91,-0.06218897274,0.03406032125
2.92,-0.06048593082,0.03660137883
2.93,-0.05867973235,0.03905885309
2.94,-0.05677442673,0.04142858823
2.95,-0.05477422916,0.0437066229
2.96,-0.05268351135,0.0458891967
2.97,-0.050506792,0.04797275631
2.98,-0.04824872702,0.0499539611
2.99,-0.04591409957,0.0518296883
3,-0.0435078099,0.05359703772
3.01,-0.041034865,0.05525333599
3.02,-0.03850036816,0.05679614029
3.03,-0.03590950834,0.05822324169
3.04,-0.03326754951,0.05953266784
3.05,-0.03057981985,0.06072268538
3.06,-0.02785170091,0.06179180166
3.07,-0.0250886168,0.06273876612
3.08,-0.02229602326,0.06356257108
3.09,-0.01947939682,0.06426245211
3.1,-0.01664422398,0.06483788789
3.11,-0.01379599041,0.06528859956
3.12,-0.01094017028,0.06561454963
3.13,-0.008082215616,0.06581594043
3.14,-0.005227545862,0.06589321205
3.15,-0.002381537495,0.06584703983
3.16,0.0004504861535,0.06567833146
3.17,0.003263264906,0.06538822356
3.18,0.00605161156,0.06497807786
3.19,0.008810421491,0.06444947702
3.2,0.01153468202,0.06380421991
3.21,0.01421948154,0.06304431663
3.22,0.01686001836,0.06217198308
3.23,0.01945160927,0.06118963515
3.24,0.02198969786,0.06009988261
3.25,0.02446986241,0.05890552258
3.26,0.02688782361,0.05760953277
3.27,0.02923945177,0.05621506436
3.28,0.03152077385,0.05472543455
3.29,0.03372798,0.05314411896
3.3,0.03585742976,0.05147474362
3.31,0.03790565794,0.04972107684
3.32,0.03986938001,0.0478870208
3.33,0.04174549718,0.04597660296
3.34,0.043531101,0.0439939673
3.35,0.0452234776,0.04194336536
3.36,0.04682011149,0.03982914713
3.37,0.04831868894,0.03765575192
3.38,0.04971710095,0.03542769897
3.39,0.05101344573,0.03314957807
3.4,0.05220603086,0.03082604013
3.41,0.05329337491,0.02846178762
3.42,0.0542742087,0.02606156507
3.43,0.0551474761,0.02363014949
3.44,0.05591233441,0.02117234087
3.45,0.05656815428,0.01869295266
3.46,0.05711451931,0.01619680232
3.47,0.05755122511,0.01368870194
3.48,0.05787827799,0.01117344893
3.49,0.05809589333,0.008655816856
3.5,0.05820449338,0.006140546348
3.51,0.05820470486,0.003632336181
3.52,0.05809735601,0.001135834502
3.53,0.05788347337,-0.001344369769
3.54,0.05756427815,-0.003803755349
3.55,0.05714118229,-0.006237876795
3.56,0.05661578409,-0.008642372492
3.57,0.05598986363,-0.01101297241
3.58,0.05526537775,-0.01334550559
3.59,0.05444445482,-0.01563590742
3.6,0.05352938914,-0.0178802266
3.61,0.05252263512,-0.0200746318
3.62,0.05142680117,-0.0222154181
3.63,0.05024464332,-0.02429901305
3.64,0.04897905866,-0.02632198247
3.65,0.0476330785,-0.02828103588
3.66,0.04620986134,-0.03017303161
3.67,0.04471268569,-0.03199498162
3.68,0.04314494268,-0.0337440559
3.69,0.0415101285,-0.03541758658
3.7,0.03981183677,-0.03701307163
3.71,0.0380537507,-0.03852817825
3.72,0.03623963521,-0.03996074587
3.73,0.03437332893,-0.04130878879
3.74,0.03245873613,-0.04257049842
3.75,0.03049981862,-0.04374424522
3.76,0.02850058756,-0.04482858019
3.77,0.02646509532,-0.04582223607
3.78,0.02439742726,-0.0467241281
3.79,0.02230169359,-0.04753335444
3.8,0.02018202119,-0.04824919627
3.81,0.01804254555,-0.04887111744
3.82,0.0158874027,-0.04939876384
3.83,0.01372072127,-0.04983196239
3.84,0.01154661459,-0.0501707197
3.85,0.009369172949,-0.05041522033
3.86,0.007192455921,-0.05056582482
3.87,0.005020484883,-0.05062306729
3.88,0.002857235633,-0.05058765279
3.89,0.000706631189,-0.05046045432
3.9,-0.001427465233,-0.05024250955
3.91,-0.003541257063,-0.04993501724
3.92,-0.005631021021,-0.04953933337
3.93,-0.007693113542,-0.04905696708
3.94,-0.009723976995,-0.04848957621
3.95,-0.01172014566,-0.04783896273
3.96,-0.01367825146,-0.04710706784
3.97,-0.01559502946,-0.0462959669
3.98,-0.0174673231,-0.04540786414
3.99,-0.01929208916,-0.04444508714
4,-0.02106640244,-0.04341008115
4.01,-0.02278746017,-0.04230540326
4.02,-0.02445258619,-0.04113371638
4.03,-0.02605923471,-0.03989778307
4.04,-0.0276049939,-0.03860045926
4.05,-0.02908758913,-0.03724468786
4.06,-0.03050488587,-0.03583349225
4.07,-0.03185489239,-0.03436996967
4.08,-0.03313576205,-0.03285728458
4.09,-0.03434579529,-0.03129866192
4.1,-0.03548344142,-0.02969738036
4.11,-0.03654729993,-0.02805676543
4.12,-0.03753612166,-0.02638018281
4.13,-0.03844880954,-0.02467103138
4.14,-0.0392844191,-0.02293273651
4.15,-0.04004215861,-0.02116874322
4.16,-0.040721389,-0.01938250942
4.17,-0.04132162342,-0.01757749924
4.18,-0.04184252654,-0.01575717633
4.19,-0.04228391356,-0.01392499737
4.2,-0.04264574891,-0.01208440554
4.21,-0.0429281447,-0.01023882415
4.22,-0.04313135894,-0.008391650389
4.23,-0.04325579339,-0.006546249147
4.24,-0.04330199128,-0.004705947042
4.25,-0.04327063467,-0.002874026526
4.26,-0.04316254166,-0.001053720179
4.27,-0.04297866332,0.000751794843
4.28,-0.04272008038,0.002539402191
4.29,-0.0423879998,0.004306051516
4.3,-0.041983751,0.006048763481
4.31,-0.04150878203,0.007764634574
4.32,-0.04096465545,0.009450841714
4.33,-0.04035304411,0.01110464665
4.34,-0.03967572674,0.01272340013
4.35,-0.03893458338,0.01430454589
4.36,-0.03813159066,0.01584562436
4.37,-0.03726881702,0.01734427614
4.38,-0.03634841771,0.01879824533
4.39,-0.03537262977,0.02020538248
4.4,-0.03434376684,0.02156364742
4.41,-0.03326421398,0.02287111176
4.42,-0.0321364223,0.02412596121
4.43,-0.03096290364,0.02532649759
4.44,-0.02974622512,0.02647114064
4.45,-0.02848900373,0.02755842955
4.46,-0.02719390077,0.02858702428
4.47,-0.02586361643,0.02955570654
4.48,-0.02450088425,0.03046338066
4.49,-0.0231084656,0.03130907408
4.5,-0.02168914428,0.03209193771
4.51,-0.02024572098,0.03281124596
4.52,-0.01878100792,0.03346639657
4.53,-0.01729782348,0.03405691022
4.54,-0.01579898689,0.03458242991
4.55,-0.01428731298,0.03504272004
4.56,-0.01276560705,0.0354376654
4.57,-0.01123665978,0.03576726984
4.58,-0.009703242262,0.03603165476
4.59,-0.008168101125,0.03623105739
4.6,-0.006633953773,0.03636582892
4.61,-0.005103483753,0.03643643237
4.62,-0.003579336236,0.03644344031
4.63,-0.00206411365,0.03638753242
4.64,-0.0005603714353,0.03626949281
4.65,0.0009293860356,0.03609020728
4.66,0.002402709395,0.03585066036
4.67,0.003857208056,0.0355519322
4.68,0.005290553818,0.03519519535
4.69,0.006700484314,0.03478171139
4.7,0.008084806274,0.03431282747
4.71,0.009441398618,0.0337899727
4.72,0.01076821537,0.03321465443
4.73,0.01206328838,0.03258845452
4.74,0.01332472986,0.0319130254
4.75,0.01455073476,0.03119008614
4.76,0.0157395829,0.03042141842
4.77,0.01688964098,0.02960886248
4.78,0.0179993643,0.02875431291
4.79,0.01906729842,0.02785971458
4.8,0.02009208051,0.02692705833
4.81,0.02107244055,0.02595837681
4.82,0.02200720235,0.02495574021
4.83,0.02289528438,0.02392125202
4.84,0.02373570039,0.02285704475
4.85,0.02452755985,0.02176527571
4.86,0.02527006821,0.0206481228
4.87,0.02596252696,0.01950778029
4.88,0.02660433357,0.01834645468
4.89,0.02719498116,0.01716636055
4.9,0.02773405806,0.01596971652
4.91,0.02822124718,0.0147587412
4.92,0.02865632525,0.01353564928
4.93,0.02903916181,0.0123026476
4.94,0.02936971817,0.01106193138
4.95,0.0296480461,0.009815680452
4.96,0.02987428642,0.008566055668
4.97,0.03004866749,0.007315195318
4.98,0.03017150349,0.006065211698
4.99,0.03024319264,0.004818187762
5,0.03026421519,0.003576173888
5.01,0.03023513145,0.002341184751
5.02,0.03015657956,0.00111519632
5.03,0.0300292732,-9.985703204E-05
5.04,0.02985399928,-0.00130208529
5.05,0.02963161537,-0.002489645434
5.06,0.02936304722,-0.003660743947
5.07,0.02904928608,-0.004813639188
5.08,0.028691386,-0.005946643635
5.09,0.028290461,-0.007058125989
5.1,0.0278476823,-0.008146513143
5.11,0.02736427535,-0.009210292008
5.12,0.02684151692,-0.0102480112
5.13,0.02628073208,-0.01125828261
5.14,0.02568329121,-0.01223978276
5.15,0.0250506069,-0.01319125414
5.16,0.02438413092,-0.01411150627
5.17,0.02368535108,-0.01499941676
5.18,0.02295578816,-0.01585393206
5.19,0.02219699278,-0.01667406826
5.2,0.02141054232,-0.01745891164
5.21,0.02059803778,-0.01820761906
5.22,0.01976110075,-0.01891941834
5.23,0.01890137027,-0.01959360838
5.24,0.01802049989,-0.02022955921
5.25,0.01712015455,-0.02082671196
5.26,0.01620200768,-0.02138457858
5.27,0.01526773825,-0.02190274157
5.28,0.01431902783,-0.02238085352
5.29,0.01335755783,-0.02281863654
5.3,0.01238500662,-0.02321588162
5.31,0.01140304686,-0.02357244781
5.32,0.01041334281,-0.02388826139
5.33,0.009417547697,-0.02416331485
5.34,0.008417301233,-0.02439766584
5.35,0.007414227095,-0.02459143597
5.36,0.006409930557,-0.02474480961
5.37,0.005405996172,-0.02485803246
5.38,0.004403985538,-0.02493141025
5.39,0.003405435144,-0.02496530712
5.4,0.002411854304,-0.02496014415
5.41,0.001424723178,-0.02491639768
5.42,0.0004454908732,-0.02483459763
5.43,-0.0005244263499,-0.02471532575
5.44,-0.001483646796,-0.02455921382
5.45,-0.00243082495,-0.02436694179
5.46,-0.003364653006,-0.02413923588
5.47,-0.004283862301,-0.02387686667
5.48,-0.005187224649,-0.02358064709
5.49,-0.006073553589,-0.02325143046
5.5,-0.006941705535,-0.02289010843
5.51,-0.007790580832,-0.02249760897
5.52,-0.008619124713,-0.02207489425
5.53,-0.009426328174,-0.02162295861
5.54,-0.01021122875,-0.02114282644
5.55,-0.01097291118,-0.0206355501
5.56,-0.01171050805,-0.02010220779
5.57,-0.01242320021,-0.01954390151
5.58,-0.0131102173,-0.01896175493
5.59,-0.01377083798,-0.01835691132
5.6,-0.01440439022,-0.01773053146
5.61,-0.01501025145,-0.01708379165
5.62,-0.01558784865,-0.0164178816
5.63,-0.01613665833,-0.01573400247
5.64,-0.01665620645,-0.01503336487
5.65,-0.01714606828,-0.0143171869
5.66,-0.01760586815,-0.01358669222
5.67,-0.01803527918,-0.01284310817
5.68,-0.01843402287,-0.0120876639
5.69,-0.0188018687,-0.01132158854
5.7,-0.01913863361,-0.01054610946
5.71,-0.01944418147,-0.009762450469
5.72,-0.01971842241,-0.008971830177
5.73,-0.01996131219,-0.008175460311
5.74,-0.02017285147,-0.007374544122
5.75,-0.02035308499,-0.006570274833
5.76,-0.02050210081,-0.005763834128
5.77,-0.02062002938,-0.004956390699
5.78,-0.02070704265,-0.004149098843
5.79,-0.02076335314,-0.003343097112
5.8,-0.0207892129,-0.002539507011
5.81,-0.02078491252,-0.001739431756
5.82,-0.02075078009,-0.0009439550838
5.83,-0.02068718005,-0.0001541401152
5.84,-0.02059451216,0.0006289717265
5.85,-0.0204732103,0.001404361743
5.86,-0.02032374137,0.00217103493
5.87,-0.02014660404,0.002928020901
5.88,-0.01994232764,0.003674374743
5.89,-0.0197114709,0.004409177833
5.9,-0.01945462076,0.005131538588
5.91,-0.0191723911,0.005840593171
5.92,-0.01886542157,0.006535506142
5.93,-0.0185343763,0.007215471055
5.94,-0.01817994267,0.007879711004
5.95,-0.01780283008,0.008527479125
5.96,-0.01740376867,0.00915805904
5.97,-0.01698350811,0.009770765261
5.98,-0.01654281636,0.01036494354
5.99,-0.01608247842,0.01093997117
6,-0.01560329509,0.01149525726
