"Freq [GHz]","re(S(Tx_p1,Tx_p1)) []","im(S(Tx_p1,Tx_p1)) []"
1,-0.007778266023,-0.003439331242
1.01,-0.007901213416,-0.003054391385
1.02,-0.008005218169,-0.002665114899
1.03,-0.008090132113,-0.002272473051
1.04,-0.008155860832,-0.001877439226
1.05,-0.008202363158,-0.00148098581
1.06,-0.008229650479,-0.001084081157
1.07,-0.008237785887,-0.0006876866586
1.08,-0.00822688318,-0.0002927539022
1.09,-0.0081971057,9.977805051E-05
1.1,-0.008148665051,0.0004889852752
1.11,-0.00808181968,0.0008739614737
1.12,-0.007996873347,0.001253820338
1.13,-0.007894173484,0.001627697783
1.14,-0.007774109463,0.001994754045
1.15,-0.007637110773,0.002354175651
1.16,-0.007483645124,0.002705177236
1.17,-0.007314216479,0.003047003236
1.18,-0.007129363037,0.003378929434
1.19,-0.006929655166,0.003700264363
1.2,-0.006715693294,0.004010350576
1.21,-0.006488105781,0.004308565776
1.22,-0.006247546759,0.00459432381
1.23,-0.00599469397,0.004867075524
1.24,-0.005730246597,0.005126309499
1.25,-0.0054549231,0.005371552643
1.26,-0.005169459059,0.005602370677
1.27,-0.004874605044,0.005818368485
1.28,-0.004571124496,0.006019190355
1.29,-0.004259791652,0.006204520113
1.3,-0.003941389497,0.00637408114
1.31,-0.003616707754,0.0065276363
1.32,-0.003286540927,0.00666498776
1.33,-0.002951686383,0.006785976728
1.34,-0.002612942493,0.006890483099
1.35,-0.002271106822,0.006978425027
1.36,-0.001926974378,0.007049758415
1.37,-0.001581335919,0.007104476343
1.38,-0.001234976326,0.007142608425
1.39,-0.0008886730237,0.007164220111
1.4,-0.0005431944818,0.007169411933
1.41,-0.0001992987632,0.007158318705
1.42,0.000142267856,0.007131108669
1.43,0.0004807722076,0.007087982615
1.44,0.0008154954891,0.007029172954
1.45,0.001145734461,0.006954942762
1.46,0.001470802584,0.006865584795
1.47,0.001790031096,0.006761420487
1.48,0.002102770036,0.006642798909
1.49,0.002408389204,0.006510095732
1.5,0.002706279074,0.006363712152
1.51,0.002995851652,0.006204073818
1.52,0.003276541283,0.006031629739
1.53,0.003547805405,0.005846851182
1.54,0.003809125263,0.005650230568
1.55,0.004060006573,0.005442280354
1.56,0.004299980142,0.005223531911
1.57,0.004528602447,0.004994534399
1.58,0.004745456171,0.004755853635
1.59,0.004950150704,0.00450807096
1.6,0.005142322602,0.004251782095
1.61,0.005321636009,0.003987596006
1.62,0.005487783048,0.003716133751
1.63,0.005640484166,0.003438027333
1.64,0.005779488459,0.003153918543
1.65,0.00590457395,0.002864457807
1.66,0.006015547841,0.002570303014
1.67,0.006112246725,0.002272118354
1.68,0.00619453677,0.001970573142
1.69,0.006262313867,0.001666340637
1.7,0.006315503737,0.001360096858
1.71,0.006354062012,0.001052519388
1.72,0.006377974275,0.0007442861834
1.73,0.006387256061,0.0004360743613
1.74,0.006381952823,0.0001285589938
1.75,0.006362139855,-0.00017758811
1.76,0.006327922182,-0.000481699626
1.77,0.006279434393,-0.0007831139408
1.78,0.006216840448,-0.001081176383
1.79,0.006140333425,-0.001375240456
1.8,0.006050135228,-0.001664669072
1.81,0.005946496247,-0.00194883579
1.82,0.005829694962,-0.002227126047
1.83,0.005700037501,-0.002498938389
1.84,0.005557857145,-0.002763685697
1.85,0.005403513778,-0.003020796405
1.86,0.00523739328,-0.003269715706
1.87,0.005059906863,-0.003509906748
1.88,0.004871490358,-0.003740851813
1.89,0.004672603433,-0.003962053479
1.9,0.004463728758,-0.004173035755
1.91,0.00424537111,-0.004373345199
1.92,0.004018056421,-0.004562551999
1.93,0.003782330761,-0.004740251028
1.94,0.003538759271,-0.00490606286
1.95,0.003287925031,-0.005059634746
1.96,0.003030427872,-0.005200641546
1.97,0.002766883135,-0.005328786616
1.98,0.002497920377,-0.005443802643
1.99,0.002224182015,-0.005545452419
2,0.00194632193,-0.005633529565
2.01,0.00166500402,-0.005707859188
2.02,0.001380900706,-0.005768298465
2.03,0.001094691393,-0.005814737172
2.04,0.0008070609012,-0.005847098122
2.05,0.0005186978518,-0.00586533754
2.06,0.0002302930279,-0.00586944535
2.07,-5.746229461E-05,-0.005859445386
2.08,-0.0003438780388,-0.005835395507
2.09,-0.0006282670362,-0.005797387639
2.1,-0.0009099467499,-0.005745547715
2.11,-0.001188241006,-0.005680035528
2.12,-0.001462481729,-0.005601044494
2.13,-0.001732010673,-0.005508801316
2.14,-0.001996181147,-0.005403565554
2.15,-0.002254359724,-0.005285629105
2.16,-0.002505927935,-0.005155315582
2.17,-0.002750283936,-0.005012979599
2.18,-0.002986844139,-0.004859005963
2.19,-0.003215044819,-0.004693808775
2.2,-0.003434343662,-0.004517830435
2.21,-0.003644221282,-0.004331540559
2.22,-0.003844182667,-0.004135434811
2.23,-0.004033758581,-0.003930033647
2.24,-0.004212506891,-0.003715880981
2.25,-0.004380013827,-0.003493542767
2.26,-0.004535895169,-0.003263605515
2.27,-0.00467979735,-0.003026674729
2.28,-0.004811398477,-0.002783373285
2.29,-0.004930409264,-0.002534339743
2.3,-0.005036573869,-0.002280226609
2.31,-0.005129670638,-0.002021698543
2.32,-0.005209512748,-0.001759430522
2.33,-0.005275948743,-0.001494105967
2.34,-0.005328862973,-0.001226414836
2.35,-0.005368175917,-0.0009570516897
2.36,-0.005393844404,-0.0006867137401
2.37,-0.005405861715,-0.0004160988823
2.38,-0.00540425758,-0.0001459037231
2.39,-0.00538909806,0.0001231783916
2.4,-0.005360485316,0.0003904593426
2.41,-0.005318557268,0.0006552581883
2.42,-0.00526348714,0.0009169030957
2.43,-0.005195482899,0.001174733243
2.44,-0.005114786581,0.001428100689
2.45,-0.005021673511,0.0016763722
2.46,-0.004916451429,0.001918931034
2.47,-0.004799459499,0.002155178663
2.48,-0.004671067236,0.002384536444
2.49,-0.004531673327,0.002606447223
2.5,-0.004381704376,0.002820376861
2.51,-0.004221613551,0.003025815695
2.52,-0.004051879157,0.003222279909
2.53,-0.003873003136,0.00340931282
2.54,-0.003685509494,0.003586486081
2.55,-0.003489942666,0.003753400776
2.56,-0.00328686582,0.003909688435
2.57,-0.003076859116,0.004055011927
2.58,-0.00286051791,0.004189066271
2.59,-0.002638450931,0.004311579322
2.6,-0.002411278414,0.004422312358
2.61,-0.002179630214,0.004521060559
2.62,-0.001944143902,0.004607653367
2.63,-0.001705462845,0.004681954744
2.64,-0.001464234286,0.004743863309
2.65,-0.001221107418,0.004793312371
2.66,-0.0009767314794,0.004830269849
2.67,-0.0007317538483,0.004854738077
2.68,-0.0004868181731,0.004866753514
2.69,-0.0002425625241,0.00486638633
2.7,3.824197583E-07,0.004853739906
2.71,0.0002413951413,0.004828950221
2.72,0.0004798650109,0.004792185145
2.73,0.0007151939593,0.00474364364
2.74,0.0009467980928,0.004683554868
2.75,0.001174109246,0.004612177209
2.76,0.001396576467,0.004529797208
2.77,0.001613667433,0.004436728433
2.78,0.001824869783,0.004333310268
2.79,0.002029692381,0.004219906636
2.8,0.002227666487,0.004096904662
2.81,0.002418346849,0.003964713279
2.82,0.002601312699,0.003823761782
2.83,0.002776168666,0.003674498343
2.84,0.002942545587,0.003517388483
2.85,0.003100101235,0.003352913508
2.86,0.00324852094,0.00318156893
2.87,0.003387518123,0.003003862854
2.88,0.003516834729,0.002820314358
2.89,0.003636241565,0.002631451865
2.9,0.003745538542,0.002437811509
2.91,0.003844554826,0.002239935505
2.92,0.003933148888,0.002038370529
2.93,0.004011208472,0.001833666109
2.94,0.004078650462,0.001626373041
2.95,0.00413542067,0.001417041823
2.96,0.00418149354,0.001206221128
2.97,0.004216871757,0.0009944562979
2.98,0.004241585792,0.0007822878912
2.99,0.004255693367,0.0005702502626
3,0.004259278836,0.0003588701947
3.01,0.00425245252,0.0001486655802
3.02,0.004235349954,-5.985584361E-05
3.03,0.004208131093,-0.0002661977015
3.04,0.004170979446,-0.0004698761282
3.05,0.004124101175,-0.0006704208532
3.06,0.004067724128,-0.0008673762219
3.07,0.004002096849,-0.00106030215
3.08,0.003927487533,-0.00124877501
3.09,0.003844182957,-0.00143238845
3.1,0.003752487382,-0.001610754141
3.11,0.003652721426,-0.001783502456
3.12,0.00354522092,-0.001950283079
3.13,0.003430335751,-0.002110765538
3.14,0.00330842869,-0.002264639679
3.15,0.003179874213,-0.002411616057
3.16,0.003045057325,-0.002551426272
3.17,0.002904372382,-0.002683823227
3.18,0.002758221913,-0.002808581327
3.19,0.002607015465,-0.00292549661
3.2,0.002451168441,-0.003034386819
3.21,0.002291100977,-0.003135091407
3.22,0.002127236814,-0.003227471492
3.23,0.001960002211,-0.003311409751
3.24,0.001789824873,-0.003386810259
3.25,0.001617132907,-0.003453598284
3.26,0.001442353809,-0.003511720024
3.27,0.00126591348,-0.00356114231
3.28,0.001088235281,-0.003601852253
3.29,0.00090973911,-0.003633856866
3.3,0.0007308405313,-0.003657182634
3.31,0.0005519499274,-0.003671875061
3.32,0.0003734716974,-0.003677998182
3.33,0.0001958034899,-0.003675634048
3.34,1.933547674E-05,-0.003664882179
3.35,-0.000155550335,-0.003645859005
3.36,-0.0003284807516,-0.00361869728
3.37,-0.0004990920016,-0.00358354548
3.38,-0.0006670303065,-0.003540567182
3.39,-0.000831952413,-0.003489940445
3.4,-0.0009935260867,-0.003431857158
3.41,-0.001151430569,-0.003366522402
3.42,-0.001305357,-0.003294153794
3.43,-0.001455008799,-0.003214980828
3.44,-0.001600102021,-0.003129244214
3.45,-0.001740365672,-0.003037195225
3.46,-0.001875541996,-0.002939095029
3.47,-0.002005386729,-0.002835214037
3.48,-0.002129669324,-0.002725831249
3.49,-0.002248173152,-0.002611233604
3.5,-0.002360695669,-0.002491715334
3.51,-0.002467048562,-0.002367577332
3.52,-0.002567057872,-0.002239126514
3.53,-0.002660564087,-0.002106675201
3.54,-0.002747422221,-0.001970540503
3.55,-0.002827501869,-0.001831043704
3.56,-0.00290068724,-0.001688509673
3.57,-0.002966877177,-0.001543266261
3.58,-0.003025985154,-0.001395643728
3.59,-0.00307793926,-0.001245974157
3.6,-0.003122682163,-0.001094590894
3.61,-0.003160171067,-0.0009418279828
3.62,-0.003190377643,-0.0007880196151
3.63,-0.003213287957,-0.0006334995815
3.64,-0.003228902375,-0.0004786007336
3.65,-0.003237235463,-0.00032365445
3.66,-0.003238315868,-0.0001689901086
3.67,-0.003232186189,-1.493456465E-05
3.68,-0.003218902833,0.0001381883665
3.69,-0.003198535862,0.0002900584214
3.7,-0.003171168821,0.0004403593962
3.71,-0.003136898557,0.0005887796504
3.72,-0.003095835028,0.0007350126054
3.73,-0.003048101084,0.0008787572406
3.74,-0.002993832254,0.001019718584
3.75,-0.002933176497,0.0011576082
3.76,-0.002866293957,0.001292144671
3.77,-0.002793356686,0.001423054079
3.78,-0.002714548361,0.001550070477
3.79,-0.00263006398,0.001672936358
3.8,-0.002540109541,0.001791403121
3.81,-0.002444901703,0.001905231525
3.82,-0.002344667426,0.002014192141
3.83,-0.002239643597,0.002118065794
3.84,-0.002130076629,0.002216643998
3.85,-0.002016222049,0.002309729378
3.86,-0.001898344055,0.002397136085
3.87,-0.001776715062,0.002478690201
3.88,-0.001651615219,0.002554230121
3.89,-0.001523331911,0.002623606933
3.9,-0.001392159235,0.002686684775
3.91,-0.001258397459,0.002743341176
3.92,-0.001122352459,0.002793467377
3.93,-0.0009843351293,0.002836968636
3.94,-0.000844660786,0.00287376451
3.95,-0.0007036485367,0.002903789105
3.96,-0.0005616206404,0.002926991317
3.97,-0.0004189018463,0.002943335033
3.98,-0.0002758187153,0.002952799308
3.99,-0.0001326989269,0.002955378516
4,1.012942989E-05,0.002951082465
4.01,0.0001523385782,0.002939936479
4.02,0.0002936017869,0.002921981456
4.03,0.0004335941142,0.002897273874
4.04,0.0005719931601,0.002865885775
4.05,0.0007084798246,0.002827904706
4.06,0.0008427390709,0.00278343362
4.07,0.0009744606903,0.002732590741
4.08,0.001103340068,0.002675509383
4.09,0.001229078947,0.002612337739
4.1,0.001351386186,0.002543238614
4.11,0.001469978509,0.002468389131
4.12,0.001584581251,0.002387980385
4.13,0.001694929088,0.002302217058
4.14,0.001800766748,0.002211316997
4.15,0.001901849713,0.002115510744
4.16,0.001997944896,0.00201504103
4.17,0.002088831294,0.001910162227
4.18,0.002174300623,0.001801139761
4.19,0.002254157916,0.00168824949
4.2,0.002328222099,0.001571777041
4.21,0.002396326527,0.001452017116
4.22,0.002458319493,0.001329272762
4.23,0.00251406469,0.001203854609
4.24,0.002563441643,0.001076080083
4.25,0.002606346093,0.0009462725822
4.26,0.002642690337,0.0008147606407
4.27,0.00267240353,0.0006818770577
4.28,0.002695431932,0.0005479580136
4.29,0.002711739107,0.0004133421662
4.3,0.002721306079,0.0002783697332
4.31,0.002724131427,0.0001433815626
4.32,0.002720231338,8.718194544E-06
4.33,0.002709639599,-0.0001252810817
4.34,0.00269240754,-0.0002582791737
4.35,0.00266860392,-0.0003899421304
4.36,0.002638314766,-0.0005199400826
4.37,0.002601643148,-0.0006479481755
4.38,0.002558708911,-0.0007736474908
4.39,0.002509648344,-0.0008967259544
4.4,0.002454613804,-0.001016879227
4.41,0.002393773285,-0.001133811572
4.42,0.002327309941,-0.001247236704
4.43,0.00225542155,-0.001356878605
4.44,0.002178319945,-0.001462472314
4.45,0.002096230389,-0.001563764683
4.46,0.002009390909,-0.001660515094
4.47,0.001918051591,-0.001752496143
4.48,0.00182247383,-0.001839494283
4.49,0.001722929554,-0.001921310411
4.5,0.001619700403,-0.001997760429
4.51,0.001513076883,-0.002068675743
4.52,0.00140335749,-0.002133903713
4.53,0.001290847811,-0.002193308061
4.54,0.001175859599,-0.002246769215
4.55,0.001058709834,-0.002294184608
4.56,0.0009397197679,-0.002335468913
4.57,0.0008192139527,-0.00237055423
4.58,0.0006975192671,-0.002399390208
4.59,0.0005749639343,-0.00242194412
4.6,0.0004518765398,-0.002438200872
4.61,0.0003285850508,-0.002448162957
4.62,0.000205415842,-0.002451850352
4.63,8.269273021E-05,-0.002449300363
4.64,-3.926397806E-05,-0.002440567407
4.65,-0.0001601384231,-0.002425722742
4.66,-0.000279620109,-0.002404854147
4.67,-0.0003974047979,-0.002378065545
4.68,-0.0005131953784,-0.002345476577
4.69,-0.0006267027057,-0.002307222126
4.7,-0.000737646409,-0.002263451799
4.71,-0.0008457556658,-0.002214329356
4.72,-0.0009507699379,-0.002160032105
4.73,-0.001052439668,-0.002100750254
4.74,-0.001150526938,-0.00203668622
4.75,-0.001244806075,-0.001968053914
4.76,-0.001335064222,-0.001895077987
4.77,-0.001421101856,-0.00181799305
4.78,-0.001502733255,-0.001737042869
4.79,-0.001579786919,-0.001652479535
4.8,-0.00165210594,-0.001564562617
4.81,-0.001719548314,-0.001473558301
4.82,-0.001781987209,-0.00137973851
4.83,-0.001839311174,-0.001283380025
4.84,-0.001891424296,-0.00118476359
4.85,-0.001938246303,-0.00108417302
4.86,-0.00197971262,-0.0009818943092
4.87,-0.00201577436,-0.0008782147427
4.88,-0.002046398277,-0.0007734220145
4.89,-0.002071566659,-0.0006678033578
4.9,-0.002091277176,-0.0005616446875
4.91,-0.002105542673,-0.0004552297592
4.92,-0.002114390925,-0.0003488393479
4.93,-0.002117864337,-0.0002427504485
4.94,-0.002116019609,-0.0001372355006
4.95,-0.00210892735,-3.256164107E-05
4.96,-0.00209667166,7.101001496E-05
4.97,-0.002079349669,0.0001732250605
4.98,-0.002057071045,0.0002738364503
4.99,-0.002029957465,0.0003726051187
5,-0.001998142058,0.0004693005605
5.01,-0.001961768821,0.0005637013732
5.02,-0.001920992005,0.00065559576
5.03,-0.001875975489,0.0007447819909
5.04,-0.001826892119,0.0008310688228
5.05,-0.001773923048,0.0009142758767
5.06,-0.001717257045,0.000994233972
5.07,-0.001657089806,0.001070785417
5.08,-0.00159362325,0.001143784257
5.09,-0.00152706481,0.001213096476
5.1,-0.001457626723,0.00127860016
5.11,-0.001385525318,0.001340185612
5.12,-0.001310980309,0.001397755429
5.13,-0.00123421409,0.001451224532
5.14,-0.001155451041,0.001500520163
5.15,-0.001074916838,0.001545581838
5.16,-0.000992837786,0.001586361256
5.17,-0.0009094401534,0.001622822182
5.18,-0.0008249495329,0.001654940287
5.19,-0.0007395902163,0.001682702954
5.2,-0.0006535845904,0.001706109054
5.21,-0.0005671525557,0.001725168689
5.22,-0.0004805109669,0.001739902909
5.23,-0.0003938731002,0.001750343397
5.24,-0.0003074481453,0.001756532134
5.25,-0.0002214407252,0.00175852104
5.26,-0.0001360504443,0.001756371588
5.27,-5.147146497E-05,0.001750154412
5.28,3.210788615E-05,0.001739948881
5.29,0.0001145054814,0.001725842674
5.3,0.0001955457255,0.001707931336
5.31,0.000275059858,0.001686317819
5.32,0.0003528862253,0.001661112024
5.33,0.0004288705222,0.00163243033
5.34,0.0005028660025,0.001600395119
5.35,0.0005747336611,0.001565134303
5.36,0.0006443423847,0.001526780846
5.37,0.0007115690755,0.00148547229
5.38,0.0007762987454,0.001441350281
5.39,0.0008384245836,0.001394560103
5.4,0.0008978479976,0.001345250216
5.41,0.0009544786285,0.001293571805
5.42,0.001008234342,0.001239678331
5.43,0.001059041198,0.0011837251
5.44,0.001106833393,0.00112586884
5.45,0.00115155319,0.001066267288
5.46,0.001193150818,0.001005078798
5.47,0.001231584368,0.0009424619542
5.48,0.001266819654,0.0008785752038
5.49,0.001298830078,0.0008135765069
5.5,0.001327596464,0.0007476229988
5.51,0.00135310689,0.0006808706707
5.52,0.001375356506,0.0006134740666
5.53,0.001394347339,0.000545585997
5.54,0.001410088095,0.0004773572697
5.55,0.00142259395,0.000408936437
5.56,0.001431886332,0.0003404695603
5.57,0.001437992707,0.0002720999904
5.58,0.001440946353,0.0002039681646
5.59,0.001440786135,0.0001362114195
5.6,0.001437556278,6.89638185E-05
5.61,0.001431306139,2.355995449E-06
5.62,0.001422089983,-6.348498866E-05
5.63,0.001409966751,-0.0001284357747
5.64,0.00139499984,-0.0001923768215
5.65,0.001377256879,-0.0002551925098
5.66,0.001356809514,-0.0003167712345
5.67,0.001333733187,-0.0003770054861
5.68,0.001308106932,-0.0004357919224
5.69,0.001280013165,-0.0004930314301
5.7,0.001249537481,-0.0005486291791
5.71,0.001216768461,-0.0006024946679
5.72,0.001181797479,-0.0006545417628
5.73,0.001144718514,-0.0007046887309
5.74,0.00110562797,-0.0007528582666
5.75,0.0010646245,-0.0007989775146
5.76,0.001021808834,-0.0008429780876
5.77,0.0009772836102,-0.0008847960811
5.78,0.0009311532153,-0.0009243720851
5.79,0.0008835236244,-0.0009616511927
5.8,0.0008345022465,-0.0009965830071
5.81,0.0007841977736,-0.001029121647
5.82,0.0007327200317,-0.001059225752
5.83,0.0006801798348,-0.001086858481
5.84,0.0006266888418,-0.001111987521
5.85,0.0005723594133,-0.001134585082
5.86,0.000517304471,-0.001154627905
5.87,0.0004616373568,-0.001172097254
5.88,0.0004054716926,-0.001186978923
5.89,0.0003489212396,-0.001199263233
5.9,0.0002920997569,-0.00120894503
5.91,0.0002351208587,-0.001216023682
5.92,0.0001780978705,-0.001220503079
5.93,0.0001211436829,-0.001222391622
5.94,6.437060341E-05,-0.001221702222
5.95,7.890205854E-06,-0.001218452287
5.96,-4.818682317E-05,-0.001212663713
5.97,-0.0001037508405,-0.001204362865
5.98,-0.000158693406,-0.001193580563
5.99,-0.0002129074447,-0.001180352056
6,-0.0002662874123,-0.001164716996
