"Freq [GHz]","re(S(Tx_p1,Tx_p1)) []","im(S(Tx_p1,Tx_p1)) []"
1,0.003667929294,-0.2110152373
1.01,-0.003102188263,-0.2107368492
1.02,-0.009881111444,-0.2102386116
1.03,-0.01666000186,-0.2095188691
1.04,-0.0234299878,-0.2085764158
1.05,-0.03018218511,-0.2074104879
1.06,-0.03690771723,-0.2060207557
1.07,-0.04359773449,-0.2044073151
1.08,-0.05024343256,-0.2025706782
1.09,-0.05683607013,-0.2005117643
1.1,-0.06336698574,-0.1982318894
1.11,-0.06982761383,-0.1957327559
1.12,-0.0762095,-0.1930164421
1.13,-0.08250431544,-0.1900853908
1.14,-0.08870387056,-0.1869423978
1.15,-0.09480012788,-0.1835906009
1.16,-0.1007852141,-0.1800334671
1.17,-0.1066514313,-0.1762747815
1.18,-0.1123912678,-0.1723186346
1.19,-0.1179974075,-0.16816941
1.2,-0.1234627394,-0.1638317724
1.21,-0.1287803656,-0.159310655
1.22,-0.1339436095,-0.1546112471
1.23,-0.138946022,-0.1497389818
1.24,-0.1437813887,-0.1446995239
1.25,-0.1484437352,-0.1394987574
1.26,-0.1529273321,-0.1341427734
1.27,-0.1572266998,-0.1286378583
1.28,-0.1613366126,-0.122990482
1.29,-0.1652521018,-0.1172072861
1.3,-0.1689684589,-0.1112950726
1.31,-0.172481238,-0.1052607924
1.32,-0.1757862579,-0.09911153458
1.33,-0.1788796039,-0.09285451554
1.34,-0.1817576285,-0.08649706833
1.35,-0.1844169528,-0.08004663247
1.36,-0.1868544671,-0.07351074389
1.37,-0.1890673305,-0.06689702515
1.38,-0.1910529715,-0.06021317597
1.39,-0.1928090873,-0.05346696395
1.4,-0.1943336436,-0.04666621565
1.41,-0.1956248735,-0.03981880781
1.42,-0.1966812769,-0.03293265895
1.43,-0.1975016192,-0.02601572113
1.44,-0.1980849302,-0.01907597198
1.45,-0.1984305029,-0.01212140698
1.46,-0.1985378917,-0.005160031931
1.47,-0.1984069113,0.001800144342
1.48,-0.198037635,0.00875111711
1.49,-0.197430393,0.01568489267
1.5,-0.1965857708,0.02259349508
1.51,-0.1955046075,0.02946897283
1.52,-0.1941879942,0.03630340523
1.53,-0.1926372724,0.04308890884
1.54,-0.1908540319,0.04981764368
1.55,-0.1888401097,0.05648181942
1.56,-0.1865975876,0.06307370145
1.57,-0.1841287912,0.06958561697
1.58,-0.1814362879,0.07600996097
1.59,-0.1785228853,0.08233920222
1.6,-0.1753916293,0.0885658893
1.61,-0.172045803,0.09468265658
1.62,-0.1684889244,0.1006822303
1.63,-0.1647247452,0.1065574345
1.64,-0.1607572485,0.1123011975
1.65,-0.1565906477,0.1179065575
1.66,-0.1522293841,0.1233666697
1.67,-0.1476781254,0.1286748119
1.68,-0.1429417635,0.1338243914
1.69,-0.1380254123,0.1388089512
1.7,-0.1329344059,0.1436221774
1.71,-0.127674296,0.1482579051
1.72,-0.1222508492,0.1527101259
1.73,-0.1166700449,0.1569729949
1.74,-0.110938072,0.1610408374
1.75,-0.105061326,0.1649081567
1.76,-0.09904640579,0.1685696411
1.77,-0.09290010987,0.1720201717
1.78,-0.08662943285,0.1752548294
1.79,-0.08024156118,0.1782689032
1.8,-0.07374386884,0.1810578976
1.81,-0.06714391257,0.1836175403
1.82,-0.06044942687,0.1859437901
1.83,-0.05366831854,0.188032845
1.84,-0.04680866094,0.1898811496
1.85,-0.03987868781,0.1914854034
1.86,-0.03288678668,0.1928425684
1.87,-0.0258414919,0.193949877
1.88,-0.01875147724,0.1948048394
1.89,-0.01162554803,0.1954052518
1.9,-0.004472632903,0.1957492032
1.91,0.002698224959,0.1958350832
1.92,0.009877876996,0.195661589
1.93,0.0170570789,0.1952277323
1.94,0.02422650073,0.194532846
1.95,0.03137673742,0.1935765906
1.96,0.0384983198,0.1923589605
1.97,0.04558172603,0.1908802896
1.98,0.0526173935,0.1891412567
1.99,0.0595957311,0.1871428907
2,0.06650713198,0.1848865753
2.01,0.07334198664,0.1823740527
2.02,0.08009069652,0.1796074278
2.03,0.08674368778,0.176589171
2.04,0.09329142563,0.1733221212
2.05,0.09972442886,0.1698094873
2.06,0.1060332847,0.1660548502
2.07,0.1122086639,0.1620621632
2.08,0.1182413364,0.1578357525
2.09,0.1241221865,0.1533803164
2.1,0.1298422289,0.1487009244
2.11,0.1353926249,0.1438030151
2.12,0.1407646981,0.1386923936
2.13,0.1459499505,0.1333752281
2.14,0.1509400792,0.1278580458
2.15,0.155726992,0.1221477279
2.16,0.1603028242,0.116251504
2.17,0.1646599541,0.1101769454
2.18,0.1687910194,0.1039319579
2.19,0.1726889329,0.09752477352
2.2,0.1763468979,0.09096394194
2.21,0.1797584241,0.08425832035
2.22,0.1829173421,0.07741706311
2.23,0.1858178184,0.0704496104
2.24,0.1884543698,0.06336567607
2.25,0.1908218773,0.05617523477
2.26,0.1929155996,0.04888850831
2.27,0.1947311859,0.04151595122
2.28,0.1962646883,0.03406823568
2.29,0.1975125738,0.02655623569
2.3,0.1984717354,0.01899101056
2.31,0.1991395024,0.01138378779
2.32,0.1995136502,0.003745945294
2.33,0.1995924095,-0.003911006928
2.34,0.1993744744,-0.01157544571
2.35,0.1988590094,-0.01923565412
2.36,0.1980456567,-0.02687984137
2.37,0.196934541,-0.03449616311
2.38,0.195526275,-0.04207274219
2.39,0.1938219625,-0.04959768971
2.4,0.1918232014,-0.05705912639
2.41,0.1895320857,-0.06444520423
2.42,0.1869512063,-0.0717441283
2.43,0.1840836504,-0.07894417876
2.44,0.1809330006,-0.08603373297
2.45,0.1775033325,-0.09300128759
2.46,0.1737992112,-0.09983548076
2.47,0.169825687,-0.1065251142
2.48,0.1655882899,-0.1130591752
2.49,0.1610930231,-0.1194268583
2.5,0.1563463552,-0.1256175872
2.51,0.1513552115,-0.1316210356
2.52,0.1461269647,-0.1374271487
2.53,0.1406694235,-0.1430261634
2.54,0.1349908214,-0.1484086289
2.55,0.1290998038,-0.1535654257
2.56,0.1230054141,-0.1584877856
2.57,0.1167170792,-0.1631673095
2.58,0.1102445937,-0.1675959857
2.59,0.1035981037,-0.171766207
2.6,0.09678808917,-0.1756707871
2.61,0.08982534594,-0.1793029764
2.62,0.08272096671,-0.1826564768
2.63,0.07548632129,-0.1857254555
2.64,0.06813303626,-0.1885045584
2.65,0.06067297388,-0.1909889221
2.66,0.05311821041,-0.1931741848
2.67,0.04548101388,-0.1950564968
2.68,0.03777382135,-0.1966325293
2.69,0.03000921571,-0.1978994825
2.7,0.02219990207,-0.1988550926
2.71,0.0143586838,-0.1994976375
2.72,0.006498438262,-0.1998259415
2.73,-0.001367907643,-0.1998393787
2.74,-0.00922740216,-0.1995378757
2.75,-0.01706709346,-0.1989219124
2.76,-0.0248740545,-0.1979925219
2.77,-0.03263540783,-0.19675129
2.78,-0.04033835042,-0.1952003521
2.79,-0.04797017831,-0.1933423901
2.8,-0.05551831109,-0.1911806274
2.81,-0.06297031618,-0.1887188232
2.82,-0.07031393276,-0.1859612656
2.83,-0.0775370954,-0.1829127633
2.84,-0.08462795725,-0.179578636
2.85,-0.09157491276,-0.1759647049
2.86,-0.0983666199,-0.1720772803
2.87,-0.1049920218,-0.1679231499
2.88,-0.1114403678,-0.1635095648
2.89,-0.1177012338,-0.1588442255
2.9,-0.1237645417,-0.1539352661
2.91,-0.1296205786,-0.1487912383
2.92,-0.1352600145,-0.1434210941
2.93,-0.1406739197,-0.1378341678
2.94,-0.1458537813,-0.1320401576
2.95,-0.1507915179,-0.1260491057
2.96,-0.1554794949,-0.1198713782
2.97,-0.1599105372,-0.1135176446
2.98,-0.1640779421,-0.1069988564
2.99,-0.1679754903,-0.100326225
3,-0.1715974565,-0.09351119923
3.01,-0.1749386184,-0.08656544322
3.02,-0.1779942649,-0.07950081267
3.03,-0.180760203,-0.07232933167
3.04,-0.1832327639,-0.065063169
3.05,-0.1854088072,-0.0577146143
3.06,-0.1872857249,-0.05029605402
3.07,-0.188861444,-0.04281994741
3.08,-0.1901344271,-0.03529880244
3.09,-0.1911036732,-0.02774515176
3.1,-0.1917687164,-0.02017152875
3.11,-0.1921296238,-0.01259044377
3.12,-0.1921869925,-0.005014360568
3.13,-0.1919419451,0.002544327018
3.14,-0.1913961243,0.01007331805
3.15,-0.1905516868,0.01756042711
3.16,-0.1894112953,0.02499360653
3.17,-0.1879781106,0.03236096807
3.18,-0.1862557819,0.03965080422
3.19,-0.1842484366,0.04685160878
3.2,-0.1819606687,0.05395209702
3.21,-0.1793975273,0.060941225
3.22,-0.1765645028,0.06780820837
3.23,-0.1734675141,0.07454254038
3.24,-0.1701128931,0.08113400912
3.25,-0.1665073705,0.08757271404
3.26,-0.1626580589,0.09384908157
3.27,-0.1585724373,0.09995387998
3.28,-0.1542583333,0.1058782333
3.29,-0.1497239057,0.1116136345
3.3,-0.1449776265,0.1171519574
3.31,-0.1400282627,0.1224854683
3.32,-0.1348848566,0.1276068358
3.33,-0.1295567074,0.1325091406
3.34,-0.1240533514,0.1371858836
3.35,-0.1183845421,0.1416309936
3.36,-0.1125602305,0.1458388334
3.37,-0.106590545,0.1498042056
3.38,-0.1004857715,0.1535223571
3.39,-0.09425633266,0.1569889826
3.4,-0.08791276844,0.1602002273
3.41,-0.08146571552,0.1631526886
3.42,-0.07492588754,0.1658434166
3.43,-0.0683040552,0.1682699145
3.44,-0.06161102661,0.1704301369
3.45,-0.0548576279,0.1723224884
3.46,-0.04805468408,0.1739458206
3.47,-0.04121300021,0.1752994284
3.48,-0.03434334293,0.1763830456
3.49,-0.02745642239,0.1771968398
3.5,-0.02056287457,0.1777414065
3.51,-0.01367324408,0.1780177619
3.52,-0.006797967428,0.1780273362
3.53,5.264317274E-05,0.177771965
3.54,0.00686841551,0.1772538808
3.55,0.01363933247,0.1764757039
3.56,0.02035554658,0.1754404321
3.57,0.02700739393,0.1741514309
3.58,0.03358540748,0.1726124219
3.59,0.04008032974,0.1708274724
3.6,0.0464831248,0.1688009828
3.61,0.05278498968,0.166537675
3.62,0.05897736502,0.1640425797
3.63,0.06505194513,0.161321024
3.64,0.07100068729,0.1583786179
3.65,0.07681582045,0.1552212414
3.66,0.08248985316,0.1518550308
3.67,0.0880155809,0.1482863653
3.68,0.09338609265,0.1445218533
3.69,0.0985947769,0.1405683184
3.7,0.1036353268,0.1364327858
3.71,0.1085017451,0.1321224679
3.72,0.1131883475,0.1276447513
3.73,0.1176897667,0.1230071819
3.74,0.1220009546,0.1182174523
3.75,0.1261171848,0.113283387
3.76,0.1300340537,0.1082129299
3.77,0.1337474819,0.1030141301
3.78,0.1372537142,0.09769512924
3.79,0.1405493198,0.0922641483
3.8,0.1436311913,0.08672947481
3.81,0.1464965439,0.08109945035
3.82,0.1491429137,0.07538245827
3.83,0.1515681555,0.06958691169
3.84,0.1537704402,0.06372124177
3.85,0.1557482526,0.05779388633
3.86,0.1575003873,0.05181327869
3.87,0.1590259454,0.04578783699
3.88,0.160324331,0.03972595364
3.89,0.1613952462,0.0336359853
3.9,0.162238687,0.02752624311
3.91,0.1628549386,0.02140498323
3.92,0.16324457,0.01528039783
3.93,0.163408429,0.009160606357
3.94,0.1633476371,0.003053647193
3.95,0.163063583,-0.00303253038
3.96,0.1625579177,-0.00909007383
3.97,0.1618325484,-0.01511123471
3.98,0.1608896323,-0.02108837564
3.99,0.1597315707,-0.02701397698
4,0.1583610028,-0.03288064318
4.01,0.1567807995,-0.03868110876
4.02,0.1549940572,-0.04440824412
4.03,0.1530040915,-0.0500550609
4.04,0.1508144309,-0.05561471719
4.05,0.1484288105,-0.06108052235
4.06,0.1458511657,-0.06644594169
4.07,0.1430856261,-0.07170460084
4.08,0.1401365089,-0.07685028984
4.09,0.1370083133,-0.08187696713
4.1,0.1337057136,-0.08677876323
4.11,0.1302335539,-0.09154998424
4.12,0.1265968412,-0.09618511521
4.13,0.1228007403,-0.1006788233
4.14,0.118850567,-0.1050259608
4.15,0.1147517827,-0.1092215678
4.16,0.1105099886,-0.1132608754
4.17,0.1061309196,-0.1171393077
4.18,0.1016204387,-0.1208524849
4.19,0.09698453165,-0.1243962251
4.2,0.0922293007,-0.1277665472
4.21,0.08736095947,-0.1309596725
4.22,0.08238582723,-0.1339720276
4.23,0.07731032333,-0.1368002458
4.24,0.07214096173,-0.1394411693
4.25,0.06688434546,-0.1418918517
4.26,0.06154716112,-0.1441495591
4.27,0.05613617339,-0.1462117725
4.28,0.05065821945,-0.1480761896
4.29,0.04512020351,-0.1497407265
4.3,0.03952909115,-0.1512035193
4.31,0.03389190377,-0.1524629264
4.32,0.02821571285,-0.1535175294
4.33,0.02250763426,-0.1543661352
4.34,0.01677482247,-0.1550077777
4.35,0.0110244646,-0.1554417189
4.36,0.005263774546,-0.155667451
4.37,-0.0005000131471,-0.1556846971
4.38,-0.006259649425,-0.1554934132
4.39,-0.012007877,-0.1550937891
4.4,-0.01773743672,-0.1544862496
4.41,-0.02344107414,-0.153671456
4.42,-0.02911154606,-0.1526503066
4.43,-0.03474162739,-0.1514239379
4.44,-0.04032411801,-0.1499937252
4.45,-0.04585184977,-0.1483612833
4.46,-0.05131769377,-0.1465284669
4.47,-0.05671456757,-0.144497371
4.48,-0.06203544273,-0.1422703309
4.49,-0.06727335233,-0.1398499221
4.5,-0.07242139878,-0.1372389603
4.51,-0.07747276162,-0.1344405004
4.52,-0.08242070553,-0.1314578363
4.53,-0.08725858843,-0.1282944995
4.54,-0.09197986971,-0.1249542579
4.55,-0.09657811855,-0.1214411147
4.56,-0.1010470224,-0.1177593058
4.57,-0.1053803952,-0.1139132985
4.58,-0.1095721866,-0.1099077883
4.59,-0.1136164898,-0.1057476967
4.6,-0.1175075507,-0.1014381677
4.61,-0.1212397768,-0.09698456437
4.62,-0.1248077455,-0.09239246529
4.63,-0.1282062128,-0.08766765997
4.64,-0.1314301226,-0.08281614437
4.65,-0.1344746147,-0.07784411593
4.66,-0.1373350339,-0.07275796817
4.67,-0.1400069383,-0.0675642848
4.68,-0.1424861077,-0.06226983363
4.69,-0.1447685521,-0.05688155982
4.7,-0.1468505199,-0.05140657892
4.71,-0.1487285055,-0.04585216937
4.72,-0.1503992576,-0.04022576465
4.73,-0.1518597867,-0.03453494495
4.74,-0.1531073722,-0.02878742851
4.75,-0.1541395699,-0.02299106248
4.76,-0.1549542186,-0.01715381345
4.77,-0.1555494465,-0.01128375749
4.78,-0.1559236778,-0.005389069926
4.79,-0.1560756382,0.0005219853612
4.8,-0.1560043603,0.006441066941
4.81,-0.1557091891,0.01235976721
4.82,-0.155189786,0.01826962408
4.83,-0.1544461336,0.02416213302
4.84,-0.153478539,0.03002875938
4.85,-0.1522876372,0.03586095097
4.86,-0.1508743938,0.04165015093
4.87,-0.1492401074,0.04738781084
4.88,-0.1473864107,0.05306540406
4.89,-0.1453152723,0.05867443918
4.9,-0.1430289967,0.06420647376
4.91,-0.1405302247,0.0696531281
4.92,-0.137821932,0.07500609921
4.93,-0.1349074289,0.08025717481
4.94,-0.1317903575,0.08539824738
4.95,-0.1284746899,0.0904213283
4.96,-0.1249647245,0.09531856191
4.97,-0.1212650822,0.1000822396
4.98,-0.1173807026,0.1047048138
4.99,-0.113316838,0.1091789117
5,-0.1090790481,0.1134973494
5.01,-0.1046731938,0.1176531452
5.02,-0.1001054295,0.1216395329
5.03,-0.09538219608,0.1254499753
5.04,-0.09051021218,0.1290781769
5.05,-0.08549646534,0.1325180966
5.06,-0.08034820244,0.1357639598
5.07,-0.07507291954,0.1388102704
5.08,-0.06967835108,0.1416518226
5.09,-0.06417245861,0.1442837117
5.1,-0.05856341885,0.1467013445
5.11,-0.05285961129,0.1489004503
5.12,-0.04706960522,0.1508770896
5.13,-0.04120214636,0.1526276639
5.14,-0.03526614288,0.1541489239
5.15,-0.0292706511,0.1554379776
5.16,-0.02322486071,0.1564922977
5.17,-0.0171380796,0.1573097279
5.18,-0.01101971838,0.1578884895
5.19,-0.004879274501,0.1582271864
5.2,0.001273683857,0.1583248099
5.21,0.007429534219,0.1581807426
5.22,0.01357861643,0.1577947615
5.23,0.01971124951,0.1571670406
5.24,0.02581774861,0.1562981527
5.25,0.03188844215,0.1551890701
5.26,0.03791368903,0.1538411648
5.27,0.04388389585,0.1522562082
5.28,0.0497895342,0.1504363691
5.29,0.05562115788,0.1483842122
5.3,0.06136942005,0.1461026945
5.31,0.06702509035,0.143595162
5.32,0.07257907176,0.1408653447
5.33,0.07802241737,0.1379173517
5.34,0.0833463469,0.1347556648
5.35,0.08854226299,0.1313851317
5.36,0.09360176711,0.1278109586
5.37,0.09851667528,0.1240387013
5.38,0.1032790333,0.1200742568
5.39,0.1078811315,0.1159238531
5.4,0.1123155196,0.1115940387
5.41,0.1165750201,0.1070916717
5.42,0.1206527422,0.102423908
5.43,0.1245420945,0.09759818862
5.44,0.1282367974,0.09262222716
5.45,0.1317308951,0.08750399589
5.46,0.1350187663,0.08225171184
5.47,0.1380951352,0.07687382214
5.48,0.1409550811,0.071378989
5.49,0.1435940475,0.06577607419
5.5,0.1460078509,0.0600741231
5.51,0.1481926879,0.05428234845
5.52,0.1501451428,0.04841011369
5.53,0.1518621933,0.04246691606
5.54,0.1533412165,0.03646236935
5.55,0.1545799928,0.03040618652
5.56,0.1555767102,0.02430816209
5.57,0.1563299674,0.01817815432
5.58,0.1568387757,0.01202606741
5.59,0.1571025606,0.005861833491
5.6,0.1571211625,-0.0003046053228
5.61,0.156894836,-0.006463314915
5.62,0.1564242493,-0.0126043871
5.63,0.1557104823,-0.01871795745
5.64,0.1547550237,-0.02479422303
5.65,0.1535597676,-0.03082345997
5.66,0.1521270094,-0.03679604076
5.67,0.1504594406,-0.04270245145
5.68,0.1485601431,-0.04853330844
5.69,0.1464325827,-0.05427937506
5.7,0.1440806016,-0.05993157773
5.71,0.1415084108,-0.06548102181
5.72,0.1387205812,-0.07091900701
5.73,0.1357220343,-0.07623704233
5.74,0.1325180319,-0.08142686059
5.75,0.1291141664,-0.08648043244
5.76,0.1255163486,-0.0913899798
5.77,0.1217307966,-0.09614798881
5.78,0.1177640231,-0.1007472222
5.79,0.113622823,-0.1051807309
5.8,0.1093142598,-0.1094418653
5.81,0.1048456522,-0.1135242859
5.82,0.1002245594,-0.1174219727
5.83,0.09545876726,-0.1211292347
5.84,0.09055627317,-0.1246407181
5.85,0.08552527075,-0.1279514145
5.86,0.08037413459,-0.1310566675
5.87,0.07511140451,-0.1339521791
5.88,0.0697457697,-0.1366340155
5.89,0.06428605265,-0.139098612
5.9,0.05874119297,-0.1413427767
5.91,0.05312023107,-0.1433636944
5.92,0.0474322919,-0.1451589289
5.93,0.04168656846,-0.1467264252
5.94,0.03589230551,-0.1480645103
5.95,0.03005878321,-0.1491718941
5.96,0.02419530087,-0.1500476687
5.97,0.01831116078,-0.1506913077
5.98,0.01241565222,-0.1511026646
5.99,0.006518035653,-0.15128197
6,0.0006275270114,-0.151229829
