"Freq [GHz]","re(S(Tx_p1,Tx_p1)) []","im(S(Tx_p1,Tx_p1)) []"
1,-0.01064900678,-0.01518454788
1.01,-0.01129249405,-0.01471566371
1.02,-0.01191684569,-0.01421736546
1.03,-0.01252056144,-0.01369044419
1.04,-0.01310218016,-0.01313577184
1.05,-0.013660284,-0.01255429884
1.06,-0.01419350235,-0.01194705163
1.07,-0.01470051575,-0.01131512995
1.08,-0.01518005959,-0.01065970393
1.09,-0.01563092767,-0.009982011078
1.1,-0.01605197559,-0.009283353021
1.11,-0.01644212396,-0.008565092164
1.12,-0.01680036145,-0.00782864817
1.13,-0.01712574765,-0.007075494302
1.14,-0.01741741569,-0.006307153649
1.15,-0.01767457475,-0.005525195222
1.16,-0.01789651228,-0.004731229948
1.17,-0.01808259607,-0.003926906563
1.18,-0.01823227606,-0.003113907417
1.19,-0.01834508599,-0.002293944193
1.2,-0.01842064478,-0.001468753575
1.21,-0.0184586577,-0.0006400928375
1.22,-0.01845891735,0.0001902645904
1.23,-0.01842130433,0.001020533611
1.24,-0.01834578781,0.001848921961
1.25,-0.01823242574,0.002673634726
1.26,-0.01808136491,0.003492878859
1.27,-0.01789284076,0.004304867692
1.28,-0.01766717699,0.005107825419
1.29,-0.01740478486,0.00589999155
1.3,-0.01710616242,0.006679625328
1.31,-0.01677189332,0.007445010079
1.32,-0.01640264561,0.008194457511
1.33,-0.01599917015,0.008926311928
1.34,-0.01556229895,0.009638954361
1.35,-0.01509294319,0.01033080661
1.36,-0.01459209115,0.01100033515
1.37,-0.01406080583,0.01164605499
1.38,-0.01350022252,0.01226653331
1.39,-0.01291154606,0.01286039305
1.4,-0.01229604799,0.01342631632
1.41,-0.01165506357,0.01396304766
1.42,-0.01098998854,0.01446939713
1.43,-0.01030227585,0.01494424327
1.44,-0.009593432137,0.01538653584
1.45,-0.00886501417,0.01579529844
1.46,-0.008118625101,0.0161696309
1.47,-0.007355910638,0.01650871144
1.48,-0.006578555107,0.01681179878
1.49,-0.005788277421,0.01707823385
1.5,-0.004986826966,0.01730744148
1.51,-0.004175979416,0.01749893173
1.52,-0.003357532487,0.01765230115
1.53,-0.002533301641,0.01776723366
1.54,-0.001705115744,0.01784350142
1.55,-0.0008748127043,0.01788096524
1.56,-4.423508761E-05,0.01787957503
1.57,0.0007847742765,0.01783936979
1.58,0.00161037668,0.01776047756
1.59,0.002430741912,0.01764311506
1.6,0.003244052602,0.01748758716
1.61,0.004048508533,0.01729428606
1.62,0.004842330908,0.01706369037
1.63,0.005623766552,0.01679636388
1.64,0.006391092052,0.01649295419
1.65,0.00714261782,0.01615419108
1.66,0.007876692066,0.01578088476
1.67,0.008591704671,0.01537392382
1.68,0.009286090958,0.01493427312
1.69,0.009958335344,0.01446297137
1.7,0.01060697487,0.01396112862
1.71,0.0112306026,0.01342992358
1.72,0.01182787086,0.0128706007
1.73,0.01239749436,0.0122844672
1.74,0.01293825315,0.01167288985
1.75,0.01344899538,0.01103729172
1.76,0.01392863992,0.0103791487
1.77,0.01437617883,0.009699985949
1.78,0.01479067961,0.00900137425
1.79,0.01517128722,0.008284926196
1.8,0.01551722606,0.007552292349
1.81,0.01582780157,0.006805157275
1.82,0.01610240177,0.006045235527
1.83,0.01634049851,0.005274267545
1.84,0.01654164859,0.004494015521
1.85,0.01670549461,0.003706259204
1.86,0.01683176564,0.002912791685
1.87,0.0169202777,0.00211541515
1.88,0.01697093395,0.001315936627
1.89,0.01698372481,0.0005161637275
1.9,0.01695872771,-0.0002820996032
1.91,0.01689610676,-0.001077057314
1.92,0.01679611216,-0.00186692545
1.93,0.01665907937,-0.002649936313
1.94,0.01648542814,-0.003424342572
1.95,0.01627566133,-0.004188421318
1.96,0.01603036349,-0.004940478045
1.97,0.0157501993,-0.005678850557
1.98,0.01543591179,-0.006401912781
1.99,0.01508832036,-0.00710807849
2,0.01470831873,-0.007795804918
2.01,0.01429687252,-0.008463596256
2.02,0.01385501691,-0.009110007032
2.03,0.01338385389,-0.009733645361
2.04,0.01288454958,-0.01033317605
2.05,0.01235833126,-0.01090732356
2.06,0.01180648428,-0.01145487484
2.07,0.01123034895,-0.01197468196
2.08,0.01063131715,-0.0124656646
2.09,0.01001082895,-0.01292681239
2.1,0.00937036904,-0.01335718707
2.11,0.008711463158,-0.0137559244
2.12,0.008035674339,-0.01412223603
2.13,0.007344599139,-0.01445541102
2.14,0.006639863783,-0.01475481731
2.15,0.005923120248,-0.01501990289
2.16,0.005196042301,-0.01525019685
2.17,0.004460321503,-0.01544531019
2.18,0.003717663179,-0.01560493646
2.19,0.002969782373,-0.01572885216
2.2,0.002218399788,-0.01581691701
2.21,0.001465237739,-0.01586907392
2.22,0.0007120161016,-0.01588534888
2.23,-3.955170506E-05,-0.01586585053
2.24,-0.0007877627136,-0.01581076968
2.25,-0.00153092836,-0.01572037845
2.26,-0.002267378389,-0.01559502942
2.27,-0.002995464695,-0.01543515442
2.28,-0.003713565104,-0.01524126325
2.29,-0.004420087071,-0.01501394217
2.3,-0.005113471299,-0.01475385222
2.31,-0.005792195259,-0.01446172737
2.32,-0.00645477661,-0.01413837252
2.33,-0.007099776514,-0.01378466129
2.34,-0.007725802825,-0.01340153374
2.35,-0.008331513165,-0.01298999383
2.36,-0.008915617857,-0.01255110686
2.37,-0.009476882727,-0.01208599668
2.38,-0.01001413177,-0.0115958428
2.39,-0.01052624964,-0.01108187741
2.4,-0.01101218401,-0.01054538226
2.41,-0.01147094779,-0.009987685422
2.42,-0.0119016211,-0.009410157976
2.43,-0.01230335318,-0.008814210624
2.44,-0.01267536405,-0.008201290191
2.45,-0.01301694603,-0.007572876072
2.46,-0.01332746505,-0.00693047662
2.47,-0.01360636185,-0.006275625473
2.48,-0.01385315287,-0.005609877845
2.49,-0.01406743113,-0.00493480678
2.5,-0.01424886672,-0.004251999378
2.51,-0.0143972073,-0.003563053012
2.52,-0.01451227828,-0.002869571529
2.53,-0.01459398286,-0.002173161463
2.54,-0.0146423019,-0.001475428254
2.55,-0.01465729357,-0.0007779724887
2.56,-0.01463909285,-8.238617088E-05
2.57,-0.01458791085,0.0006097509682
2.58,-0.01450403389,0.001296875114
2.59,-0.0143878225,0.001977441956
2.6,-0.01423971021,0.002649930212
2.61,-0.01406020212,0.003312845077
2.62,-0.01384987339,0.003964721599
2.63,-0.01360936751,0.004604127957
2.64,-0.01333939448,0.005229668649
2.65,-0.01304072876,0.005839987579
2.66,-0.01271420711,0.006433771032
2.67,-0.01236072638,0.007009750531
2.68,-0.01198124097,0.007566705574
2.69,-0.01157676042,0.008103466246
2.7,-0.01114834662,0.008618915685
2.71,-0.01069711114,0.009111992425
2.72,-0.01022421231,0.009581692582
2.73,-0.009730852253,0.0100270719
2.74,-0.009218273827,0.01044724763
2.75,-0.008687757496,0.01084140029
2.76,-0.008140618112,0.01120877518
2.77,-0.007578201644,0.01154868388
2.78,-0.007001881845,0.01186050541
2.79,-0.006413056878,0.01214368735
2.8,-0.005813145895,0.01239774675
2.81,-0.005203585593,0.01262227086
2.82,-0.004585826743,0.01281691769
2.83,-0.003961330707,0.01298141643
2.84,-0.003331565951,0.01311556763
2.85,-0.002698004556,0.01321924332
2.86,-0.002062118749,0.01329238683
2.87,-0.001425377448,0.01333501254
2.88,-0.0007892428334,0.01334720543
2.89,-0.0001551669631,0.01332912044
2.9,0.0004754115754,0.01328098169
2.91,0.001101070958,0.01320308159
2.92,0.001720409356,0.01309577968
2.93,0.002332048107,0.0129595014
2.94,0.002934634803,0.01279473673
2.95,0.003526846304,0.01260203859
2.96,0.004107391662,0.0123820212
2.97,0.004675014949,0.01213535824
2.98,0.005228497986,0.01186278089
2.99,0.005766662965,0.01156507581
3,0.006288374958,0.01124308289
3.01,0.006792544309,0.01089769296
3.02,0.007278128906,0.0105298454
3.03,0.007744136318,0.01014052562
3.04,0.00818962581,0.009730762437
3.05,0.008613710217,0.00930162541
3.06,0.009015557677,0.008854222053
3.07,0.009394393226,0.008389694998
3.08,0.009749500247,0.007909219087
3.09,0.01008022177,0.007413998406
3.1,0.01038596161,0.006905263269
3.11,0.01066618538,0.006384267163
3.12,0.01092042134,0.005852283654
3.13,0.01114826105,0.005310603263
3.14,0.01134935996,0.004760530336
3.15,0.01152343773,0.004203379881
3.16,0.01167027851,0.003640474425
3.17,0.01178973096,0.003073140853
3.18,0.01188170821,0.002502707272
3.19,0.0119461876,0.001930499885
3.2,0.01198321029,0.001357839899
3.21,0.01199288072,0.0007860404616
3.22,0.01197536597,0.0002164036331
3.23,0.01193089487,-0.0003497825839
3.24,0.01185975707,-0.000911247168
3.25,0.01176230193,-0.001466738939
3.26,0.01163893729,-0.002015029353
3.27,0.01149012808,-0.002554915219
3.28,0.01131639482,-0.003085221343
3.29,0.01111831204,-0.003604803082
3.3,0.01089650652,-0.004112548806
3.31,0.01065165543,-0.00460738227
3.32,0.01038448443,-0.005088264881
3.33,0.01009576556,-0.005554197854
3.34,0.00978631514,-0.006004224271
3.35,0.009456991499,-0.006437431014
3.36,0.009108692674,-0.006852950581
3.37,0.00874235401,-0.007249962789
3.38,0.008358945686,-0.007627696342
3.39,0.007959470192,-0.007985430276
3.4,0.007544959728,-0.008322495274
3.41,0.007116473574,-0.008638274849
3.42,0.006675095396,-0.008932206389
3.43,0.006221930525,-0.009203782068
3.44,0.005758103208,-0.009452549628
3.45,0.00528475382,-0.009678113005
3.46,0.00480303608,-0.009880132838
3.47,0.004314114237,-0.01005832682
3.48,0.003819160268,-0.01021246994
3.49,0.003319351065,-0.01034239453
3.5,0.00281586565,-0.01044799026
3.51,0.002309882387,-0.01052920391
3.52,0.001802576232,-0.01058603908
3.53,0.001295116006,-0.01061855569
3.54,0.0007886617063,-0.01062686947
3.55,0.0002843618581,-0.01061115118
3.56,-0.0002166490838,-0.0105716258
3.57,-0.0007132532799,-0.01050857156
3.58,-0.001204351992,-0.0104223189
3.59,-0.001688868001,-0.01031324923
3.6,-0.00216574796,-0.01018179365
3.61,-0.002633964664,-0.01002843152
3.62,-0.003092519247,-0.009853688988
3.63,-0.003540443285,-0.009658137331
3.64,-0.003976800822,-0.009442391271
3.65,-0.004400690289,-0.009207107173
3.66,-0.004811246332,-0.008952981172
3.67,-0.005207641545,-0.008680747204
3.68,-0.005589088085,-0.008391174983
3.69,-0.005954839189,-0.008085067896
3.7,-0.006304190584,-0.007763260844
3.71,-0.006636481773,-0.007426618021
3.72,-0.006951097213,-0.007076030646
3.73,-0.007247467383,-0.006712414646
3.74,-0.007525069718,-0.006336708305
3.75,-0.007783429439,-0.005949869877
3.76,-0.008022120255,-0.005552875173
3.77,-0.008240764941,-0.005146715125
3.78,-0.008439035805,-0.004732393336
3.79,-0.008616655024,-0.004310923627
3.8,-0.008773394862,-0.003883327569
3.81,-0.008909077771,-0.00345063203
3.82,-0.009023576363,-0.003013866723
3.83,-0.009116813273,-0.002574061771
3.84,-0.009188760902,-0.002132245296
3.85,-0.009239441038,-0.001689441029
3.86,-0.009268924371,-0.00124666595
3.87,-0.009277329893,-0.0008049279754
3.88,-0.009264824191,-0.0003652236746
3.89,-0.009231620628,7.146395799E-05
3.9,-0.009177978426,0.0005041676811
3.91,-0.009104201649,0.0009319381283
3.92,-0.00901063808,0.001353845867
3.93,-0.008897678019,0.001768983393
3.94,-0.008765752977,0.002176467053
3.95,-0.008615334293,0.002575438895
3.96,-0.008446931665,0.002965068438
3.97,-0.008261091609,0.003344554367
3.98,-0.008058395834,0.003713126131
3.99,-0.007839459561,0.004070045469
4,-0.00760492977,0.004414607829
4.01,-0.007355483393,0.004746143707
4.02,-0.007091825447,0.005064019885
4.03,-0.006814687125,0.00536764057
4.04,-0.006524823835,0.005656448433
4.05,-0.006223013209,0.005929925555
4.06,-0.005910053069,0.006187594258
4.07,-0.005586759372,0.006429017845
4.08,-0.005253964127,0.006653801227
4.09,-0.004912513295,0.006861591447
4.1,-0.004563264677,0.007052078104
4.11,-0.004207085793,0.007224993667
4.12,-0.003844851759,0.007380113685
4.13,-0.003477443167,0.007517256893
4.14,-0.003105743972,0.007636285217
4.15,-0.002730639391,0.007737103673
4.16,-0.00235301382,0.007819660165
4.17,-0.001973748775,0.007883945189
4.18,-0.001593720859,0.007929991428
4.19,-0.00121379976,0.007957873261
4.2,-0.0008348462827,0.007967706177
4.21,-0.0004577104307,0.007959646085
4.22,-8.32295205E-05,0.007933888557
4.23,0.0002877736459,0.007890667959
4.24,0.0006544925603,0.007830256521
4.25,0.001016138729,0.007752963313
4.26,0.001371943333,0.007659133149
4.27,0.00172115883,0.007549145414
4.28,0.002063060478,0.007423412825
4.29,0.002396947803,0.007282380125
4.3,0.002722145983,0.00712652271
4.31,0.003038007164,0.0069563452
4.32,0.003343911695,0.006772379958
4.33,0.003639269283,0.006575185555
4.34,0.003923520067,0.00636534519
4.35,0.004196135611,0.006143465067
4.36,0.004456619806,0.005910172733
4.37,0.004704509692,0.005666115391
4.38,0.00493937619,0.005411958171
4.39,0.005160824745,0.005148382387
4.4,0.005368495879,0.00487608377
4.41,0.005562065661,0.004595770686
4.42,0.005741246078,0.004308162342
4.43,0.005905785327,0.004013986988
4.44,0.006055468007,0.003713980114
4.45,0.006190115232,0.003408882651
4.46,0.00630958465,0.003099439178
4.47,0.006413770378,0.002786396139
4.48,0.006502602848,0.002470500078
4.49,0.00657604857,0.002152495889
4.5,0.006634109816,0.001833125088
4.51,0.00667682421,0.001513124124
4.52,0.006704264254,0.0011932227
4.53,0.006716536766,0.0008741421512
4.54,0.006713782246,0.0005565938417
4.55,0.006696174164,0.000241277617
4.56,0.00666391819,-7.111970695E-05
4.57,0.006617251339,-0.000379925803
4.58,0.006556441066,-0.0006844842426
4.59,0.006481784288,-0.0009841558514
4.6,0.006393606354,-0.001278320008
4.61,0.006292259955,-0.001566375884
4.62,0.006178123985,-0.001847743622
4.63,0.006051602343,-0.002121865453
4.64,0.005913122707,-0.002388206744
4.65,0.005763135245,-0.00264625698
4.66,0.005602111304,-0.002895530679
4.67,0.005430542051,-0.003135568235
4.68,0.005248937094,-0.003365936687
4.69,0.005057823066,-0.003586230422
4.7,0.004857742191,-0.003796071797
4.71,0.004649250823,-0.003995111691
4.72,0.004432917979,-0.004183029983
4.73,0.004209323848,-0.004359535952
4.74,0.003979058299,-0.004524368604
4.75,0.003742719379,-0.004677296925
4.76,0.003500911815,-0.004818120056
4.77,0.003254245509,-0.004946667398
4.78,0.003003334051,-0.005062798639
4.79,0.002748793229,-0.005166403713
4.8,0.002491239561,-0.005257402681
4.81,0.002231288839,-0.005335745549
4.82,0.001969554693,-0.005401412011
4.83,0.001706647178,-0.005454411124
4.84,0.001443171392,-0.005494780923
4.85,0.001179726111,-0.00552258796
4.86,0.0009169024692,-0.005537926795
4.87,0.0006552826675,-0.005540919413
4.88,0.0003954387197,-0.00553171459
4.89,0.000137931241,-0.0055104872
4.9,-0.0001166917224,-0.005477437474
4.91,-0.0003678958179,-0.005432790196
4.92,-0.0006151614639,-0.005376793861
4.93,-0.0008579848782,-0.005309719783
4.94,-0.001095879055,-0.005231861158
4.95,-0.00132837469,-0.005143532092
4.96,-0.001555021049,-0.005045066583
4.97,-0.001775386782,-0.004936817479
4.98,-0.00198906068,-0.004819155392
4.99,-0.002195652372,-0.004692467596
5,-0.002394792967,-0.00455715689
5.01,-0.002586135629,-0.004413640446
5.02,-0.002769356097,-0.004262348629
5.03,-0.002944153143,-0.004103723811
5.04,-0.003110248963,-0.003938219165
5.05,-0.003267389517,-0.003766297451
5.06,-0.003415344792,-0.003588429797
5.07,-0.003553909023,-0.003405094473
5.08,-0.00368290083,-0.003216775668
5.09,-0.003802163316,-0.003023962269
5.1,-0.00391156409,-0.002827146642
5.11,-0.004010995235,-0.002626823425
5.12,-0.004100373219,-0.002423488333
5.13,-0.004179638747,-0.002217636971
5.14,-0.004248756554,-0.002009763671
5.15,-0.004307715151,-0.001800360346
5.16,-0.004356526503,-0.001589915361
5.17,-0.004395225673,-0.001378912438
5.18,-0.004423870398,-0.001167829582
5.19,-0.004442540625,-0.0009571380326
5.2,-0.004451338002,-0.0007473012558
5.21,-0.004450385318,-0.0005387739631
5.22,-0.0044398259,-0.0003320011673
5.23,-0.004419822975,-0.000127417276
5.24,-0.004390558988,7.455477607E-05
5.25,-0.004352234883,0.0002735043544
5.26,-0.004305069353,0.00046903391
5.27,-0.004249298056,0.0006607597211
5.28,-0.004185172801,0.0008483125902
5.29,-0.004112960709,0.001031338496
5.3,-0.004032943345,0.001209499198
5.31,-0.003945415836,0.001382472794
5.32,-0.003850685959,0.00154995423
5.33,-0.003749073221,0.001711655758
5.34,-0.003640907917,0.00186730735
5.35,-0.003526530184,0.002016657061
5.36,-0.003406289041,0.002159471336
5.37,-0.003280541419,0.002295535276
5.38,-0.003149651195,0.002424652853
5.39,-0.003013988215,0.002546647068
5.4,-0.002873927329,0.002661360069
5.41,-0.002729847415,0.002768653217
5.42,-0.00258213042,0.0028684071
5.43,-0.002431160406,0.002960521509
5.44,-0.002277322602,0.003044915359
5.45,-0.00212100247,0.003121526565
5.46,-0.001962584792,0.00319031188
5.47,-0.001802452764,0.003251246683
5.48,-0.001640987114,0.003304324727
5.49,-0.001478565239,0.003349557847
5.5,-0.001315560364,0.003386975626
5.51,-0.001152340731,0.003416625025
5.52,-0.0009892688006,0.003438569975
5.53,-0.0008267004961,0.003452890937
5.54,-0.0006649844658,0.003459684424
5.55,-0.000504461381,0.003459062495
5.56,-0.0003454632636,0.003451152218
5.57,-0.0001883128466,0.003436095105
5.58,-3.332296957E-05,0.003414046523
5.59,0.0001192039926,0.003385175078
5.6,0.0002689766638,0.003349661979
5.61,0.0004157151653,0.003307700381
5.62,0.0005591515765,0.003259494708
5.63,0.0006990303584,0.003205259965
5.64,0.0008351087383,0.003145221035
5.65,0.0009671570573,0.003079611954
5.66,0.001094959077,0.003008675194
5.67,0.00121831225,0.002932660921
5.68,0.001337027947,0.002851826258
5.69,0.001450931654,0.002766434538
5.7,0.001559863117,0.002676754561
5.71,0.001663676463,0.002583059847
5.72,0.001762240273,0.002485627886
5.73,0.001855437623,0.002384739408
5.74,0.001943166082,0.002280677638
5.75,0.002025337684,0.002173727576
5.76,0.002101878851,0.002064175274
5.77,0.002172730293,0.001952307134
5.78,0.00223784687,0.00183840921
5.79,0.002297197416,0.001722766528
5.8,0.00235076454,0.001605662424
5.81,0.002398544393,0.001487377896
5.82,0.0024405464,0.00136819097
5.83,0.002476792972,0.001248376099
5.84,0.002507319188,0.001128203571
5.85,0.002532172448,0.001007938941
5.86,0.002551412105,0.0008878424914
5.87,0.002565109074,0.000768168714
5.88,0.002573345422,0.0006491658141
5.89,0.00257621393,0.0005310752449
5.9,0.002573817646,0.0004141312662
5.91,0.002566269414,0.0002985605315
5.92,0.002553691394,0.0001845817018
5.93,0.002536214563,7.240508904E-05
5.94,0.002513978207,-3.776767229E-05
5.95,0.002487129399,-0.0001457439248
5.96,0.002455822474,-0.0002513402578
5.97,0.002420218492,-0.0003543827484
5.98,0.002380484695,-0.0004547071722
5.99,0.002336793962,-0.0005521591851
6,0.00228932426,-0.0006465944758
