"Freq [GHz]","re(S(Tx_p1,Tx_p1)) []","im(S(Tx_p1,Tx_p1)) []"
1,-0.03568232093,-0.1150167641
1.01,-0.03977891597,-0.1135264652
1.02,-0.04382845613,-0.1118879405
1.03,-0.04782499009,-0.1101024844
1.04,-0.05176264318,-0.1081716443
1.05,-0.05563562535,-0.1060972133
1.06,-0.05943823845,-0.1038812219
1.07,-0.06316488299,-0.1015259306
1.08,-0.06681006442,-0.09903382221
1.09,-0.07036839883,-0.09640759475
1.1,-0.07383461831,-0.09365015409
1.11,-0.07720357589,-0.09076460721
1.12,-0.08047025008,-0.08775425556
1.13,-0.08362974919,-0.0846225886
1.14,-0.08667731527,-0.08137327772
1.15,-0.08960832795,-0.07801017031
1.16,-0.09241830799,-0.07453728414
1.17,-0.09510292073,-0.07095880197
1.18,-0.09765797946,-0.06727906635
1.19,-0.1000794486,-0.06350257473
1.2,-0.1023634472,-0.0596339747
1.21,-0.1045062516,-0.05567805945
1.22,-0.1065042995,-0.05163976341
1.23,-0.1083541924,-0.047524158
1.24,-0.1100526999,-0.04333644756
1.25,-0.1115967622,-0.03908196526
1.26,-0.1129834947,-0.03476616919
1.27,-0.1142101909,-0.03039463843
1.28,-0.1152743271,-0.02597306907
1.29,-0.1161735656,-0.02150727028
1.3,-0.1169057598,-0.01700316022
1.31,-0.117468958,-0.01246676192
1.32,-0.1178614079,-0.007904198947
1.33,-0.118081562,-0.003321690944
1.34,-0.1181280817,0.001274451076
1.35,-0.1179998427,0.005877829668
1.36,-0.11769594,0.01048196619
1.37,-0.1172156932,0.01508030632
1.38,-0.1165586519,0.01966622597
1.39,-0.1157246007,0.02423303753
1.4,-0.114713565,0.02877399649
1.41,-0.1135258161,0.03328230859
1.42,-0.1121618768,0.03775113724
1.43,-0.1106225264,0.04217361162
1.44,-0.108908806,0.04654283505
1.45,-0.1070220234,0.05085189399
1.46,-0.104963758,0.05509386747
1.47,-0.1027358651,0.05926183706
1.48,-0.1003404807,0.06334889734
1.49,-0.09778002464,0.06734816686
1.5,-0.09505720484,0.0712527996
1.51,-0.09217501998,0.07505599691
1.52,-0.08913676228,0.07875102
1.53,-0.08594601958,0.08233120274
1.54,-0.0826066769,0.08578996504
1.55,-0.07912291732,0.08912082654
1.56,-0.07549922225,0.09231742074
1.57,-0.07174037101,0.09537350942
1.58,-0.06785143967,0.09828299739
1.59,-0.06383779903,0.1010399476
1.6,-0.05970511192,0.1036385961
1.61,-0.05545932955,0.1060733679
1.62,-0.05110668704,0.1083388922
1.63,-0.04665369802,0.1104300178
1.64,-0.04210714834,0.1123418293
1.65,-0.03747408879,0.1140696622
1.66,-0.03276182692,0.1156091183
1.67,-0.02797791789,0.1169560815
1.68,-0.02313015426,0.1181067322
1.69,-0.01822655494,0.1190575626
1.7,-0.0132753531,0.1198053907
1.71,-0.008284983066,0.1203473746
1.72,-0.003264066409,0.1206810256
1.73,0.00177860304,0.1208042212
1.74,0.006834075004,0.1207152176
1.75,0.01189325948,0.1204126609
1.76,0.01694694429,0.1198955982
1.77,0.02198581352,0.1191634871
1.78,0.02700046657,0.1182162054
1.79,0.03198143815,0.1170540588
1.8,0.03691921874,0.1156777881
1.81,0.04180427584,0.1140885754
1.82,0.04662707565,0.1122880489
1.83,0.05137810538,0.110278287
1.84,0.05604789587,0.1080618206
1.85,0.06062704467,0.1056416347
1.86,0.06510623936,0.1030211685
1.87,0.06947628115,0.1002043143
1.88,0.07372810851,0.09719541499
1.89,0.07785282103,0.09399926003
1.9,0.08184170307,0.09062108061
1.91,0.08568624748,0.08706654295
1.92,0.08937817901,0.0833417404
1.93,0.09290947753,0.07945318421
1.94,0.09627240083,0.07540779292
1.95,0.09945950704,0.07121288035
1.96,0.1024636765,0.06687614235
1.97,0.105278133,0.06240564221
1.98,0.1078964643,0.05780979473
1.99,0.110312642,0.05309734921
2,0.1125210405,0.04827737107
2.01,0.1145164551,0.04335922241
2.02,0.1162941185,0.03835254149
2.03,0.1178497175,0.03326722109
2.04,0.1191794073,0.02811338592
2.05,0.120279825,0.02290136917
2.06,0.1211481026,0.01764168806
2.07,0.121781877,0.01234501881
2.08,0.1221793006,0.007022170729
2.09,0.1223390489,0.001684059801
2.1,0.1222603274,-0.003658318309
2.11,0.1219428771,-0.008993915691
2.12,0.1213869779,-0.01431165998
2.13,0.1205934508,-0.01960048242
2.14,0.119563659,-0.02484934611
2.15,0.1182995062,-0.03004727429
2.16,0.1168034346,-0.0351833787
2.17,0.1150784207,-0.04024688773
2.18,0.1131279691,-0.04522717443
2.19,0.1109561058,-0.0501137842
2.2,0.108567369,-0.05489646207
2.21,0.1059667989,-0.05956517955
2.22,0.1031599254,-0.0641101608
2.23,0.1001527553,-0.06852190826
2.24,0.09695175712,-0.07279122737
2.25,0.09356384497,-0.07690925059
2.26,0.08999636118,-0.08086746043
2.27,0.08625705741,-0.08465771142
2.28,0.08235407469,-0.08827225113
2.29,0.07829592229,-0.09170373996
2.3,0.07409145549,-0.09494526967
2.31,0.06974985237,-0.09799038077
2.32,0.06528058972,-0.1008330784
2.33,0.060693418,-0.1034678471
2.34,0.05599833565,-0.1058896636
2.35,0.05120556271,-0.1080940089
2.36,0.04632551382,-0.1100768782
2.37,0.04136877079,-0.1118347897
2.38,0.03634605472,-0.1133647914
2.39,0.03126819792,-0.1146644668
2.4,0.02614611549,-0.1157319388
2.41,0.02099077695,-0.1165658717
2.42,0.01581317773,-0.1171654724
2.43,0.01062431082,-0.1175304889
2.44,0.005435138596,-0.1176612084
2.45,0.0002565648921,-0.1175584528
2.46,-0.004900592541,-0.1172235734
2.47,-0.01002562912,-0.1166584436
2.48,-0.01510797999,-0.1158654508
2.49,-0.02013724591,-0.1148474857
2.5,-0.02510321849,-0.1136079315
2.51,-0.02999590459,-0.112150651
2.52,-0.03480554991,-0.1104799728
2.53,-0.03952266154,-0.1086006757
2.54,-0.04413802966,-0.1065179728
2.55,-0.04864274806,-0.1042374937
2.56,-0.0530282336,-0.1017652664
2.57,-0.05728624446,-0.09910769772
2.58,-0.06140889721,-0.09627155295
2.59,-0.0653886826,-0.09326393502
2.6,-0.06921848007,-0.0900922627
2.61,-0.07289157089,-0.08676424822
2.62,-0.07640165003,-0.08328787439
2.63,-0.07974283656,-0.07967137133
2.64,-0.08290968274,-0.07592319268
2.65,-0.08589718165,-0.07205199174
2.66,-0.08870077353,-0.06806659722
2.67,-0.09131635059,-0.06397598908
2.68,-0.09374026051,-0.05978927416
2.69,-0.09596930858,-0.05551566204
2.7,-0.09800075846,-0.05116444094
2.71,-0.09983233157,-0.04674495391
2.72,-0.1014622053,-0.04226657528
2.73,-0.1028890097,-0.03773868749
2.74,-0.1041118233,-0.03317065843
2.75,-0.1051301676,-0.02857181922
2.76,-0.1059440001,-0.0239514426
2.77,-0.1065537066,-0.01931872203
2.78,-0.1069600925,-0.01468275135
2.79,-0.107164373,-0.01005250535
2.8,-0.107168162,-0.005436821061
2.81,-0.1069734611,-0.0008443798828
2.82,-0.1065826465,0.003716309342
2.83,-0.1059984565,0.008236926373
2.84,-0.1052239771,0.01270935464
2.85,-0.1042626284,0.01712569535
2.86,-0.1031181486,0.02147828058
2.87,-0.1017945796,0.02575968532
2.88,-0.1002962508,0.02996273857
2.89,-0.09862776273,0.03408053334
2.9,-0.0967939713,0.0381064356
2.91,-0.09479997082,0.04203409224
2.92,-0.09265107749,0.04585743799
2.93,-0.09035281271,0.04957070131
2.94,-0.08791088636,0.05316840931
2.95,-0.08533118021,0.05664539166
2.96,-0.08261973139,0.05999678357
2.97,-0.07978271617,0.06321802782
2.98,-0.0768264338,0.06630487592
2.99,-0.07375729085,0.06925338843
3,-0.07058178572,0.07205993435
3.01,-0.06730649364,0.07472118988
3.02,-0.06393805203,0.0772341363
3.03,-0.06048314637,0.07959605727
3.04,-0.05694849652,0.08180453535
3.05,-0.05334084362,0.08385744806
3.06,-0.04966693747,0.08575296326
3.07,-0.04593352454,0.08748953413
3.08,-0.04214733652,0.08906589357
3.09,-0.03831507952,0.09048104836
3.1,-0.03444342383,0.09173427282
3.11,-0.03053899433,0.09282510226
3.12,-0.02660836149,0.09375332611
3.13,-0.02265803302,0.09451898092
3.14,-0.0186944461,0.09512234315
3.15,-0.01472396019,0.09556392185
3.16,-0.0107528505,0.09584445133
3.17,-0.006787301955,0.09596488374
3.18,-0.00283340374,0.09592638175
3.19,0.001102855616,0.09573031117
3.2,0.005015592661,0.09537823378
3.21,0.008899032959,0.09487190025
3.22,0.01274751458,0.0942132432
3.23,0.01655549119,0.09340437043
3.24,0.02031753469,0.09244755845
3.25,0.02402833758,0.09134524611
3.26,0.02768271499,0.09010002859
3.27,0.03127560637,0.08871465162
3.28,0.03480207699,0.08719200594
3.29,0.03825731923,0.08553512209
3.3,0.04163665365,0.08374716549
3.31,0.04493552999,0.08183143175
3.32,0.04814952804,0.07979134237
3.33,0.05127435841,0.0776304406
3.34,0.05430586331,0.0753523877
3.35,0.05724001735,0.07296095939
3.36,0.06007292832,0.07046004254
3.37,0.06280083806,0.06785363215
3.38,0.06542012344,0.06514582851
3.39,0.06792729743,0.06234083455
3.4,0.07031901033,0.05944295339
3.41,0.07259205111,0.05645658598
3.42,0.07474334902,0.05338622893
3.43,0.07676997533,0.05023647233
3.44,0.07866914528,0.04701199776
3.45,0.08043822029,0.04371757616
3.46,0.08207471033,0.04035806587
3.47,0.0835762766,0.03693841047
3.48,0.08494073436,0.03346363666
3.49,0.08616605603,0.02993885197
3.5,0.08725037453,0.02636924239
3.51,0.08819198677,0.02276006975
3.52,0.0889893574,0.01911666894
3.53,0.08964112272,0.01544444494
3.54,0.09014609474,0.01174886949
3.55,0.09050326544,0.008035477543
3.56,0.09071181112,0.004309863362
3.57,0.0907710968,0.0005776762929
3.58,0.09068068084,-0.003155383842
3.59,0.0904403194,-0.00688357173
3.6,0.09004997107,-0.01060110196
3.61,0.08950980142,-0.01430215485
3.62,0.08882018744,-0.01798088265
3.63,0.08798172196,-0.02163141629
3.64,0.08699521788,-0.02524787246
3.65,0.08586171224,-0.0288243612
3.66,0.08458247004,-0.03235499399
3.67,0.08315898789,-0.03583389215
3.68,0.08159299726,-0.03925519584
3.69,0.07988646742,-0.04261307336
3.7,0.07804160804,-0.04590173098
3.71,0.07606087134,-0.04911542305
3.72,0.07394695377,-0.05224846261
3.73,0.07170279719,-0.05529523228
3.74,0.06933158956,-0.05825019552
3.75,0.06683676504,-0.06110790817
3.76,0.06422200344,-0.06386303024
3.77,0.06149122912,-0.06651033803
3.78,0.0586486092,-0.06904473633
3.79,0.05569855103,-0.0714612708
3.8,0.05264569902,-0.07375514057
3.81,0.04949493073,-0.07592171074
3.82,0.0462513522,-0.07795652504
3.83,0.04292029248,-0.07985531837
3.84,0.03950729746,-0.08161402934
3.85,0.0360181229,-0.0832288126
3.86,0.03245872664,-0.08469605105
3.87,0.02883526005,-0.08601236778
3.88,0.02515405875,-0.08717463776
3.89,0.02142163248,-0.08817999912
3.9,0.01764465425,-0.08902586412
3.91,0.01382994879,-0.08970992958
3.92,0.009984480178,-0.09023018689
3.93,0.006115338864,-0.09058493141
3.94,0.00222972797,-0.0907727713
3.95,-0.001665051041,-0.09079263566
3.96,-0.005561613304,-0.09064378201
3.97,-0.009452506056,-0.090325803
3.98,-0.01333022468,-0.08983863233
3.99,-0.01718722923,-0.08918254986
4,-0.02101596138,-0.08835818582
4.01,-0.02480886179,-0.08736652416
4.02,-0.0285583878,-0.08620890492
4.03,-0.03225703135,-0.08488702567
4.04,-0.03589733723,-0.08340294198
4.05,-0.03947192139,-0.0817590668
4.06,-0.04297348943,-0.07995816893
4.07,-0.04639485504,-0.07800337037
4.08,-0.04972895856,-0.07589814262
4.09,-0.05296888529,-0.073646302
4.1,-0.05610788375,-0.07125200382
4.11,-0.05913938373,-0.0687197356
4.12,-0.06205701398,-0.06605430913
4.13,-0.06485461962,-0.06326085164
4.14,-0.06752627911,-0.06034479581
4.15,-0.07006632074,-0.05731186892
4.16,-0.07246933861,-0.0541680809
4.17,-0.07473020798,-0.05091971159
4.18,-0.07684409997,-0.04757329693
4.19,-0.07880649557,-0.04413561442
4.2,-0.08061319881,-0.04061366765
4.21,-0.0822603492,-0.03701467011
4.22,-0.08374443324,-0.03334602824
4.23,-0.08506229499,-0.02961532377
4.24,-0.08621114575,-0.02583029546
4.25,-0.08718857268,-0.02199882026
4.26,-0.08799254637,-0.01812889392
4.27,-0.0886214274,-0.01422861123
4.28,-0.08907397174,-0.01030614572
4.29,-0.08934933507,-0.006369729224
4.3,-0.0894470759,-0.002427631019
4.31,-0.08936715756,0.00151186312
4.32,-0.08910994907,0.005440472021
4.33,-0.08867622469,0.009349940266
4.34,-0.08806716244,0.01323205931
4.35,-0.08728434136,0.01707868849
4.36,-0.08632973756,0.02088177594
4.37,-0.0852057192,0.02463337916
4.38,-0.08391504027,0.02832568537
4.39,-0.08246083319,0.03195103146
4.4,-0.08084660041,0.03550192349
4.41,-0.07907620488,0.0389710557
4.42,-0.07715385943,0.04235132895
4.43,-0.07508411522,0.04563586854
4.44,-0.07287184917,0.04881804128
4.45,-0.07052225051,0.05189147191
4.46,-0.06804080639,0.05485005865
4.47,-0.06543328671,0.05768798793
4.48,-0.06270572815,0.06039974822
4.49,-0.05986441752,0.06298014291
4.5,-0.0569158744,0.06542430224
4.51,-0.05386683321,0.06772769417
4.52,-0.05072422474,0.06988613427
4.53,-0.04749515721,0.07189579446
4.54,-0.0441868969,0.07375321073
4.55,-0.04080684852,0.07545528969
4.56,-0.03736253518,0.07699931399
4.57,-0.03386157828,0.07838294665
4.58,-0.03031167723,0.07960423419
4.59,-0.02672058905,0.08066160864
4.6,-0.02309610809,0.08155388837
4.61,-0.01944604569,0.08228027787
4.62,-0.01577821011,0.08284036627
4.63,-0.01210038657,0.08323412486
4.64,-0.008420317632,0.08346190347
4.65,-0.004745683852,0.08352442579
4.66,-0.001084084898,0.08342278366
4.67,0.002556978922,0.08315843032
4.68,0.006170124603,0.08273317272
4.69,0.00974810382,0.08214916288
4.7,0.01328381968,0.08140888836
4.71,0.01677034282,0.08051516186
4.72,0.02020092679,0.07947111005
4.73,0.02356902264,0.0782801616
4.74,0.02686829281,0.07694603456
4.75,0.03009262406,0.07547272305
4.76,0.03323613969,0.07386448339
4.77,0.03629321074,0.07212581963
4.78,0.03925846636,0.0702614687
4.79,0.04212680321,0.06827638506
4.8,0.04489339398,0.066175725
4.81,0.04755369485,0.0639648307
4.82,0.05010345207,0.06164921398
4.83,0.05253870758,0.05923453993
4.84,0.05485580354,0.05672661034
4.85,0.05705138611,0.0541313472
4.86,0.05912240802,0.05145477607
4.87,0.06106613042,0.04870300957
4.88,0.06288012369,0.045882231
4.89,0.06456226732,0.04299867809
4.9,0.06611074898,0.04005862698
4.91,0.06752406267,0.03706837647
4.92,0.06880100605,0.03403423261
4.93,0.06994067698,0.03096249361
4.94,0.07094246926,0.02785943525
4.95,0.07180606765,0.02473129658
4.96,0.07253144221,0.0215842663
4.97,0.07311884196,0.0184244695
4.98,0.0735687879,0.01525795505
4.99,0.07388206555,0.01209068356
5,0.07405971682,0.008928515878
5.01,0.07410303155,0.005777202317
5.02,0.07401353853,0.002642372475
5.03,0.07379299609,-0.0004704742761
5.04,0.07344338249,-0.003555977613
5.05,0.07296688586,-0.006608924402
5.06,0.07236589401,-0.009624256154
5.07,0.07164298396,-0.01259707578
5.08,0.07080091142,-0.01552265364
5.09,0.06984260001,-0.01839643297
5.1,0.06877113059,-0.0212140345
5.11,0.06758973046,-0.02397126056
5.12,0.06630176261,-0.02666409838
5.13,0.06491071503,-0.02928872285
5.14,0.06342019018,-0.03184149861
5.15,0.06183389451,-0.03431898156
5.16,0.06015562824,-0.03671791974
5.17,0.05838927529,-0.03903525372
5.18,0.05653879348,-0.04126811642
5.19,0.05460820496,-0.04341383241
5.2,0.05260158704,-0.04546991681
5.21,0.05052306316,-0.04743407367
5.22,0.04837679438,-0.04930419398
5.23,0.04616697107,-0.0510783533
5.24,0.04389780509,-0.05275480905
5.25,0.04157352227,-0.0543319975
5.26,0.03919835535,-0.05580853044
5.27,0.0367765372,-0.05718319168
5.28,0.03431229462,-0.05845493329
5.29,0.03180984236,-0.05962287171
5.3,0.02927337769,-0.06068628366
5.31,0.02670707525,-0.06164460206
5.32,0.02411508238,-0.06249741171
5.33,0.02150151482,-0.06324444509
5.34,0.01887045272,-0.06388557807
5.35,0.01622593709,-0.06442082561
5.36,0.01357196655,-0.06485033754
5.37,0.01091249445,-0.06517439443
5.38,0.008251426248,-0.06539340348
5.39,0.005592617225,-0.06550789458
5.4,0.00293987046,-0.06551851646
5.41,0.0002969350492,-0.06542603303
5.42,-0.002332495442,-0.06523131982
5.43,-0.004944784327,-0.06493536064
5.44,-0.007536352963,-0.06453924443
5.45,-0.01010368177,-0.06404416225
5.46,-0.01264331111,-0.06345140454
5.47,-0.01515184207,-0.06276235852
5.48,-0.01762593719,-0.0619785058
5.49,-0.02006232107,-0.06110142027
5.5,-0.02245778103,-0.06013276606
5.51,-0.02480916771,-0.05907429583
5.52,-0.02711339574,-0.05792784912
5.53,-0.02936744437,-0.05669535099
5.54,-0.03156835824,-0.05537881075
5.55,-0.0337132482,-0.05398032086
5.56,-0.03579929223,-0.05250205602
5.57,-0.03782373647,-0.05094627232
5.58,-0.03978389644,-0.04931530649
5.59,-0.04167715827,-0.04761157532
5.6,-0.04350098027,-0.04583757506
5.61,-0.04525289453,-0.0439958809
5.62,-0.04693050874,-0.0420891465
5.63,-0.0485315082,-0.04012010343
5.64,-0.05005365804,-0.03809156075
5.65,-0.05149480555,-0.03600640436
5.66,-0.05285288278,-0.03386759642
5.67,-0.05412590929,-0.0316781746
5.68,-0.05531199506,-0.02944125127
5.69,-0.05640934363,-0.02716001253
5.7,-0.05741625535,-0.02483771705
5.71,-0.05833113082,-0.02247769475
5.72,-0.05915247445,-0.02008334534
5.73,-0.05987889817,-0.0176581365
5.74,-0.06050912523,-0.01520560196
5.75,-0.06104199413,-0.01272933923
5.76,-0.06147646253,-0.01023300709
5.77,-0.06181161138,-0.007720322783
5.78,-0.06204664888,-0.005195058925
5.79,-0.06218091463,-0.002661040055
5.8,-0.06221388362,-0.0001221389147
5.81,-0.06214517027,0.002417727631
5.82,-0.06197453235,0.004954603001
5.83,-0.06170187481,0.007484495644
5.84,-0.06132725352,0.01000338412
5.85,-0.06085087879,0.01250722253
5.86,-0.06027311878,0.01499194625
5.87,-0.05959450264,0.01745347804
5.88,-0.05881572347,0.01988773446
5.89,-0.05793764093,0.02229063253
5.9,-0.05696128367,0.0246580968
5.91,-0.05588785135,0.02698606664
5.92,-0.05471871636,0.02927050376
5.93,-0.05345542514,0.03150740008
5.94,-0.05209969915,0.03369278575
5.95,-0.05065343539,0.03582273738
5.96,-0.0491187065,0.0378933865
5.97,-0.04749776041,0.03990092811
5.98,-0.04579301951,0.04184162941
5.99,-0.04400707933,0.04371183861
6,-0.04214270673,0.0455079938
