"Freq [GHz]","re(S(Tx_p1,Tx_p1)) []","im(S(Tx_p1,Tx_p1)) []"
1,-0.01089704325,-0.02913525128
1.01,-0.01192817292,-0.02869968306
1.02,-0.0129461397,-0.02822819135
1.03,-0.01394964993,-0.02772107874
1.04,-0.01493742275,-0.02717868967
1.05,-0.01590819007,-0.02660140916
1.06,-0.0168606964,-0.02598966166
1.07,-0.01779369866,-0.02534391023
1.08,-0.01870596593,-0.0246646558
1.09,-0.01959627919,-0.02395243676
1.1,-0.02046343105,-0.02320782867
1.11,-0.02130622557,-0.02243144416
1.12,-0.02212347809,-0.02162393308
1.13,-0.02291401513,-0.02078598279
1.14,-0.02367667442,-0.01991831861
1.15,-0.02441030502,-0.01902170441
1.16,-0.02511376759,-0.0180969434
1.17,-0.0257859348,-0.01714487895
1.18,-0.0264256919,-0.01616639563
1.19,-0.02703193745,-0.01516242017
1.2,-0.0276035843,-0.01413392269
1.21,-0.02813956071,-0.01308191779
1.22,-0.02863881167,-0.01200746576
1.23,-0.02910030048,-0.01091167379
1.24,-0.02952301049,-0.009795697125
1.25,-0.0299059471,-0.008660740167
1.26,-0.03024813994,-0.007508057566
1.27,-0.03054864531,-0.006338955163
1.28,-0.03080654874,-0.005154790846
1.29,-0.03102096786,-0.003956975264
1.3,-0.03119105538,-0.00274697238
1.31,-0.03131600231,-0.001526299849
1.32,-0.03139504129,-0.0002965291931
1.33,-0.03142745016,0.0009407142471
1.34,-0.03141255555,0.002183751592
1.35,-0.03134973675,0.003430850966
1.36,-0.03123842951,0.004680228303
1.37,-0.03107813007,0.005930048452
1.38,-0.03086839917,0.007178426564
1.39,-0.0306088661,0.008423429802
1.4,-0.03029923282,0.009663079365
1.41,-0.029939278,0.01089535283
1.42,-0.02952886104,0.01211818686
1.43,-0.02906792608,0.01332948018
1.44,-0.02855650587,0.01452709694
1.45,-0.02799472546,0.01570887043
1.46,-0.02738280592,0.01687260707
1.47,-0.0267210677,0.01801609074
1.48,-0.0260099339,0.01913708747
1.49,-0.02524993327,0.02023335039
1.5,-0.024441703,0.02130262501
1.51,-0.02358599116,0.02234265473
1.52,-0.0226836589,0.02335118672
1.53,-0.02173568232,0.02432597789
1.54,-0.02074315393,0.02526480128
1.55,-0.01970728382,0.02616545248
1.56,-0.01862940038,0.02702575633
1.57,-0.01751095066,0.0278435738
1.58,-0.01635350025,0.02861680887
1.59,-0.01515873281,0.02934341569
1.6,-0.01392844903,0.03002140565
1.61,-0.01266456523,0.03064885463
1.62,-0.01136911149,0.03122391016
1.63,-0.0100442292,0.03174479859
1.64,-0.00869216827,0.03220983226
1.65,-0.007315283776,0.0326174165
1.66,-0.005916032145,0.03296605658
1.67,-0.004496966886,0.03325436443
1.68,-0.00306073383,0.03348106529
1.69,-0.001610065929,0.03364500401
1.7,-0.0001477775938,0.03374515119
1.71,0.001323241396,0.033780609
1.72,0.002800032402,0.0337506167
1.73,0.004279574843,0.03365455575
1.74,0.005758793485,0.03349195468
1.75,0.007234566097,0.03326249341
1.76,0.00870373144,0.03296600722
1.77,0.01016309756,0.03260249026
1.78,0.01160945037,0.03217209855
1.79,0.01303956248,0.03167515253
1.8,0.01445020223,0.03111213901
1.81,0.01583814295,0.0304837127
1.82,0.01720017232,0.02979069707
1.83,0.01853310189,0.02903408473
1.84,0.01983377668,0.02821503717
1.85,0.02109908476,0.02733488401
1.86,0.02232596696,0.02639512154
1.87,0.0235114264,0.02539741076
1.88,0.02465253807,0.02434357481
1.89,0.02574645826,0.0232355958
1.9,0.0267904338,0.02207561103
1.91,0.02778181121,0.0208659087
1.92,0.02871804551,0.01960892298
1.93,0.02959670888,0.0183072286
1.94,0.03041549897,0.01696353483
1.95,0.03117224687,0.01558067897
1.96,0.03186492473,0.01416161939
1.97,0.03249165299,0.01270942798
1.98,0.03305070718,0.01122728222
1.99,0.03354052426,0.009718456875
2,0.03395970842,0.008186315131
2.01,0.03430703649,0.006634299529
2.02,0.03458146266,0.005065922461
2.03,0.03478212278,0.003484756406
2.04,0.03490833801,0.001894423884
2.05,0.03495961785,0.0002985871803
2.06,0.03493566266,-0.001299062113
2.07,0.03483636541,-0.002894813726
2.08,0.03466181299,-0.004484949439
2.09,0.03441228667,-0.006065753902
2.1,0.03408826208,-0.007633525474
2.11,0.0336904085,-0.009184587069
2.12,0.03321958743,-0.01071529695
2.13,0.03267685064,-0.01222205943
2.14,0.0320634375,-0.01370133546
2.15,0.03138077169,-0.01514965306
2.16,0.03063045739,-0.0165636175
2.17,0.02981427472,-0.01793992127
2.18,0.02893417471,-0.01927535381
2.19,0.02799227366,-0.02056681082
2.2,0.026990847,-0.02181130331
2.21,0.02593232252,-0.02300596623
2.22,0.02481927327,-0.02414806671
2.23,0.02365440984,-0.0252350118
2.24,0.0224405723,-0.02626435578
2.25,0.02118072167,-0.027233807
2.26,0.01987793107,-0.02814123409
2.27,0.01853537649,-0.02898467178
2.28,0.01715632727,-0.029762326
2.29,0.0157441363,-0.03047257852
2.3,0.01430223002,-0.03111399094
2.31,0.01283409815,-0.03168530807
2.32,0.01134328338,-0.03218546072
2.33,0.009833370838,-0.03261356789
2.34,0.008307977536,-0.03296893822
2.35,0.006770741754,-0.03325107097
2.36,0.005225312443,-0.03345965627
2.37,0.003675338655,-0.03359457477
2.38,0.002124459056,-0.03365589668
2.39,0.0005762915586,-0.0336438802
2.4,-0.0009655769034,-0.03355896936
2.41,-0.002497600398,-0.03340179122
2.42,-0.004016283803,-0.03317315262
2.43,-0.005518192351,-0.03287403626
2.44,-0.006999960887,-0.03250559627
2.45,-0.008458302801,-0.03206915337
2.46,-0.009890018615,-0.03156618938
2.47,-0.01129200419,-0.03099834142
2.48,-0.01266125852,-0.03036739559
2.49,-0.01399489112,-0.02967528026
2.5,-0.01529012894,-0.02892405899
2.51,-0.01654432283,-0.02811592312
2.52,-0.0177549535,-0.02725318403
2.53,-0.018919637,-0.0263382651
2.54,-0.02003612967,-0.02537369347
2.55,-0.02110233255,-0.02436209155
2.56,-0.02211629532,-0.02330616837
2.57,-0.02307621961,-0.02220871077
2.58,-0.02398046184,-0.02107257452
2.59,-0.02482753547,-0.01990067528
2.6,-0.02561611273,-0.01869597966
2.61,-0.02634502583,-0.0174614961
2.62,-0.02701326755,-0.01620026597
2.63,-0.02761999142,-0.01491535456
2.64,-0.02816451129,-0.01360984226
2.65,-0.02864630044,-0.01228681584
2.66,-0.02906499015,-0.01094935991
2.67,-0.02942036788,-0.009600548488
2.68,-0.02971237489,-0.008243436881
2.69,-0.02994110348,-0.006881053725
2.7,-0.03010679378,-0.005516393322
2.71,-0.03020983018,-0.004152408253
2.72,-0.03025073731,-0.002792002303
2.73,-0.03023017574,-0.001438023702
2.74,-0.03014893732,-9.325871567E-05
2.75,-0.03000794021,0.001239574402
2.76,-0.02980822367,0.002557831089
2.77,-0.02955094255,0.00385894577
2.78,-0.0292373616,0.005140436748
2.79,-0.02886884956,0.006399910707
2.8,-0.02844687316,0.007635066788
2.81,-0.02797299083,0.008843700266
2.82,-0.0274488465,0.01002370581
2.83,-0.02687616316,0.0111730803
2.84,-0.02625673642,0.01228992531
2.85,-0.0255924281,0.01337244905
2.86,-0.02488515976,0.01441896803
2.87,-0.02413690625,0.01542790827
2.88,-0.02334968937,0.0163978061
2.89,-0.02252557155,0.01732730862
2.9,-0.02166664965,0.01821517379
2.91,-0.02077504891,0.01906027014
2.92,-0.01985291701,0.01986157616
2.93,-0.01890241828,0.02061817936
2.94,-0.0179257281,0.02132927504
2.95,-0.01692502755,0.02199416474
2.96,-0.01590249817,0.02261225444
2.97,-0.014860317,0.02318305252
2.98,-0.0138006519,0.02370616747
2.99,-0.012725657,0.02418130536
3,-0.01163746852,0.02460826723
3.01,-0.01053820076,0.02498694617
3.02,-0.009429942441,0.02531732435
3.03,-0.008314753222,0.02559946988
3.04,-0.007194660575,0.02583353362
3.05,-0.006071656878,0.02601974582
3.06,-0.004947696796,0.02615841277
3.07,-0.003824694934,0.02624991341
3.08,-0.002704523747,0.02629469582
3.09,-0.001589011711,0.02629327385
3.1,-0.0004799417496,0.02624622366
3.11,0.000620950101,0.02615418034
3.12,0.001711975788,0.02601783455
3.13,0.002791496115,0.02583792925
3.14,0.003857921403,0.02561525649
3.15,0.00490971195,0.02535065433
3.16,0.0059453783,0.0250450038
3.17,0.006963481342,0.02469922603
3.18,0.007962632247,0.02431427951
3.19,0.008941492261,0.02389115741
3.2,0.009898772371,0.02343088515
3.21,0.01083323285,0.02293451803
3.22,0.01174368271,0.02240313906
3.23,0.01262897909,0.0218378569
3.24,0.01348802652,0.02123980401
3.25,0.01431977621,0.02061013491
3.26,0.01512322526,0.01995002463
3.27,0.01589741585,0.01926066728
3.28,0.01664143445,0.01854327481
3.29,0.01735441101,0.01779907584
3.3,0.01803551819,0.01702931476
3.31,0.01868397064,0.0162352508
3.32,0.01929902428,0.01541815737
3.33,0.01987997569,0.01457932142
3.34,0.02042616156,0.01372004291
3.35,0.02093695821,0.01284163447
3.36,0.02141178116,0.01194542102
3.37,0.02185008489,0.01103273952
3.38,0.02225136261,0.01010493879
3.39,0.02261514618,0.009163379356
3.4,0.02294100614,0.00820943334
3.41,0.02322855184,0.007244484343
3.42,0.02347743168,0.006269927368
3.43,0.02368733348,0.005287168717
3.44,0.02385798498,0.004297625868
3.45,0.0239891544,0.003302727321
3.46,0.02408065113,0.002303912392
3.47,0.02413232657,0.001302630947
3.48,0.02414407499,0.0003003430602
3.49,0.02411583454,-0.0007014814064
3.5,0.02404758829,-0.00170136333
3.51,0.02393936542,-0.002697814952
3.52,0.0237912424,-0.00368934063
3.53,0.02360334423,-0.004674437706
3.54,0.0233758458,-0.005651597516
3.55,0.02310897316,-0.006619306539
3.56,0.02280300491,-0.007576047693
3.57,0.02245827354,-0.008520301782
3.58,0.02207516675,-0.009450549103
3.59,0.0216541288,-0.01036527121
3.6,0.02119566176,-0.01126295284
3.61,0.02070032672,-0.01214208398
3.62,0.02016874497,-0.01300116215
3.63,0.01960159903,-0.01383869476
3.64,0.01899963363,-0.0146532017
3.65,0.01836365657,-0.01544321803
3.66,0.01769453942,-0.01620729681
3.67,0.01699321808,-0.01694401213
3.68,0.01626069327,-0.01765196218
3.69,0.01549803068,-0.01832977248
3.7,0.01470636111,-0.01897609925
3.71,0.01388688033,-0.0195896328
3.72,0.01304084872,-0.02016910109
3.73,0.01216959074,-0.02071327327
3.74,0.01127449417,-0.02122096335
3.75,0.01035700909,-0.02169103387
3.76,0.009418646661,-0.02212239958
3.77,0.008460977602,-0.02251403121
3.78,0.0074856305,-0.02286495909
3.79,0.006494289797,-0.0231742769
3.8,0.005488693566,-0.02344114523
3.81,0.004470631009,-0.02366479518
3.82,0.003441939717,-0.02384453183
3.83,0.00240450267,-0.02397973761
3.84,0.001360244995,-0.02406987555
3.85,0.0003111304753,-0.02411449244
3.86,-0.0007408421684,-0.02411322173
3.87,-0.001793643234,-0.02406578636
3.88,-0.00284521621,-0.02397200136
3.89,-0.003893482153,-0.02383177619
3.9,-0.004936344273,-0.02364511698
3.91,-0.005971692693,-0.02341212835
3.92,-0.006997409386,-0.02313301518
3.93,-0.008011373268,-0.02280808392
3.94,-0.009011465427,-0.02243774377
3.95,-0.009995574477,-0.02202250743
3.96,-0.01096160202,-0.0215629917
3.97,-0.01190746819,-0.0210599176
3.98,-0.01283111725,-0.02051411031
3.99,-0.01373052328,-0.01992649868
4,-0.0146036958,-0.01929811445
4.01,-0.01544868553,-0.01863009114
4.02,-0.01626358998,-0.01792366257
4.03,-0.01704655913,-0.01718016107
4.04,-0.01779580096,-0.01640101527
4.05,-0.01850958693,-0.01558774769
4.06,-0.01918625737,-0.01474197184
4.07,-0.01982422667,-0.0138653891
4.08,-0.02042198843,-0.01295978518
4.09,-0.02097812033,-0.01202702636
4.1,-0.02149128885,-0.01106905537
4.11,-0.02196025378,-0.01008788693
4.12,-0.02238387253,-0.009085603078
4.13,-0.02276110407,-0.008064348213
4.14,-0.02309101272,-0.007026323824
4.15,-0.02337277161,-0.005973783041
4.16,-0.0236056658,-0.00490902493
4.17,-0.02378909514,-0.003834388591
4.18,-0.02392257673,-0.00275224707
4.19,-0.02400574709,-0.001665001099
4.2,-0.02403836393,-0.0005750727045
4.21,-0.02402030757,0.0005151013209
4.22,-0.02395158202,0.001603076035
4.23,-0.02383231558,0.002686405047
4.24,-0.02366276112,0.003762647259
4.25,-0.023443296,0.004829373654
4.26,-0.02317442148,0.005884174066
4.27,-0.02285676188,0.006924663945
4.28,-0.02249106318,0.007948491069
4.29,-0.0220781914,0.008953342185
4.3,-0.02161913042,0.00993694956
4.31,-0.02111497958,0.0108970974
4.32,-0.02056695077,0.01183162816
4.33,-0.01997636527,0.01273844862
4.34,-0.01934465008,0.01361553586
4.35,-0.01867333411,0.01446094294
4.36,-0.01796404385,0.01527280442
4.37,-0.01721849883,0.01604934158
4.38,-0.01643850676,0.01678886735
4.39,-0.01562595835,0.01748979105
4.4,-0.01478282193,0.01815062268
4.41,-0.0139111378,0.01876997702
4.42,-0.01301301226,0.01934657727
4.43,-0.01209061165,0.01987925849
4.44,-0.01114615596,0.0203669705
4.45,-0.01018191248,0.02080878054
4.46,-0.009200189213,0.02120387551
4.47,-0.008203328206,0.0215515638
4.48,-0.007193698782,0.02185127673
4.49,-0.006173690729,0.02210256962
4.5,-0.00514570744,0.02230512245
4.51,-0.004112159045,0.02245874007
4.52,-0.003075455554,0.02256335209
4.53,-0.002038000038,0.02261901228
4.54,-0.001002181879,0.02262589769
4.55,2.962990722E-05,0.02258430724
4.56,0.001055093222,0.02249466005
4.57,0.002071899316,0.02235749333
4.58,0.003077779053,0.02217345994
4.59,0.004070509008,0.02194332556
4.6,0.005047917356,0.02166796557
4.61,0.006007889554,0.02134836155
4.62,0.006948373774,0.02098559754
4.63,0.007867386093,0.02058085592
4.64,0.008763015405,0.02013541311
4.65,0.009633428046,0.01965063491
4.66,0.01047687212,0.01912797171
4.67,0.01129168153,0.0185689534
4.68,0.01207627962,0.01797518413
4.69,0.01282918259,0.01734833686
4.7,0.01354900246,0.01669014778
4.71,0.01423444976,0.01600241064
4.72,0.01488433583,0.01528697084
4.73,0.01549757475,0.01454571963
4.74,0.01607318495,0.01378058804
4.75,0.01661029045,0.01299354095
4.76,0.01710812167,0.01218657103
4.77,0.01756601598,0.01136169274
4.78,0.01798341783,0.01052093634
4.79,0.01835987858,0.009666341925
4.8,0.0186950559,0.00879995362
4.81,0.01898871293,0.007923813761
4.82,0.01924071709,0.007039957256
4.83,0.01945103848,0.006150406058
4.84,0.01961974815,0.005257163792
4.85,0.0197470159,0.004362210547
4.86,0.01983310792,0.003467497857
4.87,0.01987838412,0.002574943877
4.88,0.01988329521,0.00168642878
4.89,0.01984837957,0.0008037903772
4.9,0.01977425989,-7.118002165E-05
4.91,0.01966163959,-0.0009367414964
4.92,0.01951129912,-0.001791207146
4.93,0.01932409205,-0.002632947448
4.94,0.01910094102,-0.00346039335
4.95,0.01884283361,-0.004272039071
4.96,0.01855081807,-0.005066444629
4.97,0.01822599893,-0.005842238076
4.98,0.01786953269,-0.006598117446
4.99,0.01748262325,-0.007332852417
5,0.01706651753,-0.008045285683
5.01,0.01662250092,-0.008734334046
5.02,0.01615189285,-0.009398989224
5.03,0.01565604229,-0.01003831839
5.04,0.01513632341,-0.01065146441
5.05,0.01459413122,-0.01123764591
5.06,0.01403087729,-0.01179615693
5.07,0.01344798563,-0.01232636652
5.08,0.0128468886,-0.01282771796
5.09,0.01222902302,-0.01329972779
5.1,0.01159582632,-0.01374198472
5.11,0.01094873293,-0.01415414817
5.12,0.01028917077,-0.01453594679
5.13,0.009618557928,-0.01488717671
5.14,0.00893829949,-0.01520769968
5.15,0.00824978459,-0.015497441
5.16,0.00755438361,-0.01575638745
5.17,0.006853445591,-0.01598458493
5.18,0.00614829584,-0.01618213616
5.19,0.005440233728,-0.01634919823
5.2,0.004730530697,-0.01648598005
5.21,0.004020428463,-0.01659273983
5.22,0.00331113742,-0.01666978244
5.23,0.002603835247,-0.01671745679
5.24,0.001899665703,-0.01673615321
5.25,0.001199737621,-0.0167263008
5.26,0.0005051240846,-0.01668836485
5.27,-0.0001831382103,-0.0166228442
5.28,-0.0008640494201,-0.01653026876
5.29,-0.00153664685,-0.016411197
5.3,-0.002200005093,-0.01626621353
5.31,-0.00285323601,-0.01609592677
5.32,-0.00349548858,-0.0159009667
5.33,-0.004125948607,-0.01568198266
5.34,-0.004743838313,-0.01543964134
5.35,-0.005348415816,-0.0151746248
5.36,-0.005938974508,-0.0148876286
5.37,-0.006514842349,-0.01457936012
5.38,-0.007075381081,-0.01425053695
5.39,-0.007619985375,-0.01390188539
5.4,-0.008148081929,-0.01353413912
5.41,-0.008659128519,-0.01314803794
5.42,-0.009152613027,-0.01274432673
5.43,-0.00962805244,-0.01232375443
5.44,-0.01008499185,-0.01188707318
5.45,-0.01052300346,-0.01143503767
5.46,-0.01094168558,-0.01096840442
5.47,-0.01134066168,-0.01048793139
5.48,-0.01171957945,-0.009994377503
5.49,-0.01207810993,-0.00948850243
5.5,-0.01241594663,-0.008971066354
5.51,-0.01273280479,-0.008442829885
5.52,-0.01302842067,-0.007904554043
5.53,-0.01330255084,-0.007357000302
5.54,-0.0135549717,-0.006800930714
5.55,-0.01378547893,-0.00623710808
5.56,-0.0139938871,-0.005666296166
5.57,-0.01418002939,-0.005089259962
5.58,-0.01434375732,-0.004506765963
5.59,-0.01448494067,-0.00391958247
5.6,-0.01460346739,-0.003328479894
5.61,-0.01469924368,-0.002734231069
5.62,-0.01477219417,-0.002137611536
5.63,-0.01482226208,-0.001539399823
5.64,-0.01484940962,-0.0009403776809
5.65,-0.01485361834,-0.0003413302902
5.66,-0.01483488964,0.0002569535887
5.67,-0.01479324533,0.0008536815161
5.68,-0.01472872825,0.001448057341
5.69,-0.01464140296,0.002039281238
5.7,-0.01453135647,0.002626549826
5.71,-0.01439869907,0.003209056363
5.72,-0.01424356514,0.003785991045
5.73,-0.014066114,0.004356541381
5.74,-0.01386653082,0.004919892683
5.75,-0.01364502751,0.005475228647
5.76,-0.01340184363,0.006021732041
5.77,-0.01313724729,0.006558585502
5.78,-0.01285153601,0.007084972438
5.79,-0.01254503764,0.007600078033
5.8,-0.01221811113,0.008103090367
5.81,-0.01187114731,0.008593201632
5.82,-0.01150456967,0.009069609457
5.83,-0.01111883497,0.009531518332
5.84,-0.01071443387,0.009978141122
5.85,-0.0102918914,0.01040870068
5.86,-0.009851767425,0.01082243154
5.87,-0.009394656916,0.0112185817
5.88,-0.008921190205,0.01159641445
5.89,-0.008432033065,0.0119552103
5.9,-0.007927886691,0.01229426898
5.91,-0.007409487554,0.01261291139
5.92,-0.006877607124,0.01291048172
5.93,-0.006333051446,0.01318634953
5.94,-0.005776660591,0.01343991186
5.95,-0.005209307948,0.01367059533
5.96,-0.004631899374,0.01387785831
5.97,-0.004045372201,0.01406119298
5.98,-0.00345069408,0.01422012745
5.99,-0.002848861689,0.01435422784
6,-0.002240899282,0.01446310024
