"Freq [GHz]","re(S(Tx_p1,Tx_p1)) []","im(S(Tx_p1,Tx_p1)) []"
1,-0.0115206642,-0.01743975418
1.01,-0.01224034901,-0.01692786673
1.02,-0.01293898041,-0.01638394794
1.03,-0.0136149524,-0.01580888414
1.04,-0.01426670447,-0.01520364748
1.05,-0.01489272597,-0.01456929314
1.06,-0.01549156026,-0.01390695631
1.07,-0.01606180871,-0.01321784899
1.08,-0.01660213454,-0.01250325661
1.09,-0.01711126645,-0.01176453447
1.1,-0.01758800202,-0.01100310407
1.11,-0.01803121095,-0.01022044921
1.12,-0.01843983809,-0.009418112056
1.13,-0.01881290621,-0.008597688984
1.14,-0.01914951859,-0.007760826358
1.15,-0.01944886135,-0.006909216189
1.16,-0.01971020561,-0.006044591702
1.17,-0.01993290933,-0.005168722816
1.18,-0.02011641894,-0.004283411555
1.19,-0.02026027083,-0.003390487402
1.2,-0.02036409241,-0.002491802599
1.21,-0.02042760311,-0.001589227419
1.22,-0.02045061501,-0.0006846454069
1.23,-0.0204330333,0.0002200513842
1.24,-0.02037485645,0.001122967162
1.25,-0.02027617619,0.002022207148
1.26,-0.02013717718,0.002915882307
1.27,-0.01995813652,0.003802114044
1.28,-0.01973942296,0.004679038845
1.29,-0.01948149592,0.005544812869
1.3,-0.01918490425,0.006397616463
1.31,-0.01885028483,0.007235658598
1.32,-0.01847836083,0.008057181214
1.33,-0.01806993993,0.008860463461
1.34,-0.01762591216,0.009643825828
1.35,-0.01714724769,0.01040563415
1.36,-0.0166349943,0.0111443035
1.37,-0.01609027475,0.01185830188
1.38,-0.01551428396,0.01254615387
1.39,-0.01490828601,0.01320644402
1.4,-0.01427361093,0.01383782011
1.41,-0.01361165148,0.01443899628
1.42,-0.01292385959,0.01500875591
1.43,-0.01221174288,0.01554595437
1.44,-0.01147686087,0.01604952155
1.45,-0.01072082122,0.01651846422
1.46,-0.009945275777,0.01695186818
1.47,-0.009151916587,0.01734890016
1.48,-0.008342471784,0.0177088096
1.49,-0.00751870144,0.01803093018
1.5,-0.00668239335,0.01831468106
1.51,-0.005835358756,0.01855956806
1.52,-0.004979428049,0.01876518449
1.53,-0.004116446436,0.01893121182
1.54,-0.0032482696,0.01905742014
1.55,-0.002376759345,0.01914366836
1.56,-0.00150377926,0.01918990425
1.57,-0.0006311903892,0.01919616422
1.58,0.0002391530586,0.01916257291
1.59,0.001105407972,0.01908934257
1.6,0.001965746545,0.01897677221
1.61,0.002818360425,0.01882524659
1.62,0.003661464798,0.01863523495
1.63,0.004493302387,0.01840728962
1.64,0.005312147372,0.01814204435
1.65,0.006116309205,0.01784021254
1.66,0.006904136329,0.01750258524
1.67,0.007674019773,0.01713002899
1.68,0.008424396633,0.0167234835
1.69,0.009153753422,0.01628395914
1.7,0.009860629283,0.01581253433
1.71,0.01054361906,0.01531035274
1.72,0.01120137621,0.01477862039
1.73,0.01183261558,0.01421860255
1.74,0.012436116,0.01363162061
1.75,0.01301072274,0.01301904881
1.76,0.01355534974,0.01238231079
1.77,0.01406898173,0.01172287617
1.78,0.01455067615,0.01104225696
1.79,0.01499956484,0.01034200391
1.8,0.01541485563,0.009623702802
1.81,0.01579583366,0.008888970697
1.82,0.01614186259,0.008139452105
1.83,0.01645238554,0.007376815135
1.84,0.01672692591,0.006602747617
1.85,0.01696508796,0.005818953196
1.86,0.01716655721,0.005027147424
1.87,0.01733110069,0.004229053845
1.88,0.01745856691,0.003426400095
1.89,0.01754888575,0.002620914016
1.9,0.01760206808,0.001814319797
1.91,0.01761820526,0.001008334157
1.92,0.01759746837,0.0002046625614
1.93,0.01754010739,-0.0005950044946
1.94,0.01744645007,-0.001388995152
1.95,0.01731690075,-0.002175659777
1.96,0.01715193894,-0.00295337448
1.97,0.01695211771,-0.003720544537
1.98,0.01671806207,-0.004475607733
1.99,0.01645046703,-0.005217037596
2,0.01615009558,-0.005943346528
2.01,0.0158177766,-0.006653088822
2.02,0.01545440253,-0.007344863565
2.03,0.01506092696,-0.00801731741
2.04,0.01463836213,-0.008669147221
2.05,0.01418777627,-0.009299102587
2.06,0.01371029083,-0.009905988192
2.07,0.01320707769,-0.01048866604
2.08,0.01267935619,-0.01104605755
2.09,0.01212839012,-0.01157714547
2.1,0.01155548461,-0.01208097565
2.11,0.01096198302,-0.0125566587
2.12,0.01034926366,-0.01300337139
2.13,0.009718736592,-0.01342035802
2.14,0.009071840244,-0.0138069315
2.15,0.008410038115,-0.01416247437
2.16,0.007734815383,-0.01448643959
2.17,0.00704767551,-0.0147783512
2.18,0.006350136842,-0.0150378048
2.19,0.0056437292,-0.01526446788
2.2,0.004929990474,-0.01545807999
2.21,0.004210463237,-0.01561845269
2.22,0.003486691367,-0.01574546947
2.23,0.002760216711,-0.01583908536
2.24,0.002032575765,-0.01589932652
2.25,0.001305296416,-0.01592628957
2.26,0.0005798947156,-0.01592014082
2.27,-0.000142128283,-0.0158811154
2.28,-0.0008592896264,-0.01580951612
2.29,-0.001570127496,-0.01570571235
2.3,-0.00227320417,-0.01557013864
2.31,-0.002967108901,-0.01540329324
2.32,-0.003650460712,-0.01520573656
2.33,-0.0043219111,-0.01497808942
2.34,-0.004980146645,-0.01472103126
2.35,-0.005623891514,-0.01443529814
2.36,-0.006251909865,-0.01412168078
2.37,-0.00686300814,-0.01378102236
2.38,-0.007456037242,-0.01341421632
2.39,-0.008029894595,-0.01302220403
2.4,-0.008583526094,-0.01260597238
2.41,-0.009115927915,-0.01216655132
2.42,-0.009626148214,-0.01170501131
2.43,-0.01011328869,-0.01122246071
2.44,-0.01057650602,-0.01072004312
2.45,-0.01101501316,-0.01019893467
2.46,-0.01142808054,-0.009660341272
2.47,-0.01181503704,-0.009105495805
2.48,-0.01217527095,-0.008535655318
2.49,-0.01250823074,-0.007952098174
2.5,-0.01281342564,-0.007356121192
2.51,-0.01309042616,-0.00674903677
2.52,-0.01333886448,-0.006132170014
2.53,-0.01355843462,-0.005506855857
2.54,-0.0137488926,-0.004874436194
2.55,-0.01391005634,-0.004236257032
2.56,-0.01404180553,-0.00359366565
2.57,-0.01414408134,-0.0029480078
2.58,-0.01421688597,-0.002300624923
2.59,-0.01426028213,-0.001652851418
2.6,-0.01427439234,-0.001006011941
2.61,-0.0142593982,-0.0003614187551
2.62,-0.01421553945,0.0002796308589
2.63,-0.01414311296,0.0009158571469
2.64,-0.01404247165,0.001546000355
2.65,-0.0139140232,0.002168823138
2.66,-0.01375822879,0.0027831129
2.67,-0.01357560164,0.003387684056
2.68,-0.0133667055,0.003981380217
2.69,-0.01313215308,0.004563076293
2.7,-0.01287260431,0.005131680506
2.71,-0.0125887646,0.00568613632
2.72,-0.01228138301,0.006225424275
2.73,-0.01195125032,0.006748563729
2.74,-0.01159919705,0.0072546145
2.75,-0.01122609143,0.007742678408
2.76,-0.01083283731,0.008211900724
2.77,-0.01042037202,0.008661471503
2.78,-0.009989664134,0.009090626824
2.79,-0.009541711305,0.009498649918
2.8,-0.009077537948,0.009884872191
2.81,-0.008598192964,0.01024867414
2.82,-0.00810474741,0.01058948615
2.83,-0.007598292153,0.01090678922
2.84,-0.007079935513,0.01120011552
2.85,-0.006550800889,0.01146904888
2.86,-0.006012024384,0.0117132252
2.87,-0.005464752424,0.01193233265
2.88,-0.004910139387,0.0121261119
2.89,-0.004349345232,0.01229435611
2.9,-0.003783533149,0.01243691091
2.91,-0.003213867223,0.01255367427
2.92,-0.002641510119,0.01264459619
2.93,-0.002067620791,0.01270967837
2.94,-0.001493352231,0.01274897377
2.95,-0.0009198492385,0.01276258602
2.96,-0.0003482462413,0.01275066882
2.97,0.0002203348514,0.01271342517
2.98,0.0007847867441,0.01265110656
2.99,0.001344018804,0.01256401206
3,0.001896959054,0.0124524873
3.01,0.002442556114,0.01231692344
3.02,0.002979781082,0.01215775598
3.03,0.003507629348,0.01197546351
3.04,0.00402512235,0.0117705665
3.05,0.004531309263,0.01154362581
3.06,0.005025268609,0.01129524138
3.07,0.005506109808,0.01102605063
3.08,0.005972974642,0.01073672698
3.09,0.006425038655,0.01042797821
3.1,0.006861512465,0.01010054483
3.11,0.007281643005,0.009755198335
3.12,0.007684714673,0.00939273951
3.13,0.008070050412,0.009013996607
3.14,0.008437012698,0.008619823543
3.15,0.008785004444,0.00821109804
3.16,0.009113469828,0.007788719748
3.17,0.009421895022,0.00735360834
3.18,0.009709808847,0.006906701585
3.19,0.009976783333,0.006448953407
3.2,0.0102224342,0.005981331932
3.21,0.01044642125,0.005504817523
3.22,0.01064844866,0.00502040081
3.23,0.01082826522,0.00452908072
3.24,0.01098566446,0.004031862507
3.25,0.01112048468,0.003529755787
3.26,0.01123260895,0.003023772585
3.27,0.01132196496,0.00251492539
3.28,0.01138852484,0.002004225228
3.29,0.01143230487,0.001492679754
3.3,0.01145336514,0.0009812913654
3.31,0.01145180907,0.0004710553431
3.32,0.01142778292,-3.704198406E-05
3.33,0.01138147523,-0.000542025038
3.34,0.01131311609,-0.001042930758
3.35,0.01122297646,-0.001538810331
3.36,0.01111136737,-0.00202873088
3.37,0.01097863898,-0.002511777111
3.38,0.01082517972,-0.002987052913
3.39,0.01065141528,-0.003453682916
3.4,0.01045780749,-0.003910813993
3.41,0.01024485327,-0.004357616709
3.42,0.01001308344,-0.004793286726
3.43,0.009763061453,-0.005217046137
3.44,0.009495382172,-0.005628144756
3.45,0.009210670508,-0.006025861339
3.46,0.008909580064,-0.006409504745
3.47,0.008592791713,-0.006778415037
3.48,0.008261012152,-0.007131964517
3.49,0.007914972406,-0.007469558694
3.5,0.007555426304,-0.007790637186
3.51,0.007183148923,-0.008094674555
3.52,0.006798935008,-0.008381181068
3.53,0.006403597354,-0.008649703398
3.54,0.005997965182,-0.008899825243
3.55,0.005582882484,-0.009131167882
3.56,0.005159206354,-0.009343390657
3.57,0.00472780531,-0.009536191378
3.58,0.004289557601,-0.009709306668
3.59,0.003845349508,-0.009862512221
3.6,0.003396073641,-0.009995622996
3.61,0.002942627231,-0.01010849334
3.62,0.002485910435,-0.01020101703
3.63,0.002026824625,-0.01027312727
3.64,0.001566270709,-0.01032479655
3.65,0.001105147439,-0.01035603654
3.66,0.0006443497494,-0.0103668978
3.67,0.0001847671017,-0.01035746953
3.68,-0.0002727181486,-0.01032787913
3.69,-0.0007272323648,-0.01027829182
3.7,-0.001177912217,-0.0102089101
3.71,-0.001623906244,-0.0101199732
3.72,-0.002064376385,-0.0100117564
3.73,-0.002498499482,-0.009884570398
3.74,-0.002925468745,-0.009738760489
3.75,-0.00334449518,-0.009574705784
3.76,-0.003754808984,-0.00939281832
3.77,-0.004155660891,-0.009193542128
3.78,-0.004546323477,-0.008977352251
3.79,-0.004926092427,-0.008744753701
3.8,-0.005294287739,-0.008496280372
3.81,-0.005650254894,-0.008232493904
3.82,-0.005993365967,-0.007953982501
3.83,-0.006323020684,-0.007661359701
3.84,-0.006638647426,-0.007355263112
3.85,-0.006939704179,-0.007036353104
3.86,-0.007225679423,-0.006705311464
3.87,-0.007496092962,-0.00636284002
3.88,-0.007750496691,-0.006009659234
3.89,-0.00798847531,-0.005646506757
3.9,-0.008209646965,-0.005274135971
3.91,-0.00841366383,-0.004893314496
3.92,-0.008600212624,-0.004504822684
3.93,-0.008769015062,-0.004109452088
3.94,-0.008919828239,-0.003708003919
3.95,-0.009052444949,-0.003301287491
3.96,-0.009166693937,-0.002890118654
3.97,-0.009262440078,-0.00247531822
3.98,-0.0093395845,-0.002057710385
3.99,-0.009398064625,-0.001638121151
4,-0.009437854153,-0.001217376747
4.01,-0.009458962976,-0.0007963020569
4.02,-0.009461437021,-0.0003757190506
4.03,-0.009445358027,4.355477097E-05
4.04,-0.009410843262,0.0004607079205
4.05,-0.009358045167,0.0008749364522
4.06,-0.009287150934,0.001285445472
4.07,-0.00919838203,0.001691450628
4.08,-0.009091993645,0.002092179573
4.09,-0.008968274084,0.002486873405
4.1,-0.008827544102,0.002874788079
4.11,-0.008670156169,0.003255195782
4.12,-0.008496493689,0.003627386277
4.13,-0.00830697015,0.003990668214
4.14,-0.008102028227,0.004344370397
4.15,-0.007882138831,0.004687843007
4.16,-0.007647800102,0.005020458794
4.17,-0.007399536358,0.005341614206
4.18,-0.007137896989,0.005650730485
4.19,-0.006863455313,0.005947254703
4.2,-0.006576807387,0.006230660753
4.21,-0.00627857077,0.006500450282
4.22,-0.005969383258,0.006756153572
4.23,-0.005649901572,0.006997330356
4.24,-0.005320800026,0.007223570589
4.25,-0.004982769144,0.007434495147
4.26,-0.004636514269,0.00762975647
4.27,-0.004282754134,0.007809039139
4.28,-0.003922219412,0.007972060396
4.29,-0.003555651247,0.008118570592
4.3,-0.003183799767,0.008248353573
4.31,-0.002807422585,0.008361227001
4.32,-0.00242728328,0.008457042605
4.33,-0.002044149884,0.008535686365
4.34,-0.001658793346,0.008597078635
4.35,-0.001271986007,0.008641174188
4.36,-0.0008845000698,0.0086679622
4.37,-0.0004971060695,0.008677466163
4.38,-0.0001105713565,0.008669743735
4.39,0.0002743414162,0.008644886516
4.4,0.0006568757912,0.008603019762
4.41,0.00103628299,0.008544302031
4.42,0.001411823378,0.008468924765
4.43,0.00178276791,0.008377111806
4.44,0.002148399548,0.008269118844
4.45,0.002508014655,0.008145232815
4.46,0.002860924362,0.008005771223
4.47,0.003206455894,0.007851081413
4.48,0.00354395387,0.007681539779
4.49,0.00387278156,0.007497550917
4.5,0.004192322105,0.007299546727
4.51,0.004501979692,0.007087985455
4.52,0.004801180685,0.006863350689
4.53,0.005089374709,0.006626150304
4.54,0.005366035685,0.006376915356
4.55,0.005630662812,0.006116198943
4.56,0.005882781498,0.00584457501
4.57,0.006121944231,0.00556263712
4.58,0.0063477314,0.005270997192
4.59,0.00655975205,0.004970284198
4.6,0.006757644582,0.004661142828
4.61,0.006941077388,0.004344232133
4.62,0.007109749425,0.004020224133
4.63,0.007263390724,0.003689802404
4.64,0.007401762837,0.003353660653
4.65,0.007524659209,0.003012501259
4.66,0.007631905496,0.002667033818
4.67,0.007723359807,0.002317973661
4.68,0.007798912878,0.001966040373
4.69,0.007858488186,0.001611956307
4.7,0.007902041987,0.001256445086
4.71,0.007929563287,0.0009002301238
4.72,0.007941073748,0.0005440331307
4.73,0.007936627525,0.0001885726407
4.74,0.007916311036,-0.0001654374566
4.75,0.007880242662,-0.0005172893702
4.76,0.007828572388,-0.0008662828434
4.77,0.00776148137,-0.001211726572
4.78,0.007679181448,-0.001552939597
4.79,0.007581914585,-0.001889252674
4.8,0.007469952255,-0.002220009616
4.81,0.007343594762,-0.002544568595
4.82,0.007203170507,-0.002862303424
4.83,0.007049035194,-0.003172604789
4.84,0.006881570982,-0.003474881453
4.85,0.006701185584,-0.003768561407
4.86,0.006508311315,-0.004053092983
4.87,0.00630340409,-0.004327945923
4.88,0.006086942374,-0.004592612391
4.89,0.005859426095,-0.004846607942
4.9,0.005621375503,-0.005089472432
4.91,0.00537333,-0.00532077088
4.92,0.005115846928,-0.005540094262
4.93,0.004849500327,-0.005747060263
4.94,0.004574879653,-0.005941313955
4.95,0.004292588482,-0.00612252842
4.96,0.004003243175,-0.006290405313
4.97,0.003707471526,-0.006444675357
4.98,0.003405911394,-0.006585098778
4.99,0.003099209312,-0.00671146567
5,0.002788019089,-0.006823596302
5.01,0.002473000395,-0.00692134135
5.02,0.002154817348,-0.007004582072
5.03,0.001834137087,-0.007073230408
5.04,0.001511628353,-0.007127229019
5.05,0.001187960067,-0.007166551256
5.06,0.0008637999152,-0.007191201068
5.07,0.0005398129452,-0.007201212838
5.08,0.00021666017,-0.007196651156
5.09,-0.0001050028105,-0.007177610532
5.1,-0.0004245271709,-0.00714421504
5.11,-0.0007412722011,-0.0070966179
5.12,-0.001054606622,-0.007035001001
5.13,-0.001363909878,-0.006959574365
5.14,-0.001668573394,-0.006870575548
5.15,-0.001968001808,-0.006768268984
5.16,-0.002261614163,-0.006652945282
5.17,-0.002548845064,-0.006524920458
5.18,-0.002829145796,-0.006384535123
5.19,-0.003101985398,-0.006232153618
5.2,-0.003366851693,-0.006068163103
5.21,-0.003623252278,-0.005892972602
5.22,-0.00387071545,-0.005707012001
5.23,-0.004108791102,-0.005510731008
5.24,-0.004337051551,-0.005304598079
5.25,-0.00455509232,-0.005089099302
5.26,-0.004762532862,-0.00486473725
5.27,-0.004959017229,-0.004632029812
5.28,-0.005144214682,-0.004391508983
5.29,-0.005317820243,-0.004143719641
5.3,-0.005479555187,-0.003889218301
5.31,-0.005629167473,-0.003628571846
5.32,-0.005766432113,-0.003362356247
5.33,-0.005891151482,-0.003091155268
5.34,-0.00600315556,-0.002815559164
5.35,-0.006102302121,-0.00253616337
5.36,-0.006188476847,-0.002253567191
5.37,-0.006261593393,-0.001968372486
5.38,-0.006321593379,-0.001681182356
5.39,-0.006368446325,-0.001392599846
5.4,-0.006402149526,-0.001103226642
5.41,-0.006422727862,-0.0008136617888
5.42,-0.006430233553,-0.0005245004196
5.43,-0.00642474585,-0.0002363325036
5.44,-0.006406370673,5.025838803E-05
5.45,-0.006375240189,0.0003346962923
5.46,-0.006331512336,0.0006164140393
5.47,-0.006275370293,0.0008948544098
5.48,-0.006207021896,0.001169471262
5.49,-0.00612669901,0.001439730625
5.5,-0.00603465684,0.00170511176
5.51,-0.005931173207,0.001965108179
5.52,-0.005816547773,0.002219228631
5.53,-0.005691101225,0.002466998041
5.54,-0.005555174418,0.002707958407
5.55,-0.005409127476,0.002941669658
5.56,-0.005253338866,0.003167710454
5.57,-0.00508820443,0.003385678949
5.58,-0.004914136387,0.0035951935
5.59,-0.004731562313,0.003795893323
5.6,-0.004540924086,0.003987439099
5.61,-0.004342676811,0.004169513529
5.62,-0.004137287731,0.004341821835
5.63,-0.003925235109,0.004504092201
5.64,-0.0037070071,0.004656076166
5.65,-0.003483100616,0.004797548958
5.66,-0.003254020167,0.004928309771
5.67,-0.003020276712,0.005048181989
5.68,-0.002782386492,0.005157013353
5.69,-0.00254086987,0.00525467607
5.7,-0.002296250166,0.005341066867
5.71,-0.002049052504,0.005416106992
5.72,-0.001799802655,0.005479742159
5.73,-0.001549025899,0.005531942433
5.74,-0.001297245892,0.005572702073
5.75,-0.001044983553,0.005602039311
5.76,-0.0007927559596,0.005619996086
5.77,-0.0005410752739,0.005626637724
5.78,-0.0002904476791,0.005622052572
5.79,-4.137234691E-05,0.005606351579
5.8,0.0002056595717,0.005579667839
5.81,0.0004501659275,0.005542156075
5.82,0.0006916745232,0.005493992096
5.83,0.0009297240325,0.005435372198
5.84,0.001163864884,0.005366512535
5.85,0.001393660113,0.005287648447
5.86,0.001618686168,0.005199033754
5.87,0.00183853369,0.005100940014
5.88,0.002052808243,0.004993655748
5.89,0.002261131003,0.004877485646
5.9,0.002463139411,0.004752749725
5.91,0.002658487778,0.004619782483
5.92,0.002846847841,0.004478932018
5.93,0.003027909286,0.004330559127
5.94,0.00320138021,0.004175036388
5.95,0.003366987547,0.004012747231
5.96,0.003524477442,0.003844084987
5.97,0.003673615579,0.003669451932
5.98,0.003814187462,0.003489258315
5.99,0.003945998646,0.003303921393
6,0.004068874918,0.003113864445
