"Freq [GHz]","re(S(Tx_p1,Tx_p1)) []","im(S(Tx_p1,Tx_p1)) []"
1,-0.01603743963,-0.03688964613
1.01,-0.01746568086,-0.03618857043
1.02,-0.01886761135,-0.03542831064
1.03,-0.02024041249,-0.03460984343
1.04,-0.02158131697,-0.03373429251
1.05,-0.02288761612,-0.03280292494
1.06,-0.0241566668,-0.03181714707
1.07,-0.02538589825,-0.03077850027
1.08,-0.0265728185,-0.02968865627
1.09,-0.02771502059,-0.02854941236
1.1,-0.02881018851,-0.02736268626
1.11,-0.02985610281,-0.02613051075
1.12,-0.03085064592,-0.02485502816
1.13,-0.03179180718,-0.02353848454
1.14,-0.03267768753,-0.02218322372
1.15,-0.03350650387,-0.02079168116
1.16,-0.03427659309,-0.01936637764
1.17,-0.03498641579,-0.0179099128
1.18,-0.03563455964,-0.01642495857
1.19,-0.03621974239,-0.01491425249
1.2,-0.03674081451,-0.01338059088
1.21,-0.03719676156,-0.01182682202
1.22,-0.03758670612,-0.01025583919
1.23,-0.03790990941,-0.008670573708
1.24,-0.03816577257,-0.007073987913
1.25,-0.03835383758,-0.005469068176
1.26,-0.03847378779,-0.003858817873
1.27,-0.03852544818,-0.002246250403
1.28,-0.03850878526,-0.0006343822384
1.29,-0.03842390655,0.0009737739714
1.3,-0.03827105987,0.002575216226
1.31,-0.03805063218,0.004166959918
1.32,-0.03776314815,0.005746044475
1.33,-0.03740926847,0.007309539887
1.34,-0.03698978774,0.008854553113
1.35,-0.03650563217,0.01037823434
1.36,-0.03595785692,0.01187778307
1.37,-0.03534764324,0.01335045411
1.38,-0.03467629524,0.01479356327
1.39,-0.03394523652,0.01620449297
1.4,-0.03315600644,0.0175806976
1.41,-0.03231025628,0.01891970869
1.42,-0.03140974504,0.02021913982
1.43,-0.03045633515,0.02147669136
1.44,-0.02945198791,0.0226901549
1.45,-0.02839875881,0.02385741753
1.46,-0.02729879258,0.02497646578
1.47,-0.02615431821,0.02604538931
1.48,-0.0249676437,0.02706238443
1.49,-0.0237411508,0.02802575721
1.5,-0.02247728952,0.02893392646
1.51,-0.02117857264,0.0297854263
1.52,-0.01984757006,0.03057890857
1.53,-0.01848690308,0.03131314488
1.54,-0.0170992387,0.03198702842
1.55,-0.01568728375,0.03259957546
1.56,-0.0142537791,0.03314992659
1.57,-0.01280149376,0.03363734769
1.58,-0.01133321906,0.03406123058
1.59,-0.009851762743,0.0344210934
1.6,-0.008359943188,0.03471658078
1.61,-0.006860583558,0.03494746364
1.62,-0.005356506069,0.03511363879
1.63,-0.003850526283,0.03521512827
1.64,-0.002345447482,0.03525207836
1.65,-0.0008440551197,0.03522475844
1.66,0.0006508886338,0.03513355949
1.67,0.002136650243,0.03497899248
1.68,0.003610530047,0.03476168639
1.69,0.005069867373,0.03448238611
1.7,0.00651204552,0.03414195007
1.71,0.007934496596,0.03374134765
1.72,0.009334706214,0.03328165643
1.73,0.01071021802,0.03276405924
1.74,0.01205863806,0.03218984095
1.75,0.01337763897,0.03156038522
1.76,0.014664964,0.03087717094
1.77,0.01591843084,0.03014176862
1.78,0.01713593523,0.02935583659
1.79,0.01831545446,0.02852111707
1.8,0.01945505055,0.0276394321
1.81,0.02055287334,0.02671267937
1.82,0.02160716326,0.02574282797
1.83,0.02261625403,0.02473191398
1.84,0.02357857498,0.02368203603
1.85,0.02449265331,0.02259535074
1.86,0.02535711602,0.02147406819
1.87,0.02617069171,0.02032044717
1.88,0.02693221208,0.01913679057
1.89,0.02764061327,0.01792544061
1.9,0.02829493699,0.01668877409
1.91,0.02889433136,0.01542919763
1.92,0.02943805163,0.01414914289
1.93,0.02992546064,0.01285106183
1.94,0.03035602904,0.01153742192
1.95,0.03072933536,0.01021070143
1.96,0.03104506586,0.00887338474
1.97,0.03130301414,0.007527957696
1.98,0.03150308061,0.006176902978
1.99,0.03164527168,0.004822695571
2,0.03172969892,0.003467798285
2.01,0.03175657781,0.002114657341
2.02,0.03172622653,0.0007656980487
2.03,0.03163906441,-0.0005766794365
2.04,0.03149561032,-0.001910104256
2.05,0.03129648085,-0.003232238896
2.06,0.03104238829,-0.004540783124
2.07,0.03073413857,-0.005833477815
2.08,0.03037262894,-0.007108108666
2.09,0.02995884556,-0.008362509774
2.1,0.02949386098,-0.009594567104
2.11,0.02897883147,-0.01080222181
2.12,0.02841499419,-0.01198347343
2.13,0.02780366432,-0.01313638294
2.14,0.02714623203,-0.01425907566
2.15,0.0264441594,-0.01534974402
2.16,0.02569897719,-0.0164066502
2.17,0.02491228154,-0.01742812853
2.18,0.02408573064,-0.01841258787
2.19,0.02322104128,-0.01935851375
2.2,0.02231998534,-0.02026447035
2.21,0.02138438623,-0.02112910235
2.22,0.02041611529,-0.02195113663
2.23,0.01941708814,-0.0227293838
2.24,0.01838926096,-0.02346273953
2.25,0.01733462681,-0.02415018582
2.26,0.01625521183,-0.02479079199
2.27,0.01515307155,-0.0253837156
2.28,0.01403028705,-0.02592820318
2.29,0.01288896122,-0.02642359082
2.3,0.01173121496,-0.02686930455
2.31,0.01055918343,-0.02726486066
2.32,0.009375012299,-0.02760986577
2.33,0.008180853969,-0.02790401683
2.34,0.006978863911,-0.0281471009
2.35,0.005771196961,-0.02833899484
2.36,0.004560003679,-0.02847966483
2.37,0.003347426746,-0.02856916576
2.38,0.002135597406,-0.02860764045
2.39,0.0009266319611,-0.02859531878
2.4,-0.0002773716801,-0.02853251667
2.41,-0.001474337391,-0.02841963489
2.42,-0.002662214155,-0.02825715783
2.43,-0.003838979316,-0.02804565204
2.44,-0.005002641767,-0.02778576475
2.45,-0.006151245054,-0.02747822221
2.46,-0.007282870396,-0.02712382792
2.47,-0.008395639633,-0.0267234608
2.48,-0.009487718073,-0.02627807322
2.49,-0.01055731725,-0.0257886889
2.5,-0.0116026976,-0.02525640077
2.51,-0.01262217103,-0.02468236871
2.52,-0.01361410336,-0.02406781722
2.53,-0.01457691673,-0.02341403295
2.54,-0.01550909184,-0.02272236222
2.55,-0.0164091701,-0.02199420842
2.56,-0.01727575568,-0.02123102936
2.57,-0.01810751745,-0.02043433454
2.58,-0.01890319078,-0.01960568236
2.59,-0.01966157926,-0.01874667727
2.6,-0.02038155626,-0.01785896688
2.61,-0.02106206645,-0.016944239
2.62,-0.0217021271,-0.01600421863
2.63,-0.02230082931,-0.01504066496
2.64,-0.02285733916,-0.01405536828
2.65,-0.02337089864,-0.01305014685
2.66,-0.02384082654,-0.01202684381
2.67,-0.0242665192,-0.01098732401
2.68,-0.02464745109,-0.009933470813
2.69,-0.02498317531,-0.008867182965
2.7,-0.02527332397,-0.00779037135
2.71,-0.02551760843,-0.006704955817
2.72,-0.02571581938,-0.005612861976
2.73,-0.02586782688,-0.004516018002
2.74,-0.02597358021,-0.003416351455
2.75,-0.0260331076,-0.002315786104
2.76,-0.02604651588,-0.001216238777
2.77,-0.02601398995,-0.0001196162287
2.78,-0.02593579222,0.0009721879648
2.79,-0.02581226181,0.002057296478
2.8,-0.02564381373,0.003133851276
2.81,-0.02543093791,0.00420001661
2.82,-0.0251741981,0.005253981976
2.83,-0.0248742307,0.006293965017
2.84,-0.02453174341,0.007318214382
2.85,-0.02414751384,0.008325012523
2.86,-0.02372238799,0.009312678433
2.87,-0.02325727859,0.01027957032
2.88,-0.02275316342,0.01122408821
2.89,-0.02221108341,0.01214467649
2.9,-0.02163214076,0.01303982635
2.91,-0.0210174969,0.0139080782
2.92,-0.02036837039,0.01474802391
2.93,-0.01968603469,0.01555830907
2.94,-0.01897181591,0.01633763509
2.95,-0.01822709038,0.01708476122
2.96,-0.01745328229,0.01779850649
2.97,-0.01665186109,0.01847775156
2.98,-0.01582433893,0.01912144043
2.99,-0.01497226801,0.01972858206
3,-0.01409723785,0.0202982519
3.01,-0.01320087248,0.0208295933
3.02,-0.01228482767,0.0213218188
3.03,-0.01135078798,0.02177421131
3.04,-0.01040046386,0.02218612517
3.05,-0.009435588691,0.02255698712
3.06,-0.008457915738,0.02288629708
3.07,-0.007469215145,0.02317362888
3.08,-0.006471270852,0.02341863086
3.09,-0.005465877508,0.02362102626
3.1,-0.004454837365,0.02378061361
3.11,-0.003439957163,0.0238972669
3.12,-0.002423044999,0.02397093567
3.13,-0.001405907205,0.02400164493
3.14,-0.0003903452212,0.023989495
3.15,0.0006218475188,0.0239346612
3.16,0.001628888689,0.0238373934
3.17,0.002629010152,0.02369801545
3.18,0.003620461022,0.0235169245
3.19,0.004601510687,0.02329459016
3.2,0.005570451809,0.0230315536
3.21,0.006525603273,0.02272842641
3.22,0.007465313099,0.02238588947
3.23,0.008387961297,0.02200469162
3.24,0.009291962675,0.02158564819
3.25,0.01017576957,0.02112963951
3.26,0.01103787455,0.02063760922
3.27,0.01187681298,0.02011056249
3.28,0.01269116559,0.01954956414
3.29,0.01347956092,0.01895573664
3.3,0.01424067765,0.01833025805
3.31,0.01497324693,0.0176743598
3.32,0.01567605453,0.0169893244
3.33,0.01634794296,0.01627648307
3.34,0.01698781339,0.01553721329
3.35,0.0175946276,0.0147729362
3.36,0.01816740972,0.01398511403
3.37,0.01870524787,0.01317524735
3.38,0.01920729576,0.01234487232
3.39,0.01967277402,0.01149555781
3.4,0.02010097159,0.01062890259
3.41,0.02049124686,0.009746532275
3.42,0.02084302869,0.008850096383
3.43,0.02115581738,0.007941265272
3.44,0.02142918541,0.007021727057
3.45,0.02166277815,0.006093184494
3.46,0.0218563143,0.005157351838
3.47,0.02200958635,0.004215951675
3.48,0.02212246078,0.00327071175
3.49,0.02219487817,0.002323361775
3.5,0.02222685321,0.001375630245
3.51,0.02221847446,0.0004292412473
3.52,0.02216990411,-0.0005140887137
3.53,0.02208137751,-0.001452653874
3.54,0.02195320255,-0.002384762351
3.55,0.02178575902,-0.003308739254
3.56,0.02157949767,-0.004222929759
3.57,0.02133493928,-0.005125702145
3.58,0.02105267352,-0.006015450787
3.59,0.0207333577,-0.00689059909
3.6,0.02037771539,-0.007749602373
3.61,0.01998653492,-0.008590950684
3.62,0.01956066775,-0.009413171549
3.63,0.01910102674,-0.01021483264
3.64,0.01860858426,-0.01099454439
3.65,0.01808437026,-0.01175096246
3.66,0.01752947015,-0.0124827902
3.67,0.01694502264,-0.01318878095
3.68,0.01633221744,-0.01386774027
3.69,0.0156922929,-0.01451852805
3.7,0.01502653351,-0.01514006055
3.71,0.01433626737,-0.01573131225
3.72,0.01362286357,-0.01629131768
3.73,0.0128877294,-0.01681917309
3.74,0.01213230767,-0.01731403791
3.75,0.0113580738,-0.01777513628
3.76,0.01056653293,-0.01820175824
3.77,0.009759216972,-0.01859326094
3.78,0.008937681603,-0.01894906963
3.79,0.008103503225,-0.01926867857
3.8,0.007258275887,-0.01955165176
3.81,0.006403608181,-0.01979762355
3.82,0.005541120115,-0.02000629913
3.83,0.004672439979,-0.02017745484
3.84,0.003799201189,-0.02031093835
3.85,0.002923039142,-0.02040666873
3.86,0.002045588064,-0.02046463635
3.87,0.00116847788,-0.02048490263
3.88,0.0002933310962,-0.02046759968
3.89,-0.0005782403007,-0.0204129298
3.9,-0.001444637901,-0.02032116479
3.91,-0.002304279905,-0.02019264519
3.92,-0.003155604104,-0.02002777936
3.93,-0.003997070821,-0.01982704243
3.94,-0.004827165792,-0.01959097509
3.95,-0.00564440299,-0.01932018231
3.96,-0.006447327379,-0.0190153319
3.97,-0.007234517599,-0.01867715297
3.98,-0.008004588577,-0.01830643422
3.99,-0.008756194049,-0.01790402222
4,-0.009488029002,-0.01747081945
4.01,-0.01019883202,-0.01700778236
4.02,-0.01088738753,-0.01651591926
4.03,-0.01155252796,-0.01599628811
4.04,-0.01219313579,-0.01544999427
4.05,-0.01280814545,-0.0148781881
4.06,-0.0133965452,-0.01428206254
4.07,-0.01395737878,-0.01366285059
4.08,-0.01448974705,-0.01302182268
4.09,-0.01499280942,-0.01236028407
4.1,-0.01546578522,-0.01167957212
4.11,-0.01590795488,-0.01098105349
4.12,-0.01631866104,-0.01026612139
4.13,-0.01669730951,-0.009536192692
4.14,-0.0170433701,-0.008792705063
4.15,-0.01735637728,-0.00803711405
4.16,-0.01763593075,-0.007270890154
4.17,-0.0178816959,-0.006495515881
4.18,-0.01809340404,-0.005712482794
4.19,-0.01827085259,-0.00492328855
4.2,-0.01841390511,-0.004129433955
4.21,-0.01852249115,-0.003332420019
4.22,-0.01859660603,-0.002533745029
4.23,-0.01863631047,-0.00173490165
4.24,-0.01864173006,-0.0009373740463
4.25,-0.01861305463,-0.0001426350443
4.26,-0.01855053752,0.0006478566707
4.27,-0.01845449465,0.001432659308
4.28,-0.01832530356,0.002210350675
4.29,-0.01816340225,0.002979530827
4.3,-0.01796928798,0.003738824648
4.31,-0.01774351588,0.004486884375
4.32,-0.01748669753,0.005222392038
4.33,-0.01719949939,0.005944061838
4.34,-0.01688264111,0.006650642432
4.35,-0.01653689382,0.007340919138
4.36,-0.01616307825,0.008013716054
4.37,-0.0157620628,0.008667898073
4.38,-0.01533476154,0.009302372818
4.39,-0.01488213207,0.009916092461
4.4,-0.01440517342,0.01050805545
4.41,-0.01390492374,0.01107730812
4.42,-0.01338245807,0.01162294622
4.43,-0.01283888594,0.01214411627
4.44,-0.01227534897,0.0126400169
4.45,-0.01169301845,0.01310989997
4.46,-0.01109309279,0.01355307167
4.47,-0.01047679506,0.0139688934
4.48,-0.009845370393,0.01435678266
4.49,-0.009200083394,0.01471621367
4.5,-0.008542215574,0.015046718
4.51,-0.007873062721,0.01534788504
4.52,-0.007193932285,0.01561936228
4.53,-0.006506140761,0.01586085559
4.54,-0.00581101107,0.01607212928
4.55,-0.005109869958,0.01625300611
4.56,-0.004404045402,0.01640336714
4.57,-0.003694864043,0.01652315148
4.58,-0.002983648641,0.01661235596
4.59,-0.00227171556,0.01667103459
4.6,-0.001560372291,0.01669929803
4.61,-0.0008509150111,0.01669731288
4.62,-0.000144626195,0.01666530089
4.63,0.0005572277316,0.01660353803
4.64,0.00125339868,0.01651235352
4.65,0.001942659131,0.01639212873
4.66,0.0026238043,0.01624329598
4.67,0.003295654245,0.01606633726
4.68,0.003957055895,0.01586178288
4.69,0.004606885011,0.01563021001
4.7,0.00524404807,0.01537224116
4.71,0.005867484067,0.01508854256
4.72,0.006476166236,0.01477982252
4.73,0.007069103686,0.01444682968
4.74,0.007645342947,0.0140903512
4.75,0.008203969433,0.01371121092
4.76,0.008744108801,0.01331026745
4.77,0.009264928231,0.01288841219
4.78,0.009765637599,0.01244656736
4.79,0.01024549056,0.01198568397
4.8,0.01070378553,0.01150673968
4.81,0.01113986658,0.01101073677
4.82,0.0115531242,0.01049869999
4.83,0.01194299603,0.009971674376
4.84,0.01230896738,0.00943072314
4.85,0.01265057178,0.008876925452
4.86,0.01296739136,0.00831137428
4.87,0.0132590571,0.007735174198
4.88,0.01352524906,0.007149439208
4.89,0.01376569646,0.006555290563
4.9,0.01398017769,0.005953854607
4.91,0.01416852018,0.005346260623
4.92,0.01433060027,0.004733638711
4.93,0.01446634288,0.004117117678
4.94,0.01457572113,0.003497822966
4.95,0.01465875593,0.002876874604
4.96,0.01471551541,0.0022553852
4.97,0.01474611426,0.00163445797
4.98,0.01475071308,0.001015184806
4.99,0.01472951754,0.0003986443963
5,0.01468277753,-0.0002140996118
5.01,0.01461078624,-0.0008220003952
5.02,0.01451387914,-0.001424029684
5.03,0.01439243289,-0.002019179434
5.04,0.01424686422,-0.002606463439
5.05,0.01407762873,-0.003184918884
5.06,0.01388521961,-0.003753607828
5.07,0.01367016638,-0.00431161863
5.08,0.01343303344,-0.004858067301
5.09,0.01317441875,-0.005392098785
5.1,0.01289495234,-0.005912888178
5.11,0.01259529478,-0.006419641864
5.12,0.01227613571,-0.006911598588
5.13,0.01193819225,-0.007388030444
5.14,0.01158220738,-0.007848243801
5.15,0.01120894837,-0.00829158014
5.16,0.0108192051,-0.008717416828
5.17,0.0104137884,-0.009125167803
5.18,0.009993528398,-0.009514284194
5.19,0.009559272797,-0.009884254859
5.2,0.009111885203,-0.01023460684
5.21,0.008652243412,-0.01056490578
5.22,0.008181237702,-0.01087475618
5.23,0.00769976913,-0.01116380169
5.24,0.007208747836,-0.01143172526
5.25,0.006709091346,-0.0116782492
5.26,0.006201722893,-0.01190313523
5.27,0.005687569749,-0.01210618444
5.28,0.005167561572,-0.01228723714
5.29,0.004642628777,-0.01244617268
5.3,0.004113700924,-0.01258290921
5.31,0.003581705133,-0.01269740334
5.32,0.003047564523,-0.01278964978
5.33,0.002512196688,-0.01285968088
5.34,0.001976512195,-0.01290756614
5.35,0.001441413125,-0.01293341164
5.36,0.0009077916402,-0.01293735944
5.37,0.000376528599,-0.0129195869
5.38,-0.0001515077961,-0.01288030595
5.39,-0.0006754633071,-0.01281976237
5.4,-0.001194498926,-0.0127382349
5.41,-0.001707792094,-0.01263603445
5.42,-0.002214537883,-0.01251350319
5.43,-0.002713950116,-0.01237101356
5.44,-0.003205262453,-0.01220896735
5.45,-0.003687729422,-0.01202779466
5.46,-0.004160627399,-0.01182795286
5.47,-0.004623255536,-0.01160992553
5.48,-0.005074936648,-0.01137422132
5.49,-0.005515018031,-0.01112137289
5.5,-0.005942872244,-0.01085193567
5.51,-0.006357897827,-0.01056648678
5.52,-0.006759519974,-0.01026562378
5.53,-0.007147191146,-0.009949963485
5.54,-0.007520391634,-0.009620140762
5.55,-0.007878630074,-0.009276807278
5.56,-0.008221443897,-0.008920630271
5.57,-0.008548399741,-0.00855229131
5.58,-0.008859093799,-0.008172485039
5.59,-0.00915315212,-0.007781917929
5.6,-0.009430230861,-0.007381307022
5.61,-0.009690016482,-0.006971378682
5.62,-0.009932225897,-0.00655286735
5.63,-0.01015660657,-0.006126514295
5.64,-0.01036293658,-0.005693066387
5.65,-0.01055102459,-0.005253274864
5.66,-0.01072070984,-0.004807894121
5.67,-0.01087186204,-0.004357680503
5.68,-0.01100438122,-0.003903391119
5.69,-0.01111819759,-0.00344578267
5.7,-0.01121327127,-0.002985610285
5.71,-0.01128959206,-0.002523626389
5.72,-0.01134717914,-0.002060579582
5.73,-0.01138608069,-0.00159721354
5.74,-0.01140637354,-0.001134265941
5.75,-0.01140816273,-0.0006724674107
5.76,-0.01139158109,-0.000212540497
5.77,-0.01135678872,0.0002448013359
5.78,-0.01130397245,0.0006988546819
5.79,-0.01123334534,0.001148927143
5.8,-0.01114514605,0.001594338249
5.81,-0.01103963827,0.002034420351
5.82,-0.01091711003,0.002468519486
5.83,-0.01077787306,0.002895996204
5.84,-0.01062226209,0.003316226375
5.85,-0.01045063414,0.003728601955
5.86,-0.01026336778,0.004132531727
5.87,-0.01006086236,0.004527442007
5.88,-0.009843537241,0.004912777316
5.89,-0.009611831,0.00528800102
5.9,-0.009366200597,0.00565259594
5.91,-0.009107120558,0.006006064921
5.92,-0.008835082125,0.006347931375
5.93,-0.008550592399,0.006677739784
5.94,-0.008254173465,0.006995056173
5.95,-0.007946361514,0.007299468549
5.96,-0.007627705949,0.0075905873
5.97,-0.007298768484,0.007868045567
5.98,-0.006960122241,0.008131499577
5.99,-0.006612350833,0.008380628945
6,-0.006256047447,0.00861513694
