"Freq [GHz]","re(S(Tx_p1,Tx_p1)) []","im(S(Tx_p1,Tx_p1)) []"
1,-0.01740488131,-0.0567818993
1.01,-0.01954306137,-0.05601959668
1.02,-0.02165587126,-0.05517111729
1.03,-0.02373925734,-0.05423717978
1.04,-0.02578920219,-0.05321871557
1.05,-0.02780173514,-0.05211686548
1.06,-0.0297729427,-0.05093297595
1.07,-0.03169897858,-0.04966859484
1.08,-0.03357607354,-0.04832546678
1.09,-0.03540054495,-0.04690552814
1.1,-0.03716880603,-0.0454109016
1.11,-0.03887737475,-0.04384389028
1.12,-0.04052288244,-0.04220697158
1.13,-0.04210208206,-0.04050279062
1.14,-0.04361185601,-0.03873415331
1.15,-0.04504922374,-0.03690401916
1.16,-0.04641134877,-0.03501549377
1.17,-0.04769554546,-0.03307182096
1.18,-0.0488992853,-0.03107637474
1.19,-0.05002020279,-0.02903265094
1.2,-0.05105610089,-0.02694425869
1.21,-0.05200495602,-0.02481491157
1.22,-0.05286492264,-0.02264841874
1.23,-0.05363433731,-0.02044867574
1.24,-0.05431172235,-0.01821965525
1.25,-0.05489578904,-0.01596539769
1.26,-0.05538544027,-0.0136900017
1.27,-0.05577977282,-0.01139761457
1.28,-0.0560780791,-0.009092422629
1.29,-0.05627984842,-0.006778641526
1.3,-0.05638476781,-0.004460506584
1.31,-0.05639272237,-0.002142263111
1.32,-0.05630379512,0.0001718432385
1.33,-0.0561182664,0.002477576053
1.34,-0.05583661283,0.004770717673
1.35,-0.05545950581,0.007047078607
1.36,-0.0549878095,0.009302506827
1.37,-0.05442257848,0.01153289692
1.38,-0.05376505491,0.01373419911
1.39,-0.05301666524,0.01590242802
1.4,-0.05217901658,0.01803367137
1.41,-0.05125389263,0.02012409831
1.42,-0.05024324922,0.02216996762
1.43,-0.04914920949,0.02416763564
1.44,-0.04797405871,0.02611356389
1.45,-0.04672023877,0.02800432642
1.46,-0.04539034227,0.02983661693
1.47,-0.0439871064,0.03160725543
1.48,-0.04251340644,0.03331319477
1.49,-0.04097224903,0.03495152659
1.5,-0.03936676514,0.03651948717
1.51,-0.03770020284,0.03801446271
1.52,-0.0359759198,0.03943399434
1.53,-0.03419737563,0.04077578274
1.54,-0.03236812397,0.04203769238
1.55,-0.03049180451,0.04321775528
1.56,-0.02857213476,0.04431417449
1.57,-0.02661290175,0.04532532706
1.58,-0.02461795364,0.04624976667
1.59,-0.02259119118,0.04708622579
1.6,-0.02053655919,0.04783361746
1.61,-0.01845803791,0.04849103664
1.62,-0.0163596344,0.04905776115
1.63,-0.01424537385,0.04953325216
1.64,-0.01211929103,0.04991715431
1.65,-0.009985421651,0.0502092954
1.66,-0.007847793855,0.05040968566
1.67,-0.005710419758,0.05051851665
1.68,-0.00357728709,0.05053615972
1.69,-0.001452350954,0.05046316409
1.7,0.0006604742994,0.05030025458
1.71,0.002757323027,0.05004832896
1.72,0.004834386101,0.04970845487
1.73,0.006887918521,0.04928186645
1.74,0.008914246831,0.04876996063
1.75,0.01090977632,0.04817429303
1.76,0.01287099801,0.0474965736
1.77,0.01479449536,0.04673866191
1.78,0.01667695074,0.04590256217
1.79,0.01851515167,0.04499041793
1.8,0.02030599667,0.04400450661
1.81,0.02204650096,0.04294723363
1.82,0.02373380172,0.04182112644
1.83,0.02536516313,0.04062882827
1.84,0.02693798105,0.03937309169
1.85,0.02844978737,0.03805677194
1.86,0.02989825401,0.03668282019
1.87,0.03128119664,0.03525427653
1.88,0.03259657795,0.03377426293
1.89,0.03384251066,0.03224597601
1.9,0.03501726012,0.03067267974
1.91,0.03611924656,0.02905769804
1.92,0.03714704699,0.02740440739
1.93,0.03809939671,0.02571622925
1.94,0.03897519054,0.02399662261
1.95,0.03977348352,0.02224907642
1.96,0.04049349148,0.02047710206
1.97,0.04113459103,0.01868422588
1.98,0.04169631935,0.01687398167
1.99,0.04217837355,0.01504990335
2,0.04258060973,0.01321551753
2.01,0.04290304166,0.01137433637
2.02,0.04314583918,0.009529850407
2.03,0.04330932622,0.007685521534
2.04,0.04339397851,0.005844776155
2.05,0.04340042107,0.004010998447
2.06,0.04332942522,0.002187523808
2.07,0.04318190552,0.0003776324759
2.08,0.04295891624,-0.001415456654
2.09,0.04266164767,-0.00318859202
2.1,0.04229142217,-0.004938695157
2.11,0.0418496899,-0.006662766245
2.12,0.04133802441,-0.008357889417
2.13,0.04075811795,-0.01002123782
2.14,0.04011177661,-0.01165007841
2.15,0.03940091523,-0.01324177655
2.16,0.03862755218,-0.01479380019
2.17,0.03779380392,-0.01630372398
2.18,0.03690187949,-0.01776923289
2.19,0.03595407476,-0.0191881257
2.2,0.03495276664,-0.0205583181
2.21,0.03390040719,-0.02187784557
2.22,0.03279951756,-0.02314486587
2.23,0.03165268195,-0.02435766133
2.24,0.03046254145,-0.02551464076
2.25,0.02923178783,-0.02661434109
2.26,0.02796315738,-0.02765542873
2.27,0.02665942463,-0.02863670053
2.28,0.02532339612,-0.0295570846
2.29,0.02395790421,-0.03041564067
2.3,0.02256580086,-0.03121156028
2.31,0.02114995152,-0.03194416656
2.32,0.01971322897,-0.03261291387
2.33,0.0182585074,-0.03321738698
2.34,0.01678865638,-0.03375730015
2.35,0.01530653505,-0.03423249581
2.36,0.01381498641,-0.03464294304
2.37,0.01231683168,-0.03498873576
2.38,0.01081486481,-0.03527009071
2.39,0.009311847146,-0.03548734514
2.4,0.007810502264,-0.03564095432
2.41,0.006313510912,-0.03573148878
2.42,0.004823506171,-0.0357596314
2.43,0.003343068782,-0.03572617418
2.44,0.001874722661,-0.03563201499
2.45,0.000420930616,-0.03547815397
2.46,-0.00101590974,-0.03526568989
2.47,-0.002433469855,-0.03499581624
2.48,-0.003829493896,-0.03466981727
2.49,-0.005201802182,-0.03428906385
2.5,-0.006548294388,-0.03385500918
2.51,-0.007866952523,-0.03336918445
2.52,-0.00915584367,-0.03283319437
2.53,-0.01041312249,-0.03224871258
2.54,-0.01163703351,-0.03161747704
2.55,-0.01282591309,-0.03094128535
2.56,-0.01397819129,-0.03022198999
2.57,-0.01509239336,-0.02946149351
2.58,-0.01616714104,-0.0286617438
2.59,-0.01720115367,-0.02782472919
2.6,-0.01819324895,-0.02695247367
2.61,-0.0191423436,-0.02604703206
2.62,-0.02004745366,-0.02511048525
2.63,-0.02090769463,-0.02414493538
2.64,-0.02172228139,-0.02315250122
2.65,-0.02249052786,-0.0221353134
2.66,-0.02321184646,-0.02109550992
2.67,-0.02388574736,-0.02003523155
2.68,-0.02451183754,-0.01895661744
2.69,-0.02508981959,-0.01786180075
2.7,-0.02561949041,-0.01675290444
2.71,-0.02610073966,-0.01563203712
2.72,-0.02653354801,-0.01450128905
2.73,-0.02691798531,-0.01336272825
2.74,-0.02725420851,-0.01221839677
2.75,-0.02754245944,-0.01107030705
2.76,-0.02778306251,-0.009920438504
2.77,-0.0279764222,-0.008770734168
2.78,-0.02812302041,-0.007623097578
2.79,-0.02822341381,-0.006479389772
2.8,-0.0282782309,-0.00534142647
2.81,-0.02828816917,-0.004210975419
2.82,-0.02825399198,-0.00308975392
2.83,-0.02817652551,-0.001979426521
2.84,-0.02805665552,-0.0008816028953
2.85,-0.02789532418,0.0002021641045
2.86,-0.02769352669,0.001270380213
2.87,-0.02745230801,0.002321611332
2.88,-0.02717275947,0.003354484939
2.89,-0.02685601534,0.004367691303
2.9,-0.02650324949,0.005359984533
2.91,-0.02611567193,0.006330183439
2.92,-0.02569452542,0.007277172221
2.93,-0.02524108208,0.008199900987
2.94,-0.02475664004,0.009097386092
2.95,-0.02424252007,0.009968710317
2.96,-0.0237000623,0.01081302288
2.97,-0.02313062297,0.0116295393
2.98,-0.02253557124,0.01241754105
2.99,-0.02191628603,0.01317637518
3,-0.02127415298,0.01390545362
3.01,-0.02061056147,0.01460425254
3.02,-0.01992690168,0.01527231139
3.03,-0.01922456179,0.01590923195
3.04,-0.01850492526,0.01651467717
3.05,-0.01776936819,0.01708836995
3.06,-0.0170192568,0.01763009179
3.07,-0.01625594502,0.01813968131
3.08,-0.01548077218,0.01861703274
3.09,-0.01469506083,0.01906209425
3.1,-0.01390011465,0.01947486625
3.11,-0.01309721651,0.01985539957
3.12,-0.01228762666,0.02020379365
3.13,-0.01147258099,0.0205201946
3.14,-0.0106532895,0.02080479321
3.15,-0.009830934795,0.02105782298
3.16,-0.009006670827,0.02127955804
3.17,-0.008181621655,0.02147031109
3.18,-0.007356880398,0.02163043132
3.19,-0.006533508294,0.02176030224
3.2,-0.005712533887,0.02186033964
3.21,-0.00489495234,0.0219309894
3.22,-0.004081724868,0.02197272543
3.23,-0.003273778291,0.02198604755
3.24,-0.002472004711,0.0219714794
3.25,-0.001677261293,0.02192956641
3.26,-0.0008903701721,0.02186087378
3.27,-0.0001121184544,0.02176598446
3.28,0.0006567416681,0.02164549728
3.29,0.001415492705,0.02150002499
3.3,0.00216345156,0.02133019246
3.31,0.00289996913,0.0211366349
3.32,0.003624429818,0.02091999615
3.33,0.004336250965,0.02068092701
3.34,0.005034882203,0.02042008368
3.35,0.00571980474,0.02013812626
3.36,0.006390530577,0.01983571729
3.37,0.007046601662,0.01951352047
3.38,0.007687588995,0.0191721993
3.39,0.008313091681,0.01881241601
3.4,0.008922735935,0.01843483035
3.41,0.009516174062,0.01804009868
3.42,0.01009308339,0.01762887298
3.43,0.0106531652,0.01720180005
3.44,0.01119614359,0.01675952078
3.45,0.0117217644,0.01630266944
3.46,0.01222979404,0.01583187318
3.47,0.0127200184,0.0153477515
3.48,0.01319224171,0.01485091586
3.49,0.01364628539,0.01434196942
3.5,0.01408198701,0.01382150675
3.51,0.01449919913,0.01329011372
3.52,0.0148977883,0.01274836743
3.53,0.01527763399,0.01219683621
3.54,0.0156386276,0.0116360797
3.55,0.01598067149,0.011066649
3.56,0.01630367808,0.01048908693
3.57,0.01660756894,0.009903928236
3.58,0.01689227399,0.009311699986
3.59,0.01715773071,0.008712921947
3.6,0.01740388341,0.008108107026
3.61,0.01763068262,0.007497761769
3.62,0.01783808442,0.006882386888
3.63,0.01802604994,0.006262477836
3.64,0.01819454491,0.005638525406
3.65,0.01834353919,0.005011016364
3.66,0.0184730065,0.004380434102
3.67,0.01858292411,0.003747259307
3.68,0.01867327267,0.003111970646
3.69,0.01874403605,0.002475045457
3.7,0.01879520131,0.001836960443
3.71,0.01882675869,0.001198192362
3.72,0.0188387017,0.0005592187159
3.73,0.0188310273,-7.948158136E-05
3.74,0.01880373606,-0.0007174275465
3.75,0.01875683248,-0.001354135493
3.76,0.01869032534,-0.001989118424
3.77,0.01860422809,-0.002621885455
3.78,0.01849855932,-0.003251941272
3.79,0.01837334332,-0.003878785628
3.8,0.01822861062,-0.004501912888
3.81,0.01806439865,-0.00512081161
3.82,0.0178807524,-0.00573496419
3.83,0.01767772516,-0.006343846551
3.84,0.01745537929,-0.006946927895
3.85,0.01721378699,-0.007543670512
3.86,0.01695303119,-0.008133529655
3.87,0.01667320637,-0.008715953477
3.88,0.01637441946,-0.009290383041
3.89,0.01605679076,-0.009856252391
3.9,0.01572045485,-0.0104129887
3.91,0.01536556153,-0.01096001251
3.92,0.01499227675,-0.01149673797
3.93,0.01460078356,-0.01202257329
3.94,0.01419128305,-0.01253692108
3.95,0.01376399524,-0.01303917897
3.96,0.01331916005,-0.01352874013
3.97,0.01285703812,-0.01400499395
3.98,0.01237791174,-0.01446732681
3.99,0.01188208566,-0.01491512287
4,0.01136988788,-0.01534776495
4.01,0.01084167045,-0.01576463547
4.02,0.01029781014,-0.01616511751
4.03,0.009738709191,-0.01654859586
4.04,0.009164795841,-0.0169144582
4.05,0.008576524957,-0.01726209626
4.06,0.007974378508,-0.01759090713
4.07,0.007358866009,-0.01790029455
4.08,0.006730524886,-0.01818967029
4.09,0.006089920773,-0.01845845557
4.1,0.00543764773,-0.01870608251
4.11,0.004774328383,-0.01893199559
4.12,0.004100613984,-0.01913565325
4.13,0.003417184381,-0.01931652938
4.14,0.002724747909,-0.01947411494
4.15,0.002024041183,-0.01960791954
4.16,0.001315828805,-0.01971747304
4.17,0.0006009029809,-0.01980232724
4.18,-0.0001199169658,-0.0198620574
4.19,-0.0008457851646,-0.01989626397
4.2,-0.001575829871,-0.01990457412
4.21,-0.002309154234,-0.01988664343
4.22,-0.003044837158,-0.01984215739
4.23,-0.00378193426,-0.01977083302
4.24,-0.004519478928,-0.01967242039
4.25,-0.005256483464,-0.0195467041
4.26,-0.005991940327,-0.01939350477
4.27,-0.006724823469,-0.01921268042
4.28,-0.007454089749,-0.01900412785
4.29,-0.008178680453,-0.01876778392
4.3,-0.00889752288,-0.01850362682
4.31,-0.009609532024,-0.01821167723
4.32,-0.01031361233,-0.01789199941
4.33,-0.01100865952,-0.01754470226
4.34,-0.01169356252,-0.01716994021
4.35,-0.01236720539,-0.01676791413
4.36,-0.0130284694,-0.01633887204
4.37,-0.01367623511,-0.01588310986
4.38,-0.01430938454,-0.01540097188
4.39,-0.01492680334,-0.01489285134
4.4,-0.01552738305,-0.01435919071
4.41,-0.01611002343,-0.013800482
4.42,-0.0166736347,-0.01321726685
4.43,-0.01721713997,-0.01261013665
4.44,-0.01773947756,-0.01197973237
4.45,-0.01823960342,-0.0113267444
4.46,-0.01871649353,-0.01065191221
4.47,-0.01916914629,-0.009956023941
4.48,-0.01959658494,-0.009239915786
4.49,-0.01999785996,-0.00850447135
4.5,-0.02037205144,-0.007750620817
4.51,-0.02071827146,-0.006979340019
4.52,-0.02103566642,-0.006191649378
4.53,-0.02132341934,-0.005388612734
4.54,-0.02158075211,-0.004571336038
4.55,-0.02180692775,-0.003740965938
4.56,-0.02200125253,-0.002898688238
4.57,-0.02216307809,-0.002045726249
4.58,-0.02229180348,-0.001183339021
4.59,-0.02238687714,-0.0003128194637
4.6,-0.02244779877,0.0005645076343
4.61,-0.02247412118,0.001447287697
4.62,-0.02246545194,0.002334138551
4.63,-0.02242145507,0.00322365271
4.64,-0.02234185254,0.004114399755
4.65,-0.02222642569,0.005004928803
4.66,-0.02207501656,0.005893771051
4.67,-0.02188752906,0.006779442412
4.68,-0.02166393007,0.007660446206
4.69,-0.0214042504,0.008535275935
4.7,-0.02110858558,0.009402418109
4.71,-0.02077709664,0.01026035513
4.72,-0.02041001058,0.01110756821
4.73,-0.02000762088,0.01194254038
4.74,-0.01957028774,0.01276375948
4.75,-0.01909843826,0.01356972117
4.76,-0.01859256642,0.01435893206
4.77,-0.01805323298,0.01512991273
4.78,-0.01748106515,0.01588120083
4.79,-0.01687675618,0.01661135418
4.8,-0.01624106479,0.01731895386
4.81,-0.01557481442,0.01800260724
4.82,-0.01487889238,0.01866095105
4.83,-0.01415424877,0.01929265441
4.84,-0.0134018954,0.01989642179
4.85,-0.0126229044,0.02047099598
4.86,-0.01181840678,0.02101516094
4.87,-0.01098959083,0.02152774468
4.88,-0.01013770042,0.02200762199
4.89,-0.009264033043,0.02245371717
4.9,-0.008369937872,0.02286500664
4.91,-0.00745681359,0.02324052148
4.92,-0.006526106124,0.02357934987
4.93,-0.005579306262,0.02388063944
4.94,-0.004617947138,0.02414359952
4.95,-0.003643601614,0.02436750329
4.96,-0.00265787955,0.02455168975
4.97,-0.001662424966,0.02469556569
4.98,-0.0006589131172,0.02479860741
4.99,0.0003509525339,0.02486036238
5,0.001365443423,0.02488045075
5.01,0.002382809074,0.0248585667
5.02,0.003401280359,0.02479447971
5.03,0.004419072823,0.02468803556
5.04,0.005434390075,0.02453915732
5.05,0.006445427223,0.02434784606
5.06,0.007450374354,0.02411418151
5.07,0.008447420062,0.0238383225
5.08,0.009434754989,0.0235205072
5.09,0.0104105754,0.02316105332
5.1,0.01137308678,0.022760358
5.11,0.01232050741,0.02231889765
5.12,0.01325107195,0.02183722755
5.13,0.01416303507,0.02131598132
5.14,0.01505467496,0.02075587022
5.15,0.01592429688,0.02015768225
5.16,0.0167702367,0.01952228115
5.17,0.01759086433,0.01885060515
5.18,0.01838458714,0.01814366565
5.19,0.01914985335,0.01740254567
5.2,0.0198851553,0.01662839818
5.21,0.02058903265,0.01582244424
5.22,0.02126007559,0.01498597104
5.23,0.02189692785,0.01412032975
5.24,0.02249828968,0.01322693323
5.25,0.02306292069,0.01230725364
5.26,0.02358964267,0.01136281985
5.27,0.02407734216,0.01039521475
5.28,0.02452497304,0.009406072485
5.29,0.02493155888,0.008397075478
5.3,0.02529619525,0.007369951403
5.31,0.0256180518,0.006326470033
5.32,0.0258963743,0.005268439981
5.33,0.02613048647,0.004197705353
5.34,0.02631979163,0.003116142313
5.35,0.02646377431,0.002025655563
5.36,0.02656200156,0.0009281747489
5.37,0.02661412419,-0.0001743491922
5.38,0.02661987784,-0.001279947754
5.39,0.02657908379,-0.002386638625
5.4,0.02649164977,-0.003492429504
5.41,0.02635757038,-0.004595321943
5.42,0.02617692755,-0.005693315222
5.43,0.02594989065,-0.006784410241
5.44,0.02567671652,-0.007866613426
5.45,0.02535774933,-0.008937940632
5.46,0.02499342016,-0.009996421043
5.47,0.02458424653,-0.01104010106
5.48,0.02413083166,-0.01206704817
5.49,0.02363386362,-0.01307535475
5.5,0.02309411423,-0.01406314193
5.51,0.02251243789,-0.01502856325
5.52,0.02188977009,-0.01596980844
5.53,0.02122712595,-0.01688510697
5.54,0.0205255984,-0.01777273169
5.55,0.01978635633,-0.01863100224
5.56,0.01901064252,-0.01945828851
5.57,0.01819977142,-0.0202530139
5.58,0.01735512683,-0.02101365853
5.59,0.01647815936,-0.02173876236
5.6,0.0155703838,-0.02242692816
5.61,0.01463337635,-0.02307682435
5.62,0.01366877169,-0.02368718779
5.63,0.01267825997,-0.02425682634
5.64,0.01166358365,-0.02478462135
5.65,0.01062653425,-0.02526952998
5.66,0.009568948962,-0.02571058739
5.67,0.00849270722,-0.02610690874
5.68,0.007399727128,-0.02645769107
5.69,0.006291961831,-0.02676221503
5.7,0.005171395803,-0.02701984638
5.71,0.004040041066,-0.02723003739
5.72,0.002899933356,-0.02739232806
5.73,0.001753128227,-0.0275063471
5.74,0.0006016971153,-0.02757181283
5.75,-0.0005522766294,-0.02758853383
5.76,-0.001706701747,-0.02755640947
5.77,-0.002859483088,-0.02747543017
5.78,-0.004008525642,-0.02734567759
5.79,-0.005151738575,-0.02716732455
5.8,-0.006287039261,-0.02694063482
5.81,-0.007412357295,-0.0266659627
5.82,-0.008525638491,-0.02634375246
5.83,-0.009624848849,-0.02597453751
5.84,-0.01070797848,-0.02555893952
5.85,-0.01177304549,-0.02509766728
5.86,-0.0128180998,-0.02459151538
5.87,-0.01384122692,-0.02404136278
5.88,-0.01484055167,-0.02344817117
5.89,-0.01581424175,-0.02281298315
5.9,-0.0167605113,-0.02213692031
5.91,-0.01767762437,-0.02142118111
5.92,-0.01856389822,-0.02066703857
5.93,-0.01941770661,-0.01987583795
5.94,-0.02023748287,-0.01904899409
5.95,-0.02102172298,-0.01818798882
5.96,-0.02176898841,-0.01729436805
5.97,-0.02247790889,-0.0163697389
5.98,-0.02314718504,-0.01541576657
5.99,-0.02377559086,-0.01443417121
6,-0.02436197603,-0.01342672459
