"Freq [GHz]","re(S(Tx_p1,Tx_p1)) []","im(S(Tx_p1,Tx_p1)) []"
1,-0.01063868087,-0.01251118075
1.01,-0.01114906554,-0.01201594875
1.02,-0.01163731025,-0.01149822871
1.03,-0.01210229416,-0.01095905965
1.04,-0.01254295332,-0.01039953993
1.05,-0.01295828359,-0.009820823646
1.06,-0.01334734332,-0.009224117031
1.07,-0.01370925582,-0.008610674693
1.08,-0.01404321162,-0.007981795767
1.09,-0.01434847049,-0.007338819988
1.1,-0.01462436324,-0.006683123696
1.11,-0.01487029332,-0.006016115774
1.12,-0.01508573813,-0.00533923354
1.13,-0.01527025017,-0.004653938612
1.14,-0.01542345794,-0.003961712738
1.15,-0.01554506657,-0.003264053625
1.16,-0.01563485826,-0.002562470757
1.17,-0.01569269254,-0.001858481235
1.18,-0.01571850619,-0.001153605636
1.19,-0.01571231306,-0.0004493639084
1.2,-0.01567420362,0.0002527286924
1.21,-0.01560434427,0.0009511656028
1.22,-0.01550297652,0.00164445289
1.23,-0.01537041593,0.002331113112
1.24,-0.01520705079,0.003009689087
1.25,-0.01501334077,0.003678747574
1.26,-0.01478981521,0.004336882842
1.27,-0.01453707136,0.004982720124
1.28,-0.0142557724,0.005614918958
1.29,-0.01394664532,0.006232176389
1.3,-0.01361047862,0.006833230038
1.31,-0.01324811993,0.007416861031
1.32,-0.01286047339,0.00798189677
1.33,-0.01244849702,0.008527213559
1.34,-0.01201319994,0.00905173906
1.35,-0.0115556394,0.009554454597
1.36,-0.01107691785,0.01003439727
1.37,-0.01057817983,0.01049066194
1.38,-0.0100606088,0.01092240296
1.39,-0.009525423952,0.01132883583
1.4,-0.008973876876,0.01170923859
1.41,-0.008407248273,0.01206295309
1.42,-0.007826844567,0.012389386
1.43,-0.007233994518,0.01268800977
1.44,-0.00663004581,0.01295836326
1.45,-0.006016361633,0.01320005232
1.46,-0.005394317263,0.01341275008
1.47,-0.004765296659,0.01359619716
1.48,-0.004130689073,0.01375020163
1.49,-0.003491885696,0.01387463885
1.5,-0.002850276332,0.01396945113
1.51,-0.002207246128,0.01403464719
1.52,-0.001564172351,0.01407030149
1.53,-0.0009224212249,0.01407655345
1.54,-0.0002833448432,0.0140536064
1.55,0.0003517218485,0.0140017265
1.56,0.0009814639855,0.01392124146
1.57,0.001604589628,0.01381253912
1.58,0.00221983251,0.01367606596
1.59,0.00282595469,0.01351232539
1.6,0.003421749092,0.01332187603
1.61,0.004006041939,0.01310532979
1.62,0.004577695072,0.01286334991
1.63,0.005135608151,0.01259664887
1.64,0.005678720729,0.01230598622
1.65,0.006206014204,0.01199216632
1.66,0.006716513645,0.01165603604
1.67,0.007209289483,0.01129848233
1.68,0.007683459074,0.01092042982
1.69,0.008138188124,0.01052283823
1.7,0.008572691979,0.01010669991
1.71,0.008986236787,0.00967303719
1.72,0.009378140513,0.009222899771
1.73,0.009747773826,0.008757362095
1.74,0.01009456085,0.00827752067
1.75,0.01041797976,0.0077844914
1.76,0.0107175633,0.007279406913
1.77,0.0109928991,0.006763413888
1.78,0.0112436299,0.006237670391
1.79,0.01146945364,0.005703343232
1.8,0.01167012343,0.005161605341
1.81,0.01184544738,0.004613633172
1.82,0.01199528834,0.004060604139
1.83,0.01211956349,0.003503694096
1.84,0.0122182438,0.002944074857
1.85,0.01229135347,0.002382911767
1.86,0.01233896914,0.001821361326
1.87,0.01236121911,0.001260568869
1.88,0.01235828238,0.0007016663153
1.89,0.01233038762,0.0001457699741
1.9,0.01227781209,-0.0004060215709
1.91,0.01220088041,-0.0009526295099
1.92,0.0120999633,-0.001492996777
1.93,0.0119754762,-0.002026089941
1.94,0.01182787789,-0.002550901016
1.95,0.01165766893,-0.003066449188
1.96,0.01146539014,-0.003571782456
1.97,0.01125162102,-0.004065979183
1.98,0.011016978,-0.004548149565
1.99,0.0107621128,-0.005017437005
2,0.01048771066,-0.005473019396
2.01,0.01019448849,-0.005914110316
2.02,0.00988319314,-0.006339960127
2.03,0.00955459944,-0.006749856986
2.04,0.009209508389,-0.007143127765
2.05,0.008848745226,-0.007519138868
2.06,0.008473157516,-0.007877296975
2.07,0.008083613219,-0.008217049679
2.08,0.007680998761,-0.00853788604
2.09,0.007266217086,-0.008839337052
2.1,0.006840185722,-0.009120976018
2.11,0.006403834846,-0.009382418839
2.12,0.005958105357,-0.009623324219
2.13,0.005503946959,-0.00984339379
2.14,0.005042316263,-0.01004237215
2.15,0.004574174904,-0.01022004681
2.16,0.004100487677,-0.0103762481
2.17,0.003622220705,-0.01051084896
2.18,0.003140339622,-0.01062376466
2.19,0.002655807798,-0.0107149525
2.2,0.002169584583,-0.01078441133
2.21,0.001682623595,-0.01083218115
2.22,0.001195871043,-0.01085834251
2.23,0.0007102640823,-0.01086301594
2.24,0.0002267292143,-0.01084636126
2.25,-0.0002538192694,-0.01080857689
2.26,-0.0007304808037,-0.01074989901
2.27,-0.001202370019,-0.01067060079
2.28,-0.001668618167,-0.01057099149
2.29,-0.00212837449,-0.0104514155
2.3,-0.002580807555,-0.01031225142
2.31,-0.003025106526,-0.01015391097
2.32,-0.003460482391,-0.009976837992
2.33,-0.003886169134,-0.009781507309
2.34,-0.00430142486,-0.009568423614
2.35,-0.004705532864,-0.009338120286
2.36,-0.005097802644,-0.009091158195
2.37,-0.005477570861,-0.008828124469
2.38,-0.005844202253,-0.008549631237
2.39,-0.006197090478,-0.008256314344
2.4,-0.006535658919,-0.007948832046
2.41,-0.006859361423,-0.007627863681
2.42,-0.007167682988,-0.007294108326
2.43,-0.007460140397,-0.00694828343
2.44,-0.007736282791,-0.006591123439
2.45,-0.007995692195,-0.006223378404
2.46,-0.008237983982,-0.005845812577
2.47,-0.008462807283,-0.005459203002
2.48,-0.008669845345,-0.005064338097
2.49,-0.008858815833,-0.004662016225
2.5,-0.009029471074,-0.004253044271
2.51,-0.009181598255,-0.003838236206
2.52,-0.009315019555,-0.00341841166
2.53,-0.009429592237,-0.002994394492
2.54,-0.009525208675,-0.002567011358
2.55,-0.009601796332,-0.002137090296
2.56,-0.009659317689,-0.001705459302
2.57,-0.009697770118,-0.001272944928
2.58,-0.0097171857,-0.0008403708769
2.59,-0.009717630998,-0.0004085566189
2.6,-0.009699206776,2.16839883E-05
2.61,-0.009662047666,0.000449544059
2.62,-0.009606321786,0.0008742250267
2.63,-0.009532230311,0.001294937973
2.64,-0.009440006989,0.001710904938
2.65,-0.009329917615,0.002121360208
2.66,-0.009202259455,0.00252555159
2.67,-0.00905736062,0.002922741646
2.68,-0.008895579397,0.003312208923
2.69,-0.008717303535,0.003693249139
2.7,-0.00852294948,0.004065176349
2.71,-0.008312961575,0.004427324081
2.72,-0.008087811211,0.004779046441
2.73,-0.007847995933,0.005119719181
2.74,-0.007594038516,0.005448740735
2.75,-0.007326485985,0.005765533221
2.76,-0.007045908611,0.006069543405
2.77,-0.00675289886,0.006360243622
2.78,-0.006448070305,0.006637132657
2.79,-0.006132056509,0.006899736592
2.8,-0.005805509868,0.007147609598
2.81,-0.005469100426,0.00738033469
2.82,-0.00512351465,0.00759752443
2.83,-0.004769454191,0.007798821586
2.84,-0.004407634598,0.007983899741
2.85,-0.004038784025,0.008152463849
2.86,-0.003663641897,0.008304250742
2.87,-0.003282957564,0.008439029581
2.88,-0.002897488931,0.008556602256
2.89,-0.00250800107,0.008656803726
2.9,-0.002115264814,0.008739502307
2.91,-0.001720055341,0.008804599901
2.92,-0.001323150737,0.008852032163
2.93,-0.0009253305635,0.008881768617
2.94,-0.0005273744021,0.008893812698
2.95,-0.0001300604061,0.008888201753
2.96,0.0002658361565,0.008865006959
2.97,0.0006595443578,0.008824333199
2.98,0.001050299062,0.008766318859
2.99,0.001437342375,0.008691135578
3,0.001819925078,0.008598987921
3.01,0.002197308061,0.008490113003
3.02,0.002568763734,0.008364780041
3.03,0.002933577429,0.008223289846
3.04,0.003291048773,0.008065974258
3.05,0.00364049305,0.007893195514
3.06,0.003981242533,0.007705345558
3.07,0.004312647786,0.007502845293
3.08,0.004634078941,0.007286143767
3.09,0.004944926938,0.007055717311
3.1,0.00524460473,0.006812068616
3.11,0.00553254845,0.006555725748
3.12,0.005808218537,0.006287241122
3.13,0.006071100814,0.006007190414
3.14,0.006320707527,0.005716171428
3.15,0.006556578328,0.005414802907
3.16,0.006778281206,0.00510372331
3.17,0.006985413373,0.004783589534
3.18,0.007177602083,0.004455075595
3.19,0.007354505398,0.004118871275
3.2,0.007515812893,0.003775680731
3.21,0.007661246301,0.003426221061
3.22,0.007790560084,0.003071220852
3.23,0.007903541951,0.002711418688
3.24,0.0080000133,0.002347561639
3.25,0.008079829593,0.001980403722
3.26,0.00814288066,0.001610704354
3.27,0.008189090933,0.00123922677
3.28,0.008218419606,0.0008667364499
3.29,0.008230860721,0.0004939995176
3.3,0.008226443184,0.0001217811474
3.31,0.008205230701,-0.0002491560388
3.32,0.008167321642,-0.0006180535706
3.33,0.008112848829,-0.0009841587235
3.34,0.008041979251,-0.001346726105
3.35,0.007954913703,-0.001705019227
3.36,0.00785188635,-0.002058312067
3.37,0.007733164217,-0.0024058906
3.38,0.007599046607,-0.002747054319
3.39,0.007449864449,-0.003081117722
3.4,0.007285979572,-0.003407411768
3.41,0.007107783911,-0.003725285302
3.42,0.006915698643,-0.004034106441
3.43,0.006710173262,-0.004333263924
3.44,0.006491684583,-0.004622168405
3.45,0.006260735692,-0.004900253718
3.46,0.006017854825,-0.005166978074
3.47,0.005763594201,-0.005421825215
3.48,0.005498528791,-0.005664305508
3.49,0.005223255042,-0.00589395698
3.5,0.004938389544,-0.006110346292
3.51,0.004644567659,-0.006313069649
3.52,0.004342442096,-0.006501753645
3.53,0.00403268146,-0.006676056033
3.54,0.003715968753,-0.00683566643
3.55,0.003392999844,-0.006980306951
3.56,0.003064481916,-0.007109732761
3.57,0.002731131878,-0.00722373256
3.58,0.002393674762,-0.007322128982
3.59,0.002052842101,-0.007404778927
3.6,0.001709370287,-0.0074715738
3.61,0.001363998927,-0.007522439684
3.62,0.001017469186,-0.007557337421
3.63,0.0006705221329,-0.007576262623
3.64,0.0003238970827,-0.007579245594
3.65,-2.167004955E-05,-0.007566351173
3.66,-0.0003654483891,-0.007537678504
3.67,-0.0007067137265,-0.007493360715
3.68,-0.001044750125,-0.007433564527
3.69,-0.001378851505,-0.007358489782
3.7,-0.001708323204,-0.007268368892
3.71,-0.00203248351,-0.007163466217
3.72,-0.002350665152,-0.007044077368
3.73,-0.002662216763,-0.006910528435
3.74,-0.0029665043,-0.006763175146
3.75,-0.003262912419,-0.006602401964
3.76,-0.0035508458,-0.006428621108
3.77,-0.003829730423,-0.006242271523
3.78,-0.004099014798,-0.006043817776
3.79,-0.004358171123,-0.005833748906
3.8,-0.004606696395,-0.005612577216
3.81,-0.004844113454,-0.005380837009
3.82,-0.005069971962,-0.005139083282
3.83,-0.005283849317,-0.004887890372
3.84,-0.005485351496,-0.004627850561
3.85,-0.005674113825,-0.004359572643
3.86,-0.005849801685,-0.004083680458
3.87,-0.006012111131,-0.003800811397
3.88,-0.006160769447,-0.003511614875
3.89,-0.006295535615,-0.003216750788
3.9,-0.006416200711,-0.002916887947
3.91,-0.006522588224,-0.002612702503
3.92,-0.006614554292,-0.002304876352
3.93,-0.006691987858,-0.001994095544
3.94,-0.006754810754,-0.001681048682
3.95,-0.006802977696,-0.001366425326
3.96,-0.006836476207,-0.001050914404
3.97,-0.006855326459,-0.0007352026291
3.98,-0.006859581037,-0.0004199729313
3.99,-0.006849324629,-0.0001059029089
4,-0.006824673635,0.000206336701
4.01,-0.00678577571,0.0005160835259
4.02,-0.006732809226,0.0008226850327
4.03,-0.006665982667,0.00112549997
4.04,-0.006585533958,0.001423899776
4.05,-0.006491729721,0.001717269943
4.06,-0.006384864472,0.002005011344
4.07,-0.006265259753,0.002286541513
4.08,-0.006133263202,0.002561295873
4.09,-0.005989247575,0.002828728917
4.1,-0.005833609701,0.003088315335
4.11,-0.005666769399,0.003339551077
4.12,-0.005489168339,0.003581954368
4.13,-0.005301268861,0.003815066655
4.14,-0.005103552753,0.004038453491
4.15,-0.004896519989,0.004251705359
4.16,-0.004680687436,0.004454438422
4.17,-0.004456587527,0.004646295214
4.18,-0.004224766909,0.004826945252
4.19,-0.003985785066,0.004996085588
4.2,-0.003740212923,0.00515344128
4.21,-0.003488631433,0.005298765803
4.22,-0.003231630153,0.005431841372
4.23,-0.002969805809,0.005552479212
4.24,-0.002703760858,0.005660519736
4.25,-0.002434102051,0.005755832669
4.26,-0.00216143899,0.005838317084
4.27,-0.001886382702,0.005907901379
4.28,-0.001609544215,0.005964543178
4.29,-0.001331533151,0.006008229158
4.3,-0.001052956332,0.00603897482
4.31,-0.0007744164121,0.006056824178
4.32,-0.0004965105266,0.006061849393
4.33,-0.0002198289717,0.006054150337
4.34,5.504608751E-05,0.006033854096
4.35,0.0003275418762,0.006001114414
4.36,0.0005970962332,0.005956111075
4.37,0.0008631587965,0.005899049231
4.38,0.001125192147,0.005830158678
4.39,0.001382672912,0.005749693075
4.4,0.001635092814,0.005657929118
4.41,0.001881959688,0.005555165664
4.42,0.002122798428,0.00544172282
4.43,0.002357151903,0.005317940979
4.44,0.002584581803,0.005184179827
4.45,0.002804669435,0.005040817311
4.46,0.003017016472,0.004888248577
4.47,0.003221245626,0.004726884881
4.48,0.003417001284,0.004557152467
4.49,0.003603950062,0.004379491433
4.5,0.00378178132,0.00419435457
4.51,0.003950207601,0.004002206184
4.52,0.004108965018,0.003803520916
4.53,0.004257813575,0.003598782538
4.54,0.004396537429,0.003388482752
4.55,0.004524945092,0.003173119982
4.56,0.004642869569,0.002953198167
4.57,0.004750168441,0.002729225557
4.58,0.004846723884,0.00250171351
4.59,0.004932442628,0.002271175309
4.6,0.005007255869,0.002038124975
4.61,0.005071119108,0.00180307611
4.62,0.005124011951,0.001566540743
4.63,0.00516593784,0.001329028209
4.64,0.005196923747,0.00109104404
4.65,0.005217019799,0.0008530888866
4.66,0.005226298873,0.0006156574626
4.67,0.005224856128,0.0003792375227
4.68,0.0052128085,0.0001443088697
4.69,0.005190294149,-8.865760529E-05
4.7,0.005157471871,-0.0003192008467
4.71,0.005114520462,-0.0005468705214
4.72,0.005061638052,-0.0007712278673
4.73,0.0049990414,-0.0009918465019
4.74,0.004926965159,-0.001208313189
4.75,0.004845661112,-0.001420228565
4.76,0.004755397377,-0.001627207817
4.77,0.004656457588,-0.001828881322
4.78,0.004549140055,-0.002024895235
4.79,0.004433756905,-0.002214912038
4.8,0.0043106332,-0.002398611036
4.81,0.004180106043,-0.00257568881
4.82,0.004042523675,-0.002745859621
4.83,0.003898244556,-0.002908855766
4.84,0.003747636439,-0.003064427895
4.85,0.003591075443,-0.003212345265
4.86,0.003428945118,-0.003352395964
4.87,0.003261635514,-0.003484387078
4.88,0.003089542248,-0.003608144815
4.89,0.002913065575,-0.003723514586
4.9,0.002732609467,-0.003830361039
4.91,0.002548580701,-0.003928568048
4.92,0.002361387955,-0.004018038664
4.93,0.002171440913,-0.004098695019
4.94,0.001979149396,-0.004170478194
4.95,0.001784922491,-0.004233348043
4.96,0.001589167718,-0.004287282982
4.97,0.001392290194,-0.00433227974
4.98,0.001194691841,-0.004368353075
4.99,0.0009967705952,-0.004395535457
5,0.0007989196552,-0.004413876713
5.01,0.0006015267462,-0.004423443651
5.02,0.0004049734139,-0.004424319643
5.03,0.0002096343445,-0.004416604193
5.04,1.587671252E-05,-0.004400412466
5.05,-0.0001759404421,-0.004375874802
5.06,-0.0003654668075,-0.004343136204
5.07,-0.0005523613629,-0.004302355805
5.08,-0.0007362929111,-0.004253706318
5.09,-0.0009169405794,-0.004197373463
5.1,-0.001093994289,-0.004133555386
5.11,-0.001267155192,-0.004062462057
5.12,-0.001436136077,-0.003984314663
5.13,-0.00160066174,-0.00389934498
5.14,-0.00176046933,-0.003807794749
5.15,-0.00191530865,-0.003709915034
5.16,-0.002064942439,-0.003605965576
5.17,-0.002209146615,-0.003496214152
5.18,-0.002347710487,-0.00338093592
5.19,-0.002480436935,-0.003260412765
5.2,-0.002607142567,-0.003134932653
5.21,-0.002727657832,-0.00300478898
5.22,-0.002841827115,-0.002870279922
5.23,-0.002949508801,-0.002731707797
5.24,-0.003050575303,-0.002589378427
5.25,-0.003144913072,-0.002443600507
5.26,-0.003232422576,-0.002294684982
5.27,-0.003313018248,-0.00214294444
5.28,-0.003386628421,-0.001988692502
5.29,-0.003453195223,-0.001832243232
5.3,-0.003512674462,-0.001673910559
5.31,-0.003565035482,-0.001514007705
5.32,-0.003610260995,-0.001352846633
5.33,-0.003648346897,-0.001190737508
5.34,-0.003679302066,-0.001027988166
5.35,-0.00370314813,-0.0008649036076
5.36,-0.003719919234,-0.0007017855031
5.37,-0.003729661771,-0.0005389317115
5.38,-0.003732434116,-0.0003766358202
5.39,-0.003728306331,-0.0002151866993
5.4,-0.003717359859,-5.486807421E-05
5.41,-0.003699687215,0.0001040418847
5.42,-0.003675391648,0.0002612709547
5.43,-0.003644586806,0.0004165532352
5.44,-0.003607396383,0.0005696295041
5.45,-0.00356395376,0.000720247557
5.46,-0.003514401637,0.000868162527
5.47,-0.003458891654,0.001013137187
5.48,-0.003397584012,0.001154942236
5.49,-0.003330647081,0.001293356562
5.5,-0.003258257004,0.001428167493
5.51,-0.003180597301,0.001559171027
5.52,-0.003097858467,0.001686172049
5.53,-0.00301023756,0.001808984519
5.54,-0.002917937799,0.001927431658
5.55,-0.00282116815,0.002041346107
5.56,-0.002720142912,0.002150570073
5.57,-0.00261508131,0.002254955457
5.58,-0.002506207077,0.002354363968
5.59,-0.002393748046,0.002448667217
5.6,-0.002277935734,0.0025377468
5.61,-0.002159004935,0.002621494366
5.62,-0.00203719331,0.002699811663
5.63,-0.001912740981,0.002772610575
5.64,-0.001785890127,0.002839813149
5.65,-0.001656884583,0.002901351595
5.66,-0.001525969444,0.002957168283
5.67,-0.001393390667,0.003007215722
5.68,-0.001259394687,0.003051456529
5.69,-0.001124228025,0.003089863379
5.7,-0.0009881369107,0.003122418948
5.71,-0.0008513669052,0.00314911584
5.72,-0.0007141625296,0.003169956507
5.73,-0.0005767668986,0.003184953145
5.74,-0.0004394213608,0.003194127596
5.75,-0.0003023651436,0.003197511223
5.76,-0.000165835005,0.003195144781
5.77,-3.006489126E-05,0.003187078277
5.78,0.0001047143987,0.003173370816
5.79,0.0002382755422,0.00315409044
5.8,0.0003703950152,0.003129313956
5.81,0.0005008534067,0.003099126749
5.82,0.0006294357261,0.003063622593
5.83,0.0007559317035,0.003022903447
5.84,0.000880136081,0.002977079243
5.85,0.001001848897,0.002926267664
5.86,0.001120875762,0.002870593913
5.87,0.001237028124,0.002810190474
5.88,0.001350123528,0.002745196864
5.89,0.001459985867,0.002675759379
5.9,0.001566445618,0.002602030821
5.91,0.001669340073,0.002524170236
5.92,0.001768513563,0.002442342624
5.93,0.001863817665,0.002356718654
5.94,0.001955111403,0.002267474372
5.95,0.002042261437,0.002174790893
5.96,0.002125142244,0.002078854093
5.97,0.002203636282,0.001979854296
5.98,0.00227763415,0.001877985948
5.99,0.002347034726,0.001773447293
6,0.002411745309,0.001666440035
