"Freq [GHz]","re(S(Tx_p1,Tx_p1)) []","im(S(Tx_p1,Tx_p1)) []"
1,-0.005174716033,-0.03996311755
1.01,-0.006451890363,-0.0396857131
1.02,-0.007720524998,-0.03936887614
1.03,-0.008979256406,-0.03901285304
1.04,-0.01022674939,-0.03861794369
1.05,-0.01146169831,-0.03818449778
1.06,-0.01268282794,-0.03771291131
1.07,-0.01388889418,-0.03720362311
1.08,-0.01507868428,-0.03665711156
1.09,-0.01625101706,-0.03607389146
1.1,-0.0174047427,-0.03545451106
1.11,-0.01853874243,-0.03479954923
1.12,-0.01965192796,-0.03410961291
1.13,-0.02074324078,-0.03338533468
1.14,-0.02181165128,-0.03262737054
1.15,-0.02285615775,-0.03183639797
1.16,-0.02387578523,-0.03101311414
1.17,-0.02486958434,-0.03015823436
1.18,-0.02583662993,-0.02927249081
1.19,-0.02677601981,-0.02835663142
1.2,-0.02768687333,-0.02741141899
1.21,-0.02856833003,-0.02643763061
1.22,-0.02941954823,-0.02543605718
1.23,-0.03023970377,-0.02440750325
1.24,-0.03102798865,-0.023352787
1.25,-0.03178360983,-0.02227274046
1.26,-0.03250578812,-0.0211682099
1.27,-0.03319375713,-0.0200400564
1.28,-0.03384676233,-0.01888915658
1.29,-0.03446406033,-0.01771640356
1.3,-0.03504491819,-0.01652270792
1.31,-0.03558861298,-0.01530899894
1.32,-0.03609443147,-0.01407622582
1.33,-0.03656167002,-0.01282535909
1.34,-0.0369896346,-0.01155739207
1.35,-0.03737764113,-0.01027334235
1.36,-0.0377250159,-0.008974253341
1.37,-0.03803109627,-0.007661195877
1.38,-0.03829523153,-0.006335269765
1.39,-0.03851678405,-0.004997605355
1.4,-0.03869513054,-0.003649365058
1.41,-0.0388296636,-0.002291744815
1.42,-0.03891979345,-0.0009259754929
1.43,-0.03896494987,0.0004466758209
1.44,-0.0389645843,0.001824904627
1.45,-0.03891817219,0.003207367957
1.46,-0.0388252155,0.004592683467
1.47,-0.03868524533,0.005979428687
1.48,-0.03849782479,0.007366140462
1.49,-0.03826255197,0.008751314579
1.5,-0.03797906302,0.01013340561
1.51,-0.03764703538,0.01151082699
1.52,-0.03726619111,0.0128819513
1.53,-0.0368363003,0.01424511081
1.54,-0.03635718449,0.01559859831
1.55,-0.03582872027,0.01694066818
1.56,-0.03525084272,0.0182695377
1.57,-0.03462354904,0.01958338868
1.58,-0.03394690202,0.02088036938
1.59,-0.03322103358,0.0221585967
1.6,-0.03244614817,0.0234161586
1.61,-0.03162252614,0.0246511169
1.62,-0.03075052704,0.02586151032
1.63,-0.02983059268,0.02704535778
1.64,-0.02886325019,0.02820066197
1.65,-0.02784911479,0.02932541327
1.66,-0.02678889248,0.0304175938
1.67,-0.02568338247,0.03147518184
1.68,-0.02453347935,0.03249615639
1.69,-0.02334017511,0.03347850204
1.7,-0.02210456082,0.03442021398
1.71,-0.02082782803,0.03531930325
1.72,-0.01951126993,0.03617380215
1.73,-0.01815628218,0.03698176982
1.74,-0.01676436334,0.03774129795
1.75,-0.01533711509,0.03845051663
1.76,-0.01387624197,0.03910760028
1.77,-0.01238355086,0.03971077365
1.78,-0.01086095005,0.04025831794
1.79,-0.009310447916,0.04074857685
1.8,-0.007734151244,0.04117996272
1.81,-0.00613426316,0.04155096262
1.82,-0.004513080663,0.04186014441
1.83,-0.002872991783,0.04210616269
1.84,-0.001216472334,0.04228776476
1.85,0.0004539177024,0.04240379629
1.86,0.002135538185,0.04245320706
1.87,0.003825673193,0.04243505634
1.88,0.005521535771,0.04234851818
1.89,0.00722027304,0.04219288648
1.9,0.008918971642,0.04196757974
1.91,0.01061466354,0.04167214565
1.92,0.01230433209,0.04130626529
1.93,0.01398491852,0.04086975711
1.94,0.01565332856,0.0403625805
1.95,0.01730643944,0.03978483903
1.96,0.0189411071,0.03913678339
1.97,0.02055417365,0.0384188138
1.98,0.02214247498,0.03763148216
1.99,0.02370284862,0.03677549369
2,0.02523214173,0.03585170813
2.01,0.02672721919,0.0348611406
2.02,0.02818497182,0.03380496187
2.03,0.02960232471,0.03268449824
2.04,0.03097624555,0.03150123096
2.05,0.03230375299,0.03025679511
2.06,0.033581925,0.02895297806
2.07,0.03480790724,0.02759171743
2.08,0.03597892124,0.02617509855
2.09,0.03709227267,0.02470535147
2.1,0.03814535927,0.02318484744
2.11,0.03913567884,0.02161609501
2.12,0.04006083689,0.02000173557
2.13,0.04091855416,0.01834453852
2.14,0.04170667387,0.0166473959
2.15,0.04242316874,0.01491331669
2.16,0.04306614769,0.01314542063
2.17,0.04363386222,0.01134693166
2.18,0.04412471246,0.009521170973
2.19,0.04453725288,0.007671549715
2.2,0.04487019759,0.00580156132
2.21,0.0451224252,0.003914773544
2.22,0.04529298331,0.002014820191
2.23,0.04538109253,0.0001053925694
2.24,0.04538615005,-0.001809769302
2.25,0.04530773269,-0.003726885707
2.26,0.0451455995,-0.005642146441
2.27,0.04489969387,-0.007551720182
2.28,0.04457014504,-0.009451764001
2.29,0.04415726923,-0.01133843298
2.3,0.04366157009,-0.01320788988
2.31,0.04308373872,-0.01505631493
2.32,0.04242465312,-0.01687991551
2.33,0.04168537707,-0.01867493594
2.34,0.04086715854,-0.02043766711
2.35,0.03997142751,-0.02216445615
2.36,0.03899979326,-0.02385171587
2.37,0.0379540412,-0.02549593413
2.38,0.0368361291,-0.02709368303
2.39,0.03564818286,-0.0286416279
2.4,0.03439249179,-0.030136536
2.41,0.0330715034,-0.03157528507
2.42,0.03168781769,-0.03295487151
2.43,0.03024418108,-0.03427241826
2.44,0.02874347982,-0.03552518238
2.45,0.02718873303,-0.03671056223
2.46,0.02558308535,-0.03782610427
2.47,0.02392979923,-0.03886950945
2.48,0.02223224687,-0.03983863921
2.49,0.02049390183,-0.04073152099
2.5,0.01871833036,-0.04154635327
2.51,0.0169091825,-0.04228151017
2.52,0.01507018288,-0.04293554552
2.53,0.01320512136,-0.04350719647
2.54,0.01131784349,-0.0439953865
2.55,0.009412240807,-0.044399228
2.56,0.007492240995,-0.04471802425
2.57,0.005561798029,-0.04495127087
2.58,0.003624882193,-0.04509865676
2.59,0.001685470107,-0.0451600645
2.6,-0.0002524652402,-0.04513557012
2.61,-0.002184964429,-0.04502544246
2.62,-0.004108091468,-0.04483014186
2.63,-0.006017943563,-0.04455031844
2.64,-0.007910660749,-0.04418680979
2.65,-0.009782435367,-0.04374063812
2.66,-0.01162952136,-0.04321300698
2.67,-0.01344824332,-0.04260529745
2.68,-0.01523500537,-0.04191906382
2.69,-0.01698629968,-0.04115602889
2.7,-0.01869871474,-0.04031807875
2.71,-0.02036894336,-0.03940725718
2.72,-0.02199379021,-0.03842575963
2.73,-0.02357017914,-0.03737592682
2.74,-0.02509515999,-0.03626023796
2.75,-0.0265659151,-0.03508130369
2.76,-0.02797976533,-0.03384185862
2.77,-0.02933417573,-0.03254475367
2.78,-0.03062676064,-0.03119294808
2.79,-0.03185528845,-0.02978950123
2.8,-0.03301768585,-0.02833756423
2.81,-0.03411204155,-0.02684037134
2.82,-0.03513660961,-0.02530123124
2.83,-0.03608981217,-0.02372351819
2.84,-0.03697024179,-0.02211066303
2.85,-0.03777666322,-0.02046614423
2.86,-0.03850801471,-0.01879347881
2.87,-0.03916340876,-0.01709621329
2.88,-0.03974213249,-0.01537791465
2.89,-0.04024364742,-0.01364216135
2.9,-0.04066758878,-0.01189253442
2.91,-0.04101376443,-0.01013260866
2.92,-0.04128215318,-0.008365943951
2.93,-0.04147290277,-0.006596076756
2.94,-0.04158632737,-0.004826511755
2.95,-0.04162290461,-0.003060713727
2.96,-0.04158327227,-0.001302099632
2.97,-0.0414682245,0.0004459690463
2.98,-0.04127870774,0.002180193694
2.99,-0.04101581618,0.003897345671
3,-0.04068078698,0.005594273107
3.01,-0.04027499513,0.007267907375
3.02,-0.03979994794,0.00891526923
3.03,-0.0392572794,0.01053347458
3.04,-0.03864874412,0.01211973993
3.05,-0.03797621121,0.01367138737
3.06,-0.03724165778,0.0151858493
3.07,-0.0364471624,0.01666067262
3.08,-0.03559489832,0.01809352263
3.09,-0.03468712657,0.01948218649
3.1,-0.033726189,0.02082457621
3.11,-0.03271450115,0.02211873135
3.12,-0.03165454512,0.02336282119
3.13,-0.03054886243,0.02455514658
3.14,-0.02940004678,0.02569414129
3.15,-0.02821073688,0.02677837307
3.16,-0.02698360936,0.02780654417
3.17,-0.02572137162,0.02877749164
3.18,-0.02442675487,0.02969018706
3.19,-0.02310250723,0.03054373607
3.2,-0.02175138695,0.03133737737
3.21,-0.02037615578,0.03207048153
3.22,-0.01897957247,0.03274254931
3.23,-0.01756438654,0.03335320978
3.24,-0.01613333211,0.03390221805
3.25,-0.01468912209,0.03438945271
3.26,-0.01323444246,0.03481491305
3.27,-0.01177194689,0.03517871593
3.28,-0.01030425157,0.03548109249
3.29,-0.008833930274,0.03572238458
3.3,-0.007363509781,0.03590304102
3.31,-0.005895465487,0.0360236136
3.32,-0.004432217356,0.03608475302
3.33,-0.002976126149,0.0360872046
3.34,-0.001529489958,0.0360318039
3.35,-9.454102721E-05,0.0359194722
3.36,0.001326557104,0.03575121192
3.37,0.002731712169,0.03552810195
3.38,0.004118905436,0.03525129299
3.39,0.005486193664,0.03492200271
3.4,0.006831710766,0.03454151112
3.41,0.008153669179,0.03411115572
3.42,0.009450360946,0.03363232686
3.43,0.01072015852,0.03310646302
3.44,0.01196151527,0.0325350462
3.45,0.01317296577,0.03191959739
3.46,0.0143531258,0.03126167211
3.47,0.01550069209,0.03056285606
3.48,0.01661444188,0.0298247609
3.49,0.01769323217,0.02904902013
3.5,0.01873599888,0.02823728517
3.51,0.01974175573,0.0273912215
3.52,0.02070959294,0.0265125051
3.53,0.02163867579,0.02560281889
3.54,0.02252824304,0.02466384952
3.55,0.02337760518,0.02369728419
3.56,0.02418614253,0.02270480779
3.57,0.02495330334,0.02168810016
3.58,0.02567860168,0.02064883356
3.59,0.02636161528,0.01958867033
3.6,0.02700198341,0.01850926081
3.61,0.02759940454,0.01741224136
3.62,0.02815363412,0.01629923268
3.63,0.02866448229,0.01517183824
3.64,0.02913181152,0.014031643
3.65,0.0295555344,0.01288021217
3.66,0.02993561133,0.01171909035
3.67,0.03027204831,0.01054980067
3.68,0.03056489479,0.009373844191
3.69,0.03081424151,0.008192699462
3.7,0.03102021851,0.007007822214
3.71,0.03118299315,0.005820645201
3.72,0.03130276824,0.004632578183
3.73,0.03137978029,0.003445008031
3.74,0.03141429786,0.002259298945
3.75,0.03140662001,0.001076792775
3.76,0.03135707487,-0.0001011905644
3.77,0.03126601839,-0.001273352607
3.78,0.03113383309,-0.002438415776
3.79,0.03096092714,-0.003595122771
3.8,0.03074773337,-0.004742235915
3.81,0.03049470855,-0.005878536476
3.82,0.03020233277,-0.007002823962
3.83,0.02987110892,-0.008113915423
3.84,0.02950156234,-0.009210644753
3.85,0.02909424062,-0.01029186202
3.86,0.02864971347,-0.01135643281
3.87,0.02816857271,-0.01240323764
3.88,0.02765143248,-0.01343117142
3.89,0.02709892942,-0.01443914294
3.9,0.02651172305,-0.01542607448
3.91,0.02589049618,-0.01639090149
3.92,0.02523595551,-0.01733257236
3.93,0.02454883214,-0.01825004827
3.94,0.02382988234,-0.01914230316
3.95,0.02307988823,-0.02000832384
3.96,0.02229965857,-0.02084711019
3.97,0.0214900296,-0.02165767546
3.98,0.02065186585,-0.02243904677
3.99,0.01978606104,-0.02319026565
4,0.01889353891,-0.0239103888
4.01,0.01797525408,-0.02459848892
4.02,0.01703219289,-0.02525365571
4.03,0.01606537415,-0.02587499696
4.04,0.01507584997,-0.02646163983
4.05,0.01406470636,-0.02701273222
4.06,0.0130330639,-0.02752744427
4.07,0.01198207829,-0.02800497
4.08,0.01091294077,-0.02844452902
4.09,0.009826878465,-0.02884536842
4.1,0.008725154636,-0.0292067647
4.11,0.007609068774,-0.02952802581
4.12,0.006479956581,-0.02980849333
4.13,0.005339189804,-0.03004754462
4.14,0.00418817592,-0.03024459516
4.15,0.003028357667,-0.03039910084
4.16,0.001861212411,-0.03051056039
4.17,0.0006882513432,-0.03057851774
4.18,-0.0004889814965,-0.03060256452
4.19,-0.00166891037,-0.03058234248
4.2,-0.002849929179,-0.03051754595
4.21,-0.004030402979,-0.03040792426
4.22,-0.005208669684,-0.03025328414
4.23,-0.006383041954,-0.0300534921
4.24,-0.007551809268,-0.02980847674
4.25,-0.008713240177,-0.02951823095
4.26,-0.009865584741,-0.02918281409
4.27,-0.01100707715,-0.02880235403
4.28,-0.01213593849,-0.0283770491
4.29,-0.01325037973,-0.02790716994
4.3,-0.01434860482,-0.02739306112
4.31,-0.01542881394,-0.02683514274
4.32,-0.01648920696,-0.02623391177
4.33,-0.01752798697,-0.02558994327
4.34,-0.01854336397,-0.02490389143
4.35,-0.01953355866,-0.02417649035
4.36,-0.02049680636,-0.02340855473
4.37,-0.02143136099,-0.02260098022
4.38,-0.02233549919,-0.02175474369
4.39,-0.02320752444,-0.02087090313
4.4,-0.02404577126,-0.01995059742
4.41,-0.02484860949,-0.01899504584
4.42,-0.02561444853,-0.01800554729
4.43,-0.02634174164,-0.0169834793
4.44,-0.02702899021,-0.01593029679
4.45,-0.02767474804,-0.0148475306
4.46,-0.02827762552,-0.01373678568
4.47,-0.02883629385,-0.01259973913
4.48,-0.02934948911,-0.0114381379
4.49,-0.02981601629,-0.01025379633
4.5,-0.03023475322,-0.009048593367
4.51,-0.03060465436,-0.007824469573
4.52,-0.03092475446,-0.00658342389
4.53,-0.03119417214,-0.005327510179
4.54,-0.0314121132,-0.004058833533
4.55,-0.03157787384,-0.002779546373
4.56,-0.03169084366,-0.001491844341
4.57,-0.03175050847,-0.0001979619948
4.58,-0.03175645284,0.001099831676
4.59,-0.03170836249,0.002399237913
4.6,-0.03160602641,0.003697933012
4.61,-0.0314493387,0.004993573285
4.62,-0.03123830021,0.006283800165
4.63,-0.03097301984,0.007566245421
4.64,-0.03065371566,0.008838536475
4.65,-0.03028071563,0.01009830182
4.66,-0.02985445815,0.01134317647
4.67,-0.0293754922,0.01257080754
4.68,-0.02884447726,0.01377885976
4.69,-0.02826218291,0.01496502108
4.7,-0.0276294881,0.01612700827
4.71,-0.02694738016,0.01726257248
4.72,-0.02621695343,0.01836950478
4.73,-0.02543940768,0.01944564163
4.74,-0.02461604617,0.02048887031
4.75,-0.02374827339,0.02149713427
4.76,-0.02283759259,0.02246843829
4.77,-0.02188560293,0.02340085365
4.78,-0.02089399638,0.02429252303
4.79,-0.01986455441,0.02514166538
4.8,-0.01879914429,0.02594658049
4.81,-0.01769971525,0.02670565349
4.82,-0.0165682943,0.02741735907
4.83,-0.01540698191,0.02808026551
4.84,-0.01421794739,0.02869303849
4.85,-0.01300342407,0.02925444466
4.86,-0.01176570436,0.0297633549
4.87,-0.0105071345,0.0302187474
4.88,-0.009230109277,0.03061971042
4.89,-0.007937066511,0.03096544472
4.9,-0.006630481421,0.03125526582
4.91,-0.005312860888,0.03148860579
4.92,-0.003986737614,0.03166501492
4.93,-0.002654664193,0.0317841629
4.94,-0.001319207127,0.03184583979
4.95,1.705921475E-05,0.03184995668
4.96,0.001351558653,0.03179654592
4.97,0.002681719274,0.03168576116
4.98,0.004004979491,0.03151787695
4.99,0.005318794083,0.03129328811
5,0.006620640179,0.03101250872
5.01,0.007908023192,0.03067617078
5.02,0.009178482659,0.03028502267
5.03,0.01042959799,0.02983992711
5.04,0.0116589941,0.02934185904
5.05,0.01286434691,0.02879190302
5.06,0.01404338869,0.02819125042
5.07,0.01519391323,0.02754119638
5.08,0.0163137809,0.02684313643
5.09,0.0174009234,0.02609856288
5.1,0.0184533484,0.02530906095
5.11,0.0194691439,0.02447630473
5.12,0.02044648242,0.02360205285
5.13,0.02138362488,0.022688144
5.14,0.02227892425,0.02173649219
5.15,0.02313082897,0.02074908194
5.16,0.02393788606,0.01972796323
5.17,0.02469874391,0.01867524632
5.18,0.02541215492,0.01759309649
5.19,0.02607697771,0.0164837286
5.2,0.02669217906,0.01534940162
5.21,0.02725683565,0.01419241307
5.22,0.02777013535,0.01301509334
5.23,0.02823137833,0.0118198001
5.24,0.02863997776,0.01060891253
5.25,0.02899546032,0.009384825677
5.26,0.02929746631,0.008149944733
5.27,0.02954574949,0.006906679395
5.28,0.02974017666,0.005657438241
5.29,0.02988072689,0.004404623173
5.3,0.02996749051,0.003150623938
5.31,0.0300006678,0.001897812746
5.32,0.02998056737,0.0006485389803
5.33,0.02990760437,-0.0005948759547
5.34,0.02978229834,-0.001830143661
5.35,0.02960527089,-0.00305501362
5.36,0.02937724307,-0.004267277909
5.37,0.02909903261,-0.005464775742
5.38,0.02877155083,-0.006645397825
5.39,0.02839579945,-0.007807090518
5.4,0.02797286717,-0.008947859794
5.41,0.02750392604,-0.01006577498
5.42,0.02699022772,-0.01115897229
5.43,0.02643309957,-0.0122256581
5.44,0.02583394059,-0.01326411202
5.45,0.02519421727,-0.01427268973
5.46,0.02451545932,-0.01524982553
5.47,0.02379925527,-0.01619403467
5.48,0.02304724808,-0.01710391544
5.49,0.02226113058,-0.01797815099
5.5,0.02144264098,-0.01881551092
5.51,0.02059355824,-0.01961485255
5.52,0.01971569749,-0.02037512204
5.53,0.0188109054,-0.02109535519
5.54,0.01788105565,-0.02177467798
5.55,0.01692804428,-0.02241230693
5.56,0.0159537852,-0.02300754919
5.57,0.01496020571,-0.02355980235
5.58,0.01394924206,-0.02406855409
5.59,0.01292283514,-0.02453338157
5.6,0.01188292617,-0.02495395061
5.61,0.01083145261,-0.02533001466
5.62,0.009770344036,-0.02566141356
5.63,0.008701518274,-0.02594807216
5.64,0.007626877552,-0.02618999868
5.65,0.00654830485,-0.02638728294
5.66,0.00546766037,-0.02654009443
5.67,0.004386778164,-0.02664868023
5.68,0.003307462917,-0.02671336277
5.69,0.002231486895,-0.02673453746
5.7,0.001160587059,-0.02671267023
5.71,9.646235365E-05,-0.02664829492
5.72,-0.00095922883,-0.02654201064
5.73,-0.002004871013,-0.02639447892
5.74,-0.003038893807,-0.02620642097
5.75,-0.004059773909,-0.02597861468
5.76,-0.005066036913,-0.02571189174
5.77,-0.006056258948,-0.02540713462
5.78,-0.007029068121,-0.02506527352
5.79,-0.007983145795,-0.02468728338
5.8,-0.008917227676,-0.02427418081
5.81,-0.009830104736,-0.02382702106
5.82,-0.01072062396,-0.023346895
5.83,-0.01158768893,-0.02283492607
5.84,-0.01243026023,-0.0222922674
5.85,-0.01324735574,-0.0217200988
5.86,-0.0140380507,-0.02111962392
5.87,-0.0148014777,-0.02049206743
5.88,-0.01553682651,-0.01983867228
5.89,-0.01624334377,-0.01916069698
5.9,-0.01692033253,-0.01845941305
5.91,-0.01756715173,-0.01773610244
5.92,-0.01818321553,-0.01699205518
5.93,-0.01876799253,-0.01622856698
5.94,-0.01932100495,-0.01544693703
5.95,-0.01984182764,-0.01464846586
5.96,-0.02033008709,-0.01383445331
5.97,-0.02078546032,-0.01300619661
5.98,-0.02120767376,-0.01216498856
5.99,-0.02159650198,-0.01131211584
6,-0.02195176653,-0.01044885741
