"Freq [GHz]","re(S(Tx_p1,Tx_p1)) []","im(S(Tx_p1,Tx_p1)) []"
1,-0.003103774812,-0.003016350408
1.01,-0.003192335131,-0.002869663334
1.02,-0.003274108461,-0.002721206872
1.03,-0.003349123404,-0.002571323423
1.04,-0.003417429208,-0.002420346783
1.05,-0.003479094721,-0.002268600764
1.06,-0.003534207254,-0.002116397902
1.07,-0.003582871371,-0.00196403829
1.08,-0.0036252076,-0.001811808516
1.09,-0.003661351089,-0.00165998072
1.1,-0.003691450201,-0.001508811773
1.11,-0.003715665076,-0.001358542578
1.12,-0.003734166151,-0.001209397497
1.13,-0.003747132662,-0.001061583903
1.14,-0.003754751134,-0.0009152918603
1.15,-0.003757213859,-0.000770693925
1.16,-0.003754717394,-0.0006279450775
1.17,-0.003747461057,-0.0004871827723
1.18,-0.003735645468,-0.0003485271106
1.19,-0.003719471105,-0.0002120811288
1.2,-0.003699136918,-7.793120087E-05
1.21,-0.003674838981,5.385245069E-05
1.22,-0.003646769215,0.0001832151402
1.23,-0.003615114171,0.0003101170059
1.24,-0.003580053886,0.0004345322053
1.25,-0.003541760823,0.0005564480248
1.26,-0.003500398896,0.000675863911
1.27,-0.003456122586,0.0007927904314
1.28,-0.003409076155,0.0009072481713
1.29,-0.003359392958,0.001019266577
1.3,-0.003307194867,0.00112888275
1.31,-0.003252591791,0.001236140208
1.32,-0.003195681317,0.00134108761
1.33,-0.003136548455,0.001443777467
1.34,-0.003075265502,0.001544264839
1.35,-0.003011892007,0.00164260603
1.36,-0.002946474866,0.001738857287
1.37,-0.002879048507,0.001833073523
1.38,-0.002809635204,0.001925307054
1.39,-0.002738245483,0.002015606375
1.4,-0.00266487864,0.002104014977
1.41,-0.002589523356,0.002190570208
1.42,-0.002512158408,0.002275302204
1.43,-0.002432753468,0.002358232866
1.44,-0.002351269997,0.002439374928
1.45,-0.002267662204,0.002518731087
1.46,-0.002181878089,0.002596293227
1.47,-0.002093860549,0.002672041731
1.48,-0.002003548543,0.002745944882
1.49,-0.001910878305,0.002817958376
1.5,-0.001815784606,0.002888024924
1.51,-0.001718202045,0.002956073969
1.52,-0.001618066375,0.003022021511
1.53,-0.001515315838,0.003085770045
1.54,-0.001409892513,0.003147208601
1.55,-0.001301743667,0.003206212917
1.56,-0.001190823096,0.003262645703
1.57,-0.001077092445,0.003316357035
1.58,-0.0009605225074,0.003367184854
1.59,-0.0008410944887,0.003414955571
1.6,-0.0007188012232,0.003459484784
1.61,-0.0005936483431,0.003500578096
1.62,-0.0004656553871,0.003538032035
1.63,-0.0003348568409,0.003571635069
1.64,-0.0002013031033,0.003601168706
1.65,-6.506137088E-05,0.003626408685
1.66,7.378356625E-05,0.003647126246
1.67,0.000215128623,0.003663089465
1.68,0.0003588518182,0.003674064662
1.69,0.0005048117791,0.003679817861
1.7,0.0006528473555,0.003680116303
1.71,0.0008027773483,0.003674729999
1.72,0.0009544003554,0.003663433316
1.73,0.001107494738,0.003646006587
1.74,0.001261818708,0.003622237741
1.75,0.001417110544,0.003591923929
1.76,0.001573088925,0.003554873161
1.77,0.001729453393,0.003510905919
1.78,0.001885884943,0.003459856754
1.79,0.00204204673,0.003401575856
1.8,0.002197584903,0.003335930573
1.81,0.002352129553,0.003262806895
1.82,0.002505295783,0.00318211087
1.83,0.002656684884,0.003093769958
1.84,0.002805885619,0.002997734312
1.85,0.002952475619,0.002893977974
1.86,0.003096022861,0.002782499977
1.87,0.003236087249,0.00266332536
1.88,0.003372222273,0.002536506066
1.89,0.003503976746,0.002402121739
1.9,0.003630896614,0.002260280399
1.91,0.00375252682,0.002111118997
1.92,0.003868413227,0.001954803839
1.93,0.003978104586,0.001791530887
1.94,0.004081154529,0.001621525918
1.95,0.004177123602,0.001445044548
1.96,0.004265581299,0.001262372119
1.97,0.004346108116,0.001073823438
1.98,0.004418297591,0.0008797423792
1.99,0.004481758336,0.0006805013423
2,0.004536116044,0.0004765005686
2.01,0.00458101546,0.000268167315
2.02,0.004616122314,5.595489045E-05
2.03,0.004641125196,-0.0001596584449
2.04,0.00465573737,-0.0003781707135
2.05,0.004659698517,-0.0005990575839
2.06,0.004652776397,-0.0008217738587
2.07,0.004634768415,-0.001045755082
2.08,0.004605503101,-0.001270419263
2.09,0.004564841471,-0.001495168702
2.1,0.004512678279,-0.001719391922
2.11,0.004448943151,-0.001942465692
2.12,0.004373601586,-0.002163757133
2.13,0.004286655827,-0.002382625905
2.14,0.004188145586,-0.002598426458
2.15,0.004078148637,-0.002810510341
2.16,0.003956781244,-0.003018228565
2.17,0.003824198454,-0.003220934004
2.18,0.003680594217,-0.003417983817
2.19,0.003526201367,-0.003608741899
2.2,0.003361291425,-0.003792581338
2.21,0.003186174259,-0.003968886862
2.22,0.00300119757,-0.004137057286
2.23,0.002806746229,-0.004296507922
2.24,0.002603241448,-0.004446672961
2.25,0.002391139798,-0.004587007816
2.26,0.002170932073,-0.004716991395
2.27,0.001943142006,-0.004836128322
2.28,0.001708324831,-0.004943951076
2.29,0.001467065717,-0.005040022044
2.3,0.00121997805,-0.005123935483
2.31,0.000967701598,-0.005195319376
2.32,0.0007109005472,-0.005253837171
2.33,0.0004502614226,-0.005299189411
2.34,0.0001864909011,-0.005331115223
2.35,-7.968647574E-05,-0.005349393678
2.36,-0.0003475306799,-0.005353845006
2.37,-0.0006162886566,-0.005344331667
2.38,-0.0008851968572,-0.005320759263
2.39,-0.001153483833,-0.005283077292
2.4,-0.001420372884,-0.005231279744
2.41,-0.001685084743,-0.005165405524
2.42,-0.001946840298,-0.005085538713
2.43,-0.002204863331,-0.004991808651
2.44,-0.002458383262,-0.004884389853
2.45,-0.002706637895,-0.004763501752
2.46,-0.00294887615,-0.004629408263
2.47,-0.003184360769,-0.004482417183
2.48,-0.003412370984,-0.004322879419
2.49,-0.003632205143,-0.00415118804
2.5,-0.003843183272,-0.003967777181
2.51,-0.004044649577,-0.003773120765
2.52,-0.004235974857,-0.00356773109
2.53,-0.004416558838,-0.003352157244
2.54,-0.004585832401,-0.003126983394
2.55,-0.00474325971,-0.002892826921
2.56,-0.004888340214,-0.00265033643
2.57,-0.005020610534,-0.002400189634
2.58,-0.005139646212,-0.002143091121
2.59,-0.005245063319,-0.001879770018
2.6,-0.005336519921,-0.001610977546
2.61,-0.005413717387,-0.0013374845
2.62,-0.005476401543,-0.001060078635
2.63,-0.00552436366,-0.0007795619966
2.64,-0.005557441277,-0.0004967481824
2.65,-0.005575518851,-0.0002124595635
2.66,-0.005578528236,7.24755353E-05
2.67,-0.005566448984,0.0003572256786
2.68,-0.005539308472,0.0006409591787
2.69,-0.00549718185,0.0009228469562
2.7,-0.005440191813,0.001202065393
2.71,-0.005368508194,0.001477799164
2.72,-0.005282347388,0.001749244043
2.73,-0.005181971596,0.002015609657
2.74,-0.005067687911,0.002276122199
2.75,-0.004939847228,0.002530027072
2.76,-0.004798842998,0.002776591455
2.77,-0.004645109828,0.003015106799
2.78,-0.004479121928,0.003244891212
2.79,-0.004301391415,0.003465291755
2.8,-0.004112466485,0.003675686622
2.81,-0.003912929449,0.003875487201
2.82,-0.00370339465,0.004064140004
2.83,-0.003484506275,0.00424112847
2.84,-0.003256936051,0.004405974617
2.85,-0.003021380855,0.004558240556
2.86,-0.002778560241,0.004697529846
2.87,-0.002529213883,0.00482348869
2.88,-0.002274098966,0.004935806979
2.89,-0.002013987513,0.005034219158
2.9,-0.001749663676,0.005118504934
2.91,-0.00148192099,0.005188489807
2.92,-0.00121155961,0.005244045435
2.93,-0.0009393835335,0.005285089824
2.94,-0.0006661978275,0.005311587345
2.95,-0.0003928058647,0.005323548588
2.96,-0.0001200065833,0.005321030033
2.97,0.0001514082213,0.005304133566
2.98,0.0004206565603,0.005273005824
2.99,0.0006869688618,0.005227837384
3,0.0009495905182,0.005168861786
3.01,0.001207784359,0.005096354419
3.02,0.001460833043,0.005010631244
3.03,0.001708041356,0.004912047391
3.04,0.001948738414,0.004800995616
3.05,0.002182279752,0.004677904626
3.06,0.002408049304,0.004543237298
3.07,0.002625461253,0.004397488773
3.08,0.002833961766,0.004241184458
3.09,0.003033030579,0.004074877926
3.1,0.003222182451,0.003899148737
3.11,0.003400968475,0.003714600181
3.12,0.003568977241,0.003521856953
3.13,0.003725835841,0.003321562777
3.14,0.003871210727,0.003114377979
3.15,0.004004808414,0.002900977028
3.16,0.004126376023,0.002682046046
3.17,0.004235701664,0.00245828031
3.18,0.004332614668,0.00223038174
3.19,0.004416985659,0.001999056397
3.2,0.00448872647,0.001765011994
3.21,0.004547789904,0.001528955433
3.22,0.004594169352,0.00129159037
3.23,0.004627898254,0.001053614832
3.24,0.004649049422,0.0008157188786
3.25,0.004657734223,0.0005785823316
3.26,0.004654101628,0.000342872567
3.27,0.004638337134,0.0001092423911
3.28,0.004610661554,-0.0001216720021
3.29,0.00457132971,-0.0003492529792
3.3,0.004520628992,-0.000572903317
3.31,0.004458877839,-0.0007920479469
3.32,0.004386424108,-0.001006135588
3.33,0.004303643363,-0.001214640264
3.34,0.004210937088,-0.0014170627
3.35,0.004108730829,-0.001612931591
3.36,0.003997472266,-0.001801804749
3.37,0.00387762925,-0.001983270113
3.38,0.003749687779,-0.002156946626
3.39,0.00361414995,-0.002322484985
3.4,0.003471531884,-0.002479568239
3.41,0.003322361629,-0.002627912271
3.42,0.003167177065,-0.002767266128
3.43,0.0030065238,-0.002897412222
3.44,0.002840953084,-0.003018166399
3.45,0.002671019741,-0.003129377871
3.46,0.002497280122,-0.003230929023
3.47,0.0023202901,-0.00332273509
3.48,0.002140603106,-0.003404743718
3.49,0.001958768217,-0.003476934393
3.5,0.001775328296,-0.003539317774
3.51,0.001590818208,-0.0035919349
3.52,0.001405763096,-0.003634856303
3.53,0.001220676742,-0.003668181021
3.54,0.001036060008,-0.003692035514
3.55,0.0008523993653,-0.003706572505
3.56,0.0006701655173,-0.003711969733
3.57,0.0004898121199,-0.003708428634
3.58,0.0003117746011,-0.003696172968
3.59,0.0001364690857,-0.003675447375
3.6,-3.570857432E-05,-0.003646515892
3.61,-0.00020438366,-0.003609660423
3.62,-0.0003692033364,-0.003565179174
3.63,-0.0005298372919,-0.003513385067
3.64,-0.000685978266,-0.003454604126
3.65,-0.0008373424658,-0.003389173862
3.66,-0.0009836698715,-0.003317441649
3.67,-0.001124724432,-0.0032397631
3.68,-0.001260294151,-0.003156500465
3.69,-0.001390191071,-0.003068021037
3.7,-0.001514251147,-0.00297469559
3.71,-0.001632334026,-0.002876896844
3.72,-0.001744322727,-0.002774997974
3.73,-0.001850123225,-0.002669371158
3.74,-0.001949663949,-0.002560386183
3.75,-0.002042895195,-0.002448409094
3.76,-0.00212978846,-0.002333800919
3.77,-0.002210335697,-0.00221691645
3.78,-0.002284548507,-0.002098103095
3.79,-0.002352457266,-0.001977699807
3.8,-0.002414110189,-0.001856036087
3.81,-0.002469572354,-0.001733431069
3.82,-0.00251892467,-0.001610192685
3.83,-0.00256226281,-0.00148661692
3.84,-0.002599696118,-0.001362987144
3.85,-0.002631346478,-0.001239573543
3.86,-0.002657347175,-0.001116632626
3.87,-0.002677841739,-0.0009944068322
3.88,-0.002692982777,-0.0008731242123
3.89,-0.002702930817,-0.00075299821
3.9,-0.002707853147,-0.0006342275211
3.91,-0.002707922671,-0.0005169960399
3.92,-0.002703316783,-0.0004014728874
3.93,-0.002694216263,-0.0002878125191
3.94,-0.002680804204,-0.0001761549106
3.95,-0.002663264974,-6.662581606E-05
3.96,-0.002641783211,4.066290191E-05
3.97,-0.002616542872,0.0001456128764
3.98,-0.002587726318,0.0002481387774
3.99,-0.002555513465,0.0003481677954
4,-0.002520080975,0.0004456390708
4.01,-0.00248160152,0.0005405030749
4.02,-0.0024402431,0.0006327209472
4.03,-0.002396168422,0.0007222637944
4.04,-0.002349534356,0.0008091119552
4.05,-0.002300491448,0.0008932542384
4.06,-0.002249183507,0.0009746871375
4.07,-0.002195747261,0.001053414029
4.08,-0.002140312085,0.001129444359
4.09,-0.002082999793,0.001202792825
4.1,-0.002023924509,0.001273478551
4.11,-0.001963192599,0.001341524281
4.12,-0.001900902674,0.001406955566
4.13,-0.001837145658,0.001469799977
4.14,-0.001772004925,0.001530086334
4.15,-0.001705556489,0.001587843962
4.16,-0.001637869265,0.001643101974
4.17,-0.001569005374,0.001695888588
4.18,-0.00149902051,0.001746230484
4.19,-0.001427964356,0.001794152199
4.2,-0.00135588104,0.001839675568
4.21,-0.001282809642,0.001882819217
4.22,-0.001208784731,0.001923598101
4.23,-0.001133836939,0.001962023097
4.24,-0.001057993565,0.001998100658
4.25,-0.0009812792017,0.002031832518
4.26,-0.0009037163794,0.002063215459
4.27,-0.0008253262313,0.002092241134
4.28,-0.0007461291621,0.002118895963
4.29,-0.0006661455249,0.002143161073
4.3,-0.0005853962971,0.002165012311
4.31,-0.0005039037519,0.002184420315
4.32,-0.00042169212,0.002201350644
4.33,-0.000338788237,0.002215763969
4.34,-0.0002552221717,0.002227616316
4.35,-0.000171027831,0.002236859373
4.36,-8.624353717E-05,0.002243440844
4.37,-9.125730185E-07,0.002247304858
4.38,8.491630879E-05,0.002248392423
4.39,0.0001711884159,0.002246641931
4.4,0.0002578426898,0.002241989696
4.41,0.000344811325,0.002234370541
4.42,0.0004320194382,0.002223718416
4.43,0.0005193847888,0.002209967039
4.44,0.000606817554,0.002193050579
4.45,0.0006942201597,0.002172904351
4.46,0.0007814871696,0.002149465527
4.47,0.0008685052337,0.002122673873
4.48,0.0009551530969,0.002092472482
4.49,0.001041301669,0.002058808516
4.5,0.001126814154,0.002021633952
4.51,0.001211546247,0.001980906315
4.52,0.00129534638,0.001936589407
4.53,0.001378056042,0.001888654018
4.54,0.00145951015,0.001837078621
4.55,0.001539537475,0.00178185004
4.56,0.001617961135,0.00172296409
4.57,0.001694599128,0.00166042619
4.58,0.001769264931,0.001594251932
4.59,0.001841768134,0.001524467614
4.6,0.001911915131,0.001451110728
4.61,0.001979509849,0.001374230399
4.62,0.002044354512,0.001293887776
4.63,0.002106250453,0.001210156368
4.64,0.002164998943,0.001123122317
4.65,0.002220402057,0.001032884626
4.66,0.002272263563,0.0009395553072
4.67,0.002320389823,0.0008432594848
4.68,0.002364590718,0.0007441354208
4.69,0.002404680575,0.0006423344801
4.7,0.0024404791,0.0005380210278
4.71,0.002471812316,0.0004313722591
4.72,0.002498513491,0.0003225779619
4.73,0.002520424058,0.0002118402118
4.74,0.002537394525,9.937300034E-05
4.75,0.002549285354,-1.459820274E-05
4.76,0.002555967833,-0.0001298369519
4.77,0.002557324901,-0.0002460963915
4.78,0.002553251957,-0.0003631198835
4.79,0.00254365762,-0.0004806416935
4.8,0.00252846445,-0.000598387734
4.81,0.002507609627,-0.0007160763621
4.82,0.002481045574,-0.0008334192276
4.83,0.002448740533,-0.0009501221687
4.84,0.00241067908,-0.001065886152
4.85,0.002366862578,-0.001180408254
4.86,0.002317309577,-0.001293382673
4.87,0.002262056134,-0.001404501786
4.88,0.00220115608,-0.001513457215
4.89,0.002134681206,-0.001619940933
4.9,0.002062721378,-0.001723646376
4.91,0.001985384592,-0.001824269578
4.92,0.001902796935,-0.001921510308
4.93,0.001815102488,-0.002015073212
4.94,0.001722463144,-0.002104668955
4.95,0.001625058356,-0.002190015354
4.96,0.001523084806,-0.002270838502
4.97,0.001416756004,-0.002346873876
4.98,0.00130630181,-0.002417867415
4.99,0.00119196789,-0.002483576584
5,0.001074015089,-0.002543771398
5.01,0.0009527187531,-0.002598235408
5.02,0.0008283679733,-0.002646766658
5.03,0.000701264769,-0.002689178581
5.04,0.0005717232129,-0.002725300857
5.05,0.0004400684978,-0.002754980217
5.06,0.000306635949,-0.002778081178
5.07,0.0001717699878,-0.002794486736
5.08,3.58230482E-05,-0.002804098976
5.09,-0.0001008455474,-0.002806839629
5.1,-0.0002378707507,-0.002802650551
5.11,-0.0003748829826,-0.002791494129
5.12,-0.000511509356,-0.00277335362
5.13,-0.0006473749225,-0.002748233404
5.14,-0.000782103937,-0.002716159164
5.15,-0.0009153211356,-0.002677177989
5.16,-0.001046653021,-0.002631358388
5.17,-0.001175729153,-0.002578790232
5.18,-0.001302183431,-0.002519584612
5.19,-0.001425655379,-0.002453873615
5.2,-0.001545791404,-0.002381810023
5.21,-0.001662246048,-0.002303566925
5.22,-0.001774683214,-0.002219337264
5.23,-0.00188277736,-0.002129333294
5.24,-0.001986214659,-0.002033785969
5.25,-0.002084694133,-0.001932944262
5.26,-0.002177928728,-0.001827074403
5.27,-0.002265646353,-0.001716459066
5.28,-0.002347590866,-0.001601396474
5.29,-0.002423523,-0.001482199457
5.3,-0.002493221236,-0.001359194447
5.31,-0.002556482608,-0.00123272042
5.32,-0.002613123446,-0.001103127786
5.33,-0.002662980048,-0.0009707772424
5.34,-0.002705909281,-0.0008360385757
5.35,-0.002741789102,-0.0006992894369
5.36,-0.002770519015,-0.0005609140802
5.37,-0.002792020435,-0.0004213020778
5.38,-0.002806236986,-0.0002808470124
5.39,-0.002813134703,-0.0001399451554
5.4,-0.002812702167,1.005867684E-06
5.41,-0.002804950547,0.0001416084157
5.42,-0.002789913564,0.0002814661718
5.43,-0.002767647371,0.0004201854774
5.44,-0.002738230354,0.0005573766571
5.45,-0.002701762847,0.0006926553273
5.46,-0.002658366771,0.000825643685
5.47,-0.002608185194,0.0009559717709
5.48,-0.002551381815,0.001083278702
5.49,-0.002488140367,0.001207213871
5.5,-0.002418663962,0.0013274381
5.51,-0.002343174352,0.00144362476
5.52,-0.002261911135,0.001555460834
5.53,-0.002175130888,0.001662647927
5.54,-0.002083106251,0.00176490323
5.55,-0.00198612495,0.001861960411
5.56,-0.001884488765,0.001953570453
5.57,-0.001778512458,0.002039502418
5.58,-0.001668522652,0.002119544153
5.59,-0.001554856677,0.002193502913
5.6,-0.001437861374,0.002261205914
5.61,-0.001317891876,0.002322500818
5.62,-0.001195310366,0.002377256132
5.63,-0.001070484811,0.002425361533
5.64,-0.0009437876806,0.002466728112
5.65,-0.0008155946638,0.002501288544
5.66,-0.0006862833743,0.00252899717
5.67,-0.0005562320599,0.002549830006
5.68,-0.0004258183174,0.002563784669
5.69,-0.0002954178173,0.002570880229
5.7,-0.000165403046,0.002571156978
5.71,-3.614206628E-05,0.002564676125
5.72,9.200269477E-05,0.002551519421
5.73,0.0002186756297,0.002531788702
5.74,0.0003435290997,0.002505605376
5.75,0.0004662245452,0.002473109826
5.76,0.0005864335541,0.002434460763
5.77,0.0007038388836,0.002389834505
5.78,0.0008181354323,0.002339424211
5.79,0.0009290311579,0.002283439042
5.8,0.00103624794,0.002222103292
5.81,0.001139522382,0.002155655453
5.82,0.00123860655,0.002084347247
5.83,0.001333268652,0.002008442617
5.84,0.001423293644,0.001928216681
5.85,0.00150848377,0.001843954659
5.86,0.001588659036,0.001755950767
5.87,0.00166365761,0.001664507103
5.88,0.001733336146,0.001569932501
5.89,0.001797570043,0.001472541383
5.9,0.001856253625,0.001372652602
5.91,0.001909300255,0.001270588278
5.92,0.001956642367,0.001166672644
5.93,0.001998231438,0.00106123089
5.94,0.002034037877,0.0009545880233
5.95,0.002064050852,0.0008470677423
5.96,0.002088278051,0.0007389913329
5.97,0.002106745365,0.0006306765847
5.98,0.002119496524,0.0005224367388
5.99,0.002126592651,0.0004145794655
6,0.002128111776,0.000307405879
