"Freq [GHz]","re(S(Tx_p1,Tx_p1)) []","im(S(Tx_p1,Tx_p1)) []"
1,-0.01733292031,-0.06378505907
1.01,-0.01966369502,-0.06301267728
1.02,-0.02196885513,-0.06215010484
1.03,-0.0242443066,-0.06119808909
1.04,-0.02648599937,-0.06015758738
1.05,-0.0286899374,-0.05902976275
1.06,-0.03085218848,-0.05781597913
1.07,-0.03296889366,-0.05651779626
1.08,-0.03503627631,-0.05513696425
1.09,-0.03705065088,-0.05367541772
1.1,-0.03900843126,-0.05213526973
1.11,-0.04090613879,-0.05051880535
1.12,-0.04274040984,-0.04882847494
1.13,-0.04450800304,-0.0470668872
1.14,-0.04620580608,-0.04523680192
1.15,-0.04783084215,-0.04334112257
1.16,-0.04938027589,-0.04138288861
1.17,-0.05085141899,-0.03936526768
1.18,-0.05224173533,-0.03729154755
1.19,-0.05354884572,-0.035165128
1.2,-0.05477053218,-0.03298951249
1.21,-0.05590474181,-0.0307682998
1.22,-0.05694959026,-0.02850517549
1.23,-0.05790336471,-0.02620390341
1.24,-0.05876452648,-0.02386831703
1.25,-0.05953171318,-0.02150231086
1.26,-0.06020374048,-0.01910983175
1.27,-0.06077960339,-0.01669487029
1.28,-0.06125847723,-0.01426145221
1.29,-0.06163971812,-0.01181362975
1.3,-0.06192286309,-0.00935547324
1.31,-0.06210762983,-0.006891062609
1.32,-0.06219391598,-0.004424479093
1.33,-0.06218179819,-0.001959797007
1.34,-0.06207153062,0.0004989243404
1.35,-0.06186354328,0.002947648595
1.36,-0.0615584399,0.005382370144
1.37,-0.06115699551,0.007799121739
1.38,-0.06066015371,0.01019398193
1.39,-0.06006902359,0.0125630823
1.4,-0.05938487643,0.01490261453
1.41,-0.05860914206,0.01720883718
1.42,-0.05774340494,0.01947808229
1.43,-0.05678940001,0.02170676178
1.44,-0.05574900833,0.02389137349
1.45,-0.05462425243,0.02602850711
1.46,-0.05341729148,0.02811484974
1.47,-0.05213041624,0.03014719123
1.48,-0.05076604387,0.03212242926
1.49,-0.04932671249,0.03403757416
1.5,-0.04781507568,0.03588975334
1.51,-0.04623389675,0.03767621562
1.52,-0.04458604292,0.0393943351
1.53,-0.0428744794,0.04104161489
1.54,-0.04110226333,0.04261569039
1.55,-0.03927253766,0.04411433249
1.56,-0.03738852495,0.04553545025
1.57,-0.03545352111,0.04687709352
1.58,-0.03347088909,0.04813745506
1.59,-0.03144405252,0.04931487257
1.6,-0.02937648938,0.05040783025
1.61,-0.02727172556,0.05141496028
1.62,-0.02513332855,0.05233504384
1.63,-0.02296490102,0.05316701198
1.64,-0.02077007453,0.05390994615
1.65,-0.01855250317,0.05456307854
1.66,-0.01631585733,0.05512579206
1.67,-0.01406381749,0.05559762019
1.68,-0.01180006808,0.05597824644
1.69,-0.009528291367,0.05626750373
1.7,-0.00725216153,0.05646537337
1.71,-0.004975338707,0.05657198394
1.72,-0.002701463214,0.05658760985
1.73,-0.0004341498406,0.0565126698
1.74,0.001823017736,0.05634772488
1.75,0.00406649242,0.05609347661
1.76,0.006292769045,0.05575076467
1.77,0.008498389583,0.05532056455
1.78,0.01067994823,0.05480398493
1.79,0.01283409635,0.0542022649
1.8,0.01495754725,0.05351677109
1.81,0.01704708086,0.05274899454
1.82,0.01909954819,0.0519005475
1.83,0.02111187569,0.05097316002
1.84,0.02308106942,0.04996867644
1.85,0.02500421909,0.04888905178
1.86,0.02687850185,0.0477363479
1.87,0.02870118605,0.04651272971
1.88,0.03046963469,0.04522046111
1.89,0.03218130883,0.04386190094
1.9,0.0338337707,0.04243949875
1.91,0.03542468674,0.04095579059
1.92,0.0369518304,0.03941339461
1.93,0.03841308482,0.03781500665
1.94,0.03980644529,0.03616339572
1.95,0.04113002152,0.03446139952
1.96,0.04238203983,0.03271191971
1.97,0.04356084504,0.03091791737
1.98,0.04466490225,0.0290824082
1.99,0.04569279846,0.02720845784
2,0.04664324397,0.02529917706
2.01,0.04751507361,0.02335771699
2.02,0.04830724786,0.02138726427
2.03,0.04901885367,0.01939103624
2.04,0.04964910527,0.01737227608
2.05,0.05019734463,0.01533424794
2.06,0.05066304192,0.01328023215
2.07,0.05104579566,0.0112135203
2.08,0.05134533277,0.009137410462
2.09,0.05156150848,0.007055202339
2.1,0.05169430596,0.004970192481
2.11,0.05174383594,0.0028856695
2.12,0.05171033601,0.0008049093334
2.13,0.05159416988,-0.001268829474
2.14,0.05139582639,-0.00333231044
2.15,0.05111591841,-0.005382323769
2.16,0.05075518159,-0.00741569094
2.17,0.0503144729,-0.009429269228
2.18,0.04979476904,-0.01141995618
2.19,0.04919716474,-0.01338469401
2.2,0.04852287082,-0.01532047396
2.21,0.04777321219,-0.01722434056
2.22,0.04694962563,-0.01909339581
2.23,0.04605365748,-0.02092480332
2.24,0.04508696112,-0.02271579233
2.25,0.04405129441,-0.02446366164
2.26,0.04294851688,-0.02616578347
2.27,0.04178058684,-0.02781960718
2.28,0.04054955837,-0.02942266297
2.29,0.03925757814,-0.03097256536
2.3,0.03790688215,-0.03246701664
2.31,0.03649979227,-0.03390381019
2.32,0.03503871275,-0.03528083364
2.33,0.03352612652,-0.03659607194
2.34,0.03196459148,-0.03784761031
2.35,0.03035673657,-0.03903363701
2.36,0.02870525781,-0.04015244602
2.37,0.02701291423,-0.04120243953
2.38,0.02528252362,-0.04218213032
2.39,0.02351695835,-0.04309014399
2.4,0.0217191409,-0.04392522099
2.41,0.01989203951,-0.04468621853
2.42,0.01803866356,-0.04537211233
2.43,0.01616205904,-0.04598199818
2.44,0.01426530383,-0.04651509334
2.45,0.01235150301,-0.04697073775
2.46,0.01042378405,-0.0473483951
2.47,0.008485292,-0.04764765367
2.48,0.006539184577,-0.04786822704
2.49,0.004588627286,-0.04800995459
2.5,0.002636788462,-0.04807280177
2.51,0.0006868343117,-0.04805686025
2.52,-0.001258076068,-0.04796234784
2.53,-0.003194795674,-0.04778960821
2.54,-0.005120194588,-0.04753911045
2.55,-0.007031164949,-0.04721144838
2.56,-0.008924625923,-0.04680733972
2.57,-0.01079752864,-0.04632762499
2.58,-0.01264686111,-0.04577326629
2.59,-0.01446965307,-0.04514534587
2.6,-0.01626298085,-0.0444450644
2.61,-0.01802397209,-0.04367373919
2.62,-0.01974981047,-0.04283280213
2.63,-0.02143774035,-0.04192379744
2.64,-0.0230850713,-0.04094837924
2.65,-0.02468918254,-0.03990830896
2.66,-0.02624752736,-0.03880545247
2.67,-0.02775763732,-0.03764177719
2.68,-0.02921712645,-0.0364193488
2.69,-0.0306236952,-0.03514032799
2.7,-0.03197513439,-0.0338069669
2.71,-0.03326932894,-0.03242160544
2.72,-0.03450426148,-0.03098666742
2.73,-0.0356780158,-0.02950465659
2.74,-0.03678878017,-0.02797815245
2.75,-0.0378348504,-0.02640980594
2.76,-0.03881463289,-0.02480233505
2.77,-0.0397266473,-0.02315852018
2.78,-0.04056952921,-0.02148119953
2.79,-0.04134203246,-0.01977326421
2.8,-0.04204303137,-0.01803765337
2.81,-0.04267152271,-0.01627734918
2.82,-0.04322662747,-0.01449537169
2.83,-0.04370759243,-0.01269477368
2.84,-0.04411379151,-0.01087863538
2.85,-0.04444472685,-0.009050059122
2.86,-0.04470002975,-0.007212164002
2.87,-0.04487946131,-0.005368080419
2.88,-0.04498291284,-0.003520944633
2.89,-0.04501040609,-0.001673893279
2.9,-0.0449620932,0.0001699421271
2.91,-0.04483825642,0.00200744069
2.92,-0.04463930758,0.003835497621
2.93,-0.04436578736,0.005651029713
2.94,-0.04401836431,0.007450980784
2.95,-0.04359783357,0.009232327076
2.96,-0.04310511547,0.01099208261
2.97,-0.0425412538,0.01272730448
2.98,-0.0419074139,0.01443509805
2.99,-0.04120488047,0.01611262214
3,-0.04043505525,0.017757094
3.01,-0.03959945435,0.01936579429
3.02,-0.03869970549,0.02093607193
3.03,-0.03773754495,0.02246534874
3.04,-0.03671481431,0.02395112403
3.05,-0.03563345707,0.02539097907
3.06,-0.03449551495,0.02678258128
3.07,-0.03330312414,0.02812368843
3.08,-0.03205851127,0.0294121525
3.09,-0.03076398924,0.03064592351
3.1,-0.02942195289,0.03182305305
3.11,-0.02803487453,0.03294169767
3.12,-0.02660529928,0.03400012209
3.13,-0.02513584033,0.03499670214
3.14,-0.02362917399,0.03592992755
3.15,-0.02208803472,0.03679840445
3.16,-0.02051521,0.03760085772
3.17,-0.01891353507,0.03833613305
3.18,-0.01728588768,0.03900319882
3.19,-0.01563518263,0.03960114766
3.2,-0.01396436639,0.04012919786
3.21,-0.01227641157,0.04058669449
3.22,-0.01057431137,0.04097311025
3.23,-0.008861074015,0.04128804611
3.24,-0.007139717145,0.04153123171
3.25,-0.005413262237,0.04170252545
3.26,-0.003684728995,0.0418019144
3.27,-0.001957129771,0.04182951389
3.28,-0.0002334640104,0.04178556693
3.29,0.001483287257,0.04167044329
3.3,0.003190166887,0.04148463846
3.31,0.004884247015,0.04122877219
3.32,0.006562634392,0.04090358699
3.33,0.008222475623,0.04050994626
3.34,0.009860962321,0.0400488322
3.35,0.01147533615,0.03952134358
3.36,0.01306289375,0.03892869318
3.37,0.01462099155,0.03827220512
3.38,0.01614705042,0.03755331188
3.39,0.01763856022,0.0367735512
3.4,0.01909308413,0.03593456274
3.41,0.02050826291,0.03503808459
3.42,0.02188181888,0.03408594954
3.43,0.02321155983,0.03308008128
3.44,0.02449538267,0.03202249031
3.45,0.02573127689,0.03091526985
3.46,0.02691732787,0.02976059145
3.47,0.02805171998,0.02856070058
3.48,0.02913273939,0.02731791208
3.49,0.03015877674,0.02603460544
3.5,0.03112832959,0.02471322004
3.51,0.03204000464,0.02335625027
3.52,0.03289251966,0.02196624059
3.53,0.03368470528,0.0205457805
3.54,0.03441550648,0.01909749945
3.55,0.03508398393,0.0176240617
3.56,0.03568931497,0.0161281612
3.57,0.03623079447,0.01461251636
3.58,0.03670783539,0.01307986487
3.59,0.03711996912,0.01153295846
3.6,0.03746684561,0.00997455775
3.61,0.0377482332,0.008407427019
3.62,0.03796401832,0.006834329092
3.63,0.03811420487,0.005258020213
3.64,0.03819891339,0.003681244987
3.65,0.03821838009,0.002106731385
3.66,0.03817295553,0.0005371858097
3.67,0.0380631032,-0.001024711747
3.68,0.03788939785,-0.002576312462
3.69,0.03765252357,-0.004115003343
3.7,0.03735327176,-0.005638211776
3.71,0.03699253885,-0.007143409958
3.72,0.03657132383,-0.008628119208
3.73,0.03609072565,-0.01008991414
3.74,0.03555194043,-0.01152642672
3.75,0.03495625843,-0.0129353501
3.76,0.03430506101,-0.01431444244
3.77,0.03359981733,-0.01566153039
3.78,0.03284208093,-0.01697451258
3.79,0.03203348622,-0.01825136279
3.8,0.03117574483,-0.0194901331
3.81,0.03027064178,-0.02068895666
3.82,0.02932003167,-0.02184605049
3.83,0.0283258347,-0.02295971795
3.84,0.02729003259,-0.02402835104
3.85,0.02621466443,-0.02505043257
3.86,0.02510182257,-0.02602453806
3.87,0.02395364826,-0.02694933749
3.88,0.02277232742,-0.02782359682
3.89,0.02156008626,-0.02864617937
3.9,0.02031918693,-0.02941604691
3.91,0.01905192311,-0.0301322606
3.92,0.01776061563,-0.03079398179
3.93,0.01644760805,-0.0314004725
3.94,0.01511526228,-0.0319510958
3.95,0.01376595418,-0.03244531596
3.96,0.01240206923,-0.03288269844
3.97,0.01102599819,-0.03326290959
3.98,0.009640132831,-0.03358571635
3.99,0.008246861701,-0.03385098555
4,0.006848565951,-0.03405868322
4.01,0.005447615229,-0.03420887362
4.02,0.004046363643,-0.03430171809
4.03,0.002647145807,-0.03433747384
4.04,0.001252272965,-0.03431649247
4.05,-0.0001359707861,-0.03423921837
4.06,-0.001515332179,-0.03410618702
4.07,-0.002883592354,-0.03391802305
4.08,-0.004238570326,-0.03367543827
4.09,-0.005578126342,-0.03337922949
4.1,-0.006900165117,-0.03303027625
4.11,-0.008202638946,-0.03262953842
4.12,-0.00948355069,-0.0321780537
4.13,-0.01074095663,-0.03167693499
4.14,-0.0119729692,-0.03112736772
4.15,-0.01317775955,-0.030530607
4.16,-0.01435356001,-0.02988797477
4.17,-0.01549866639,-0.02920085682
4.18,-0.01661144013,-0.02847069976
4.19,-0.01769031033,-0.02769900791
4.2,-0.0187337756,-0.02688734019
4.21,-0.0197404058,-0.02603730686
4.22,-0.02070884363,-0.02515056632
4.23,-0.021637806,-0.02422882179
4.24,-0.02252608536,-0.02327381805
4.25,-0.02337255083,-0.02228733805
4.26,-0.02417614915,-0.0212711996
4.27,-0.02493590556,-0.02022725199
4.28,-0.02565092447,-0.01915737265
4.29,-0.02632039004,-0.01806346377
4.3,-0.02694356657,-0.01694744894
4.31,-0.02751979876,-0.01581126987
4.32,-0.02804851191,-0.01465688299
4.33,-0.02852921185,-0.01348625621
4.34,-0.02896148488,-0.01230136568
4.35,-0.02934499745,-0.01110419251
4.36,-0.02967949584,-0.009896719616
4.37,-0.0299648056,-0.008680928572
4.38,-0.030200831,-0.007458796533
4.39,-0.0303875542,-0.006232293184
4.4,-0.0305250345,-0.005003377768
4.41,-0.03061340731,-0.003773996165
4.42,-0.03065288313,-0.00254607804
4.43,-0.03064374638,-0.001321534059
4.44,-0.03058635411,-0.0001022531722
4.45,-0.03048113474,0.001109900023
4.46,-0.03032858651,0.002313087848
4.47,-0.03012927606,0.003505502027
4.48,-0.02988383676,0.004685366093
4.49,-0.02959296709,0.005850937706
4.5,-0.02925742882,0.007000510888
4.51,-0.0288780453,0.00813241818
4.52,-0.02845569947,0.009245032697
4.53,-0.02799133202,0.0103367701
4.54,-0.02748593933,0.0114060905
4.55,-0.02694057148,0.01245150022
4.56,-0.02635633013,0.01347155351
4.57,-0.02573436637,0.01446485417
4.58,-0.02507587861,0.01543005707
4.59,-0.02438211034,0.01636586954
4.6,-0.02365434786,0.01727105275
4.61,-0.02289391807,0.01814442293
4.62,-0.02210218616,0.01898485252
4.63,-0.02128055328,0.01979127124
4.64,-0.02043045424,0.02056266704
4.65,-0.01955335515,0.02129808702
4.66,-0.01865075105,0.02199663818
4.67,-0.0177241636,0.02265748813
4.68,-0.01677513867,0.02327986571
4.69,-0.01580524395,0.02386306153
4.7,-0.01481606666,0.02440642837
4.71,-0.0138092111,0.02490938159
4.72,-0.01278629633,0.02537139936
4.73,-0.01174895384,0.02579202288
4.74,-0.01069882515,0.02617085646
4.75,-0.009637559545,0.02650756759
4.76,-0.008566811709,0.02680188684
4.77,-0.00748823947,0.0270536078
4.78,-0.006403501508,0.0272625868
4.79,-0.005314255101,0.02742874272
4.8,-0.004222153899,0.02755205656
4.81,-0.003128845717,0.02763257107
4.82,-0.002035970356,0.02767039027
4.83,-0.0009451574584,0.02766567882
4.84,0.0001419756171,0.02761866149
4.85,0.001223825877,0.02752962237
4.86,0.002298806749,0.0273989042
4.87,0.003365350099,0.02722690747
4.88,0.004421908214,0.02701408961
4.89,0.005466955743,0.026760964
4.9,0.006498991607,0.02646809896
4.91,0.007516540859,0.02613611673
4.92,0.008518156508,0.02576569234
4.93,0.009502421298,0.02535755241
4.94,0.01046794944,0.02491247395
4.95,0.01141338831,0.0244312831
4.96,0.01233742009,0.02391485376
4.97,0.01323876334,0.02336410624
4.98,0.01411617459,0.02278000582
4.99,0.01496844977,0.02216356131
5,0.01579442574,0.02151582346
5.01,0.01659298159,0.0208378835
5.02,0.01736304005,0.02013087145
5.03,0.01810356872,0.01939595449
5.04,0.01881358133,0.01863433532
5.05,0.0194921389,0.0178472504
5.06,0.02013835086,0.01703596818
5.07,0.02075137608,0.01620178734
5.08,0.02133042387,0.01534603494
5.09,0.02187475493,0.01447006455
5.1,0.02238368219,0.01357525438
5.11,0.02285657164,0.01266300536
5.12,0.02329284304,0.01173473919
5.13,0.02369197063,0.01079189635
5.14,0.0240534837,0.009835934132
5.15,0.02437696716,0.008868324622
5.16,0.024662062,0.007890552652
5.17,0.02490846568,0.006904113758
5.18,0.02511593249,0.005910512114
5.19,0.02528427379,0.004911258445
5.2,0.0254133582,0.003907867945
5.21,0.02550311172,0.002901858168
5.22,0.02555351777,0.001894746932
5.23,0.02556461718,0.0008880501984
5.24,0.02553650807,-0.0001167200301
5.25,0.02546934564,-0.001118057827
5.26,0.02536334198,-0.002114465446
5.27,0.02521876568,-0.003104455426
5.28,0.02503594146,-0.004086552681
5.29,0.02481524969,-0.005059296584
5.3,0.02455712578,-0.006021243038
5.31,0.02426205962,-0.006970966521
5.32,0.02393059483,-0.007907062124
5.33,0.02356332797,-0.008828147562
5.34,0.02316090769,-0.009732865153
5.35,0.0227240338,-0.01061988378
5.36,0.02225345625,-0.01148790082
5.37,0.02174997404,-0.01233564402
5.38,0.0212144341,-0.01316187339
5.39,0.02064773001,-0.01396538298
5.4,0.02005080076,-0.01474500265
5.41,0.01942462932,-0.01549959986
5.42,0.01877024125,-0.01622808128
5.43,0.01808870318,-0.01692939445
5.44,0.01738112126,-0.01760252936
5.45,0.0166486395,-0.01824651996
5.46,0.01589243808,-0.0188604456
5.47,0.01511373163,-0.01944343248
5.48,0.0143137674,-0.01999465492
5.49,0.01349382339,-0.02051333666
5.5,0.01265520645,-0.02099875204
5.51,0.01179925028,-0.02145022714
5.52,0.01092731346,-0.02186714079
5.53,0.01004077737,-0.02224892558
5.54,0.009141044085,-0.02259506872
5.55,0.008229534232,-0.02290511288
5.56,0.007307684835,-0.02317865687
5.57,0.006376947088,-0.02341535633
5.58,0.005438784132,-0.02361492423
5.59,0.004494668784,-0.02377713141
5.6,0.003546081259,-0.02390180688
5.61,0.002594506865,-0.02398883815
5.62,0.001641433687,-0.02403817139
5.63,0.0006883502603,-0.02404981159
5.64,-0.0002632567652,-0.02402382248
5.65,-0.001211904963,-0.02396032653
5.66,-0.002156118468,-0.0238595047
5.67,-0.003094430305,-0.0237215962
5.68,-0.004025384717,-0.0235468981
5.69,-0.004947539473,-0.02333576488
5.7,-0.005859468164,-0.02308860784
5.71,-0.006759762471,-0.02280589448
5.72,-0.00764703442,-0.0224881477
5.73,-0.008519918594,-0.02213594501
5.74,-0.009377074324,-0.02174991757
5.75,-0.01021718783,-0.02133074915
5.76,-0.01103897435,-0.02087917505
5.77,-0.01184118016,-0.02039598086
5.78,-0.01262258463,-0.01988200122
5.79,-0.01338200217,-0.01933811839
5.8,-0.01411828413,-0.01876526085
5.81,-0.01483032066,-0.01816440173
5.82,-0.01551704246,-0.01753655723
5.83,-0.01617742254,-0.01688278491
5.84,-0.01681047782,-0.01620418197
5.85,-0.01741527073,-0.01550188336
5.86,-0.01799091071,-0.01477705998
5.87,-0.0185365556,-0.01403091666
5.88,-0.019051413,-0.01326469018
5.89,-0.01953474148,-0.0124796472
5.9,-0.01998585182,-0.01167708215
5.91,-0.02040410798,-0.01085831505
5.92,-0.02078892818,-0.0100246893
5.93,-0.02113978572,-0.009177569479
5.94,-0.0214562098,-0.008318338998
5.95,-0.02173778623,-0.007448397823
5.96,-0.021984158,-0.006569160124
5.97,-0.0221950258,-0.005682051908
5.98,-0.02237014842,-0.004788508636
5.99,-0.02250934303,-0.003889972826
6,-0.02261248539,-0.002987891642
