"Freq [GHz]","re(S(Tx_p1,Tx_p1)) []","im(S(Tx_p1,Tx_p1)) []"
1,-0.007012407837,-0.1511597558
1.01,-0.01220924721,-0.1507968948
1.02,-0.01741440826,-0.1502477444
1.03,-0.02261984397,-0.1495105788
1.04,-0.02781742696,-0.1485840852
1.05,-0.03299896942,-0.1474673629
1.06,-0.03815624276,-0.1461599226
1.07,-0.04328099714,-0.1446616847
1.08,-0.04836498068,-0.1429729759
1.09,-0.05339995838,-0.1410945269
1.1,-0.05837773079,-0.1390274676
1.11,-0.0632901523,-0.1367733231
1.12,-0.06812914914,-0.1343340075
1.13,-0.07288673698,-0.1317118188
1.14,-0.07755503809,-0.1289094313
1.15,-0.08212629818,-0.125929889
1.16,-0.08659290272,-0.1227765969
1.17,-0.0909473928,-0.119453313
1.18,-0.09518248057,-0.1159641389
1.19,-0.09929106408,-0.1123135099
1.2,-0.1032662417,-0.1085061849
1.21,-0.1071013259,-0.1045472355
1.22,-0.1107898565,-0.1004420346
1.23,-0.1143256133,-0.09619624486
1.24,-0.1177026285,-0.09181580594
1.25,-0.1209151977,-0.08730692227
1.26,-0.1239578908,-0.08267604975
1.27,-0.1268255628,-0.07792988228
1.28,-0.1295133624,-0.07307533801
1.29,-0.1320167419,-0.06811954514
1.3,-0.1343314647,-0.06306982756
1.31,-0.1364536131,-0.05793369012
1.32,-0.1383795952,-0.05271880373
1.33,-0.1401061512,-0.04743299026
1.34,-0.1416303587,-0.04208420723
1.35,-0.1429496375,-0.0366805324
1.36,-0.1440617537,-0.03123014823
1.37,-0.1449648232,-0.02574132624
1.38,-0.1456573145,-0.02022241135
1.39,-0.1461380503,-0.01468180619
1.4,-0.1464062092,-0.009127955374
1.41,-0.1464613264,-0.003569329892
1.42,-0.1463032931,0.00198558852
1.43,-0.1459323564,0.007528322862
1.44,-0.1453491176,0.01305041626
1.45,-0.1445545301,0.01854344719
1.46,-0.1435498971,0.02399904454
1.47,-0.1423368678,0.02940890248
1.48,-0.1409174337,0.0347647951
1.49,-0.1392939242,0.04005859076
1.5,-0.137469001,0.04528226624
1.51,-0.135445653,0.05042792054
1.52,-0.1332271897,0.05548778838
1.53,-0.1308172341,0.06045425334
1.54,-0.128219716,0.06531986067
1.55,-0.1254388637,0.07007732969
1.56,-0.1224791959,0.07471956582
1.57,-0.1193455127,0.07923967214
1.58,-0.1160428864,0.08363096059
1.59,-0.1125766522,0.08788696266
1.6,-0.1089523975,0.09200143962
1.61,-0.105175952,0.09596839231
1.62,-0.1012533766,0.09978207043
1.63,-0.0971909526,0.1034369813
1.64,-0.09299516973,0.106927898
1.65,-0.08867271487,0.1102498673
1.66,-0.08423045987,0.1133982169
1.67,-0.07967544938,0.1163685617
1.68,-0.07501488834,0.1191568105
1.69,-0.07025612941,0.121759171
1.7,-0.06540666015,0.1241721552
1.71,-0.06047409005,0.1263925839
1.72,-0.0554661375,0.12841759
1.73,-0.05039061664,0.1302446229
1.74,-0.04525542412,0.1318714501
1.75,-0.04006852583,0.1332961604
1.76,-0.03483794363,0.1345171648
1.77,-0.02957174203,0.1355331983
1.78,-0.02427801494,0.13634332
1.79,-0.01896487248,0.136946913
1.8,-0.01364042774,0.1373436844
1.81,-0.008312783815,0.1375336639
1.82,-0.002990020789,0.1375172022
1.83,0.002319817068,0.1372949689
1.84,0.007608733968,0.1368679501
1.85,0.01286879511,0.1362374451
1.86,0.01809213897,0.1354050627
1.87,0.02327098944,0.1343727173
1.88,0.02839766765,0.1331426246
1.89,0.03346460366,0.1317172959
1.9,0.03846434775,0.1300995333
1.91,0.04338958158,0.1282924237
1.92,0.04823312897,0.1262993323
1.93,0.0529879664,0.1241238961
1.94,0.05764723317,0.1217700169
1.95,0.06220424124,0.1192418537
1.96,0.06665248478,0.1165438149
1.97,0.07098564925,0.1136805506
1.98,0.07519762022,0.1106569436
1.99,0.07928249172,0.107478101
2,0.08323457432,0.1041493451
2.01,0.08704840269,0.1006762042
2.02,0.09071874283,0.09706440283
2.03,0.09424059888,0.09331985218
2.04,0.0976092195,0.08944864004
2.05,0.1008201038,0.08545702059
2.06,0.1038690071,0.08135140403
2.07,0.1067519455,0.07713834609
2.08,0.1094652013,0.0728245373
2.09,0.1120053265,0.06841679218
2.1,0.1143691473,0.06392203835
2.11,0.1165537668,0.05934730551
2.12,0.1185565683,0.05469971431
2.13,0.1203752178,0.04998646528
2.14,0.1220076658,0.04521482757
2.15,0.1234521492,0.0403921278
2.16,0.1247071922,0.03552573879
2.17,0.125771607,0.03062306838
2.18,0.1266444944,0.02569154825
2.19,0.1273252435,0.02073862279
2.2,0.1278135311,0.01577173797
2.21,0.1281093208,0.01079833037
2.22,0.1282128614,0.005825816269
2.23,0.1281246856,0.00086158077
2.24,0.1278456074,-0.004087032846
2.25,0.1273767196,-0.009012733721
2.26,0.126719391,-0.01390829384
2.27,0.1258752627,-0.01876655829
2.28,0.124846245,-0.02358045539
2.29,0.1236345124,-0.02834300655
2.3,0.1222425002,-0.03304733604
2.31,0.1206728991,-0.03768668048
2.32,0.11892865,-0.04225439813
2.33,0.1170129391,-0.04674397794
2.34,0.1149291917,-0.05114904841
2.35,0.1126810663,-0.05546338613
2.36,0.1102724483,-0.0596809241
2.37,0.1077074434,-0.06379575978
2.38,0.1049903706,-0.06780216285
2.39,0.102125755,-0.0716945827
2.4,0.0991183206,-0.0754676556
2.41,0.0959729825,-0.07911621163
2.42,0.09269483912,-0.08263528119
2.43,0.08928916408,-0.08602010136
2.44,0.08576139795,-0.08926612176
2.45,0.08211713976,-0.09236901021
2.46,0.0783621384,-0.09532465803
2.47,0.0745022838,-0.09812918499
2.48,0.07054359797,-0.1007789439
2.49,0.06649222591,-0.103270525
2.5,0.06235442644,-0.1056007595
2.51,0.0581365628,-0.107766724
2.52,0.05384509328,-0.1097657426
2.53,0.0494865617,-0.1115953906
2.54,0.04506758778,-0.1132534969
2.55,0.04059485754,-0.1147381458
2.56,0.03607511357,-0.1160476791
2.57,0.03151514529,-0.1171806976
2.58,0.02692177922,-0.1181360618
2.59,0.02230186916,-0.1189128931
2.6,0.01766228648,-0.119510574
2.61,0.01300991029,-0.1199287479
2.62,0.008351617762,-0.1201673193
2.63,0.003694274397,-0.1202264523
2.64,-0.0009552755966,-0.1201065705
2.65,-0.005590218904,-0.1198083549
2.66,-0.01020378261,-0.1193327425
2.67,-0.01478924363,-0.1186809242
2.68,-0.01933993804,-0.1178543422
2.69,-0.02384927031,-0.1168546877
2.7,-0.02831072239,-0.1156838973
2.71,-0.03271786269,-0.1143441501
2.72,-0.03706435494,-0.1128378636
2.73,-0.04134396684,-0.1111676901
2.74,-0.04555057858,-0.1093365118
2.75,-0.04967819123,-0.1073474368
2.76,-0.05372093485,-0.1052037937
2.77,-0.0576730765,-0.1029091269
2.78,-0.06152902801,-0.1004671904
2.79,-0.06528335352,-0.09788194269
2.8,-0.06893077684,-0.09515754052
2.81,-0.07246618853,-0.09229833247
2.82,-0.07588465281,-0.08930885259
2.83,-0.07918141417,-0.08619381356
2.84,-0.08235190372,-0.08295809972
2.85,-0.08539174533,-0.07960675983
2.86,-0.08829676143,-0.07614499963
2.87,-0.0910629786,-0.0725781742
2.88,-0.09368663285,-0.06891178014
2.89,-0.09616417457,-0.06515144752
2.9,-0.09849227322,-0.0613029317
2.91,-0.1006678217,-0.05737210501
2.92,-0.1026879406,-0.05336494819
2.93,-0.1045499816,-0.04928754174
2.94,-0.1062515312,-0.04514605719
2.95,-0.1077904139,-0.04094674816
2.96,-0.1091646944,-0.03669594135
2.97,-0.110372681,-0.03240002745
2.98,-0.1114129269,-0.02806545196
2.99,-0.1122842323,-0.02369870592
3,-0.1129856459,-0.01930631656
3.01,-0.1135164659,-0.01489483801
3.02,-0.1138762407,-0.01047084181
3.03,-0.1140647694,-0.006040907519
3.04,-0.1140821016,-0.001611613294
3.05,-0.1139285376,0.002810473574
3.06,-0.1136046274,0.007218806073
3.07,-0.1131111694,0.01160686686
3.08,-0.1124492099,0.01596817764
3.09,-0.1116200405,0.02029630843
3.1,-0.1106251968,0.02458488682
3.11,-0.1094664554,0.02882760716
3.12,-0.1081458316,0.03301823958
3.13,-0.1066655761,0.037150639
3.14,-0.1050281719,0.04121875393
3.15,-0.1032363301,0.04521663528
3.16,-0.1012929863,0.04913844484
3.17,-0.09920129598,0.05297846382
3.18,-0.09696462972,0.05673110101
3.19,-0.09458656849,0.06039090095
3.2,-0.09207089811,0.06395255181
3.21,-0.0894216037,0.06741089307
3.22,-0.08664286381,0.07076092304
3.23,-0.08373904418,0.07399780612
3.24,-0.08071469132,0.07711687981
3.25,-0.07757452577,0.08011366156
3.26,-0.07432343514,0.08298385526
3.27,-0.07096646681,0.0857233575
3.28,-0.06750882053,0.08832826363
3.29,-0.06395584067,0.09079487343
3.3,-0.06031300832,0.09311969652
3.31,-0.05658593315,0.09529945754
3.32,-0.05278034507,0.09733110089
3.33,-0.04890208575,0.09921179528
3.34,-0.04495709988,0.1009389379
3.35,-0.04095142639,0.1025101581
3.36,-0.03689118938,0.1039233213
3.37,-0.03278258905,0.1051765316
3.38,-0.02863189239,0.1062681349
3.39,-0.02444542385,0.1071967213
3.4,-0.02022955586,0.1079611273
3.41,-0.0159906993,0.1085604374
3.42,-0.01173529384,0.1089939851
3.43,-0.00746979836,0.1092613546
3.44,-0.003200681146,0.109362381
3.45,0.001065589779,0.1092971504
3.46,0.005322556423,0.1090660001
3.47,0.009563780557,0.1086695176
3.48,0.01378285344,0.1081085403
3.49,0.01797340551,0.1073841538
3.5,0.02212911601,0.1064976903
3.51,0.02624372256,0.1054507266
3.52,0.03031103068,0.1042450818
3.53,0.03432492317,0.1028828142
3.54,0.03827936941,0.1013662185
3.55,0.04216843453,0.09969782223
3.56,0.04598628845,0.09788038156
3.57,0.04972721478,0.09591687744
3.58,0.05338561951,0.09381051085
3.59,0.05695603956,0.09156469786
3.6,0.06043315114,0.08918306446
3.61,0.06381177788,0.0866694409
3.62,0.06708689872,0.08402785579
3.63,0.07025365566,0.08126252992
3.64,0.07330736115,0.0783778697
3.65,0.07624350525,0.07537846033
3.66,0.07905776263,0.07226905876
3.67,0.08174599911,0.06905458622
3.68,0.08430427804,0.06574012069
3.69,0.08672886631,0.06233088893
3.7,0.08901624012,0.05883225839
3.71,0.09116309032,0.05524972886
3.72,0.09316632749,0.05158892389
3.73,0.09502308667,0.04785558204
3.74,0.09673073174,0.04405554793
3.75,0.09828685942,0.04019476311
3.76,0.09968930291,0.03627925677
3.77,0.1009361352,0.03231513637
3.78,0.102025672,0.028308578
3.79,0.1029564741,0.02426581681
3.8,0.1037273497,0.02019313719
3.81,0.104337356,0.01609686293
3.82,0.1047858008,0.01198334734
3.83,0.1050722431,0.007858963288
3.84,0.1051964938,0.00373009317
3.85,0.105158616,-0.0003968810547
3.86,0.1049589246,-0.004515587897
3.87,0.1045979855,-0.00861967633
3.88,0.1040766148,-0.01270282575
3.89,0.1033958775,-0.0167587559
3.9,0.102557085,-0.0207812367
3.91,0.1015617936,-0.02476409806
3.92,0.1004118013,-0.02870123951
3.93,0.09910914507,-0.03258663981
3.94,0.09765609747,-0.03641436631
3.95,0.09605516266,-0.04017858435
3.96,0.09430907238,-0.04387356627
3.97,0.09242078139,-0.04749370047
3.98,0.0903934626,-0.05103350011
3.99,0.08823050185,-0.05448761171
4,0.08593549231,-0.05785082346
4.01,0.0835122286,-0.06111807337
4.02,0.08096470056,-0.06428445713
4.03,0.0782970867,-0.06734523569
4.04,0.07551374739,-0.07029584261
4.05,0.07261921769,-0.07313189115
4.06,0.06961819997,-0.07584918095
4.07,0.06651555625,-0.07844370458
4.08,0.06331630022,-0.08091165357
4.09,0.06002558913,-0.08324942429
4.1,0.05664871538,-0.08545362339
4.11,0.0531910979,-0.08752107294
4.12,0.04965827336,-0.08944881516
4.13,0.04605588719,-0.09123411688
4.14,0.04238968442,-0.09287447351
4.15,0.03866550039,-0.09436761276
4.16,0.03488925129,-0.0957114979
4.17,0.03106692461,-0.09690433063
4.18,0.02720456946,-0.09794455359
4.19,0.02330828684,-0.09883085248
4.2,0.01938421979,-0.09956215774
4.21,0.01543854352,-0.1001376459
4.22,0.0114774555,-0.1005567403
4.23,0.007507165493,-0.1008191119
4.24,0.003533885616,-0.1009246792
4.25,-0.0004361795814,-0.1008736078
4.26,-0.004396843039,-0.1006663099
4.27,-0.008341945045,-0.100303443
4.28,-0.01226536304,-0.09978590857
4.29,-0.01616102134,-0.09911485005
4.3,-0.02002290076,-0.09829165048
4.31,-0.02384504815,-0.09731792991
4.32,-0.02762158578,-0.09619554224
4.33,-0.03134672058,-0.09492657186
4.34,-0.03501475328,-0.09351332975
4.35,-0.03862008727,-0.09195834935
4.36,-0.04215723739,-0.090264382
4.37,-0.04562083847,-0.08843439204
4.38,-0.04900565362,-0.08647155162
4.39,-0.05230658233,-0.08437923513
4.4,-0.05551866835,-0.08216101332
4.41,-0.05863710728,-0.07982064716
4.42,-0.0616572539,-0.07736208131
4.43,-0.0645746292,-0.07478943742
4.44,-0.0673849272,-0.07210700707
4.45,-0.07008402139,-0.06931924446
4.46,-0.07266797087,-0.06643075891
4.47,-0.07513302621,-0.06344630706
4.48,-0.07747563496,-0.06037078488
4.49,-0.07969244682,-0.05720921949
4.5,-0.08178031846,-0.05396676072
4.51,-0.08373631801,-0.0506486726
4.52,-0.08555772917,-0.04726032459
4.53,-0.08724205497,-0.04380718271
4.54,-0.08878702116,-0.04029480052
4.55,-0.09019057919,-0.03672881002
4.56,-0.09145090891,-0.03311491239
4.57,-0.09256642076,-0.02945886868
4.58,-0.09353575769,-0.02576649047
4.59,-0.0943577966,-0.02204363038
4.6,-0.09503164949,-0.01829617261
4.61,-0.09555666412,-0.01453002349
4.62,-0.0959324244,-0.01075110193
4.63,-0.09615875025,-0.006965329949
4.64,-0.09623569726,-0.003178623224
4.65,-0.09616355576,0.0006031183335
4.66,-0.0959428497,0.004374019942
4.67,-0.095574335,0.008128241232
4.68,-0.09505899767,0.01185998545
4.69,-0.09439805144,0.01556350854
4.7,-0.09359293509,0.01923312814
4.71,-0.09264530944,0.02286323241
4.72,-0.09155705392,0.02644828873
4.73,-0.0903302629,0.02998285225
4.74,-0.08896724159,0.03346157421
4.75,-0.08747050164,0.03687921019
4.76,-0.08584275651,0.04023062798
4.77,-0.08408691636,0.04351081546
4.78,-0.08220608281,0.04671488801
4.79,-0.08020354331,0.04983809592
4.8,-0.07808276529,0.05287583137
4.81,-0.07584738996,0.05582363525
4.82,-0.07350122598,0.05867720371
4.83,-0.07104824277,0.06143239436
4.84,-0.06849256365,0.06408523228
4.85,-0.06583845876,0.06663191566
4.86,-0.06309033774,0.06906882119
4.87,-0.06025274223,0.07139250909
4.88,-0.05733033824,0.07359972787
4.89,-0.05432790828,0.07568741874
4.9,-0.05125034335,0.0776527197
4.91,-0.04810263485,0.0794929693
4.92,-0.04488986631,0.08120571005
4.93,-0.04161720502,0.08278869148
4.94,-0.03828989355,0.08423987291
4.95,-0.03491324126,0.08555742579
4.96,-0.03149261563,0.08673973576
4.97,-0.02803343364,0.08778540432
4.98,-0.02454115302,0.08869325017
4.99,-0.02102126358,0.08946231015
5,-0.01747927844,0.09009183993
5.01,-0.01392072529,0.09058131421
5.02,-0.01035113769,0.09093042673
5.03,-0.006776046381,0.09113908975
5.04,-0.003200970671,0.09120743337
5.05,0.0003685901739,0.09113580436
5.06,0.003927165409,0.09092476475
5.07,0.007469321235,0.09057509003
5.08,0.01098966911,0.09008776707
5.09,0.01448287394,0.08946399165
5.1,0.01794366219,0.08870516573
5.11,0.02136682979,0.0878128944
5.12,0.02474724994,0.08678898251
5.13,0.02807988072,0.085635431
5.14,0.0313597726,0.08435443296
5.15,0.03458207564,0.08294836938
5.16,0.03774204663,0.08141980469
5.17,0.04083505594,0.07977148194
5.18,0.04385659419,0.0780063178
5.19,0.0468022787,0.07612739729
5.2,0.04966785967,0.0741379683
5.21,0.0524492262,0.07204143583
5.22,0.05514241197,0.06984135603
5.23,0.05774360071,0.06754143013
5.24,0.06024913145,0.065145498
5.25,0.0626555034,0.06265753173
5.26,0.06495938065,0.06008162887
5.27,0.06715759653,0.05742200558
5.28,0.06924715773,0.05468298969
5.29,0.07122524809,0.05186901352
5.3,0.07308923213,0.04898460664
5.31,0.07483665824,0.04603438851
5.32,0.07646526162,0.04302306101
5.33,0.07797296689,0.03995540091
5.34,0.07935789039,0.03683625221
5.35,0.08061834219,0.0336705185
5.36,0.08175282778,0.03046315519
5.37,0.08276004946,0.02721916177
5.38,0.08363890741,0.02394357399
5.39,0.08438850047,0.02064145606
5.4,0.08500812661,0.01731789285
5.41,0.08549728307,0.01397798209
5.42,0.08585566622,0.01062682657
5.43,0.08608317113,0.00726952647
5.44,0.08617989079,0.003911171577
5.45,0.08614611513,0.0005568337219
5.46,0.08598232962,-0.002788440816
5.47,0.08568921369,-0.006119638785
5.48,0.08526763882,-0.009431787357
5.49,0.08471866634,-0.01271996142
5.5,0.08404354501,-0.01597929074
5.51,0.08324370827,-0.01920496707
5.52,0.08232077126,-0.02239225101
5.53,0.08127652758,-0.02553647882
5.54,0.08011294581,-0.02863306908
5.55,0.07883216576,-0.03167752912
5.56,0.07743649453,-0.03466546136
5.57,0.07592840229,-0.03759256943
5.58,0.07431051789,-0.04045466412
5.59,0.07258562422,-0.04324766911
5.6,0.07075665339,-0.04596762658
5.61,0.0688266817,-0.04861070251
5.62,0.06679892445,-0.05117319184
5.63,0.06467673054,-0.0536515234
5.64,0.06246357692,-0.05604226459
5.65,0.06016306288,-0.05834212584
5.66,0.05777890419,-0.06054796487
5.67,0.05531492711,-0.06265679067
5.68,0.05277506225,-0.06466576725
5.69,0.0501633383,-0.06657221714
5.7,0.04748387573,-0.06837362465
5.71,0.04474088027,-0.07006763887
5.72,0.04193863638,-0.0716520764
5.73,0.03908150064,-0.07312492386
5.74,0.03617389501,-0.0744843401
5.75,0.03322030012,-0.07572865816
5.76,0.0302252484,-0.07685638699
5.77,0.02719331728,-0.07786621285
5.78,0.02412912228,-0.07875700053
5.79,0.02103731015,-0.07952779422
5.8,0.0179225519,-0.0801778182
5.81,0.01478953594,-0.08070647716
5.82,0.01164296115,-0.0811133564
5.83,0.008487530025,-0.08139822161
5.84,0.00532794181,-0.08156101854
5.85,0.002168885685,-0.08160187231
5.86,-0.0009849659929,-0.08152108654
5.87,-0.004128964399,-0.08131914215
5.88,-0.007258490884,-0.08099669597
5.89,-0.01036896354,-0.08055457913
5.9,-0.01345584367,-0.07999379511
5.91,-0.01651464221,-0.07931551766
5.92,-0.01954092598,-0.07852108843
5.93,-0.0225303239,-0.0776120144
5.94,-0.02547853303,-0.07658996503
5.95,-0.0283813245,-0.0754567693
5.96,-0.03123454937,-0.07421441242
5.97,-0.03403414424,-0.07286503245
5.98,-0.0367761368,-0.07141091658
5.99,-0.0394566512,-0.06985449737
6,-0.04207191326,-0.06819834868
