"Freq [GHz]","re(S(Tx_p1,Tx_p1)) []","im(S(Tx_p1,Tx_p1)) []"
1,-0.0387926384,-0.1713611073
1.01,-0.04520771371,-0.1698497915
1.02,-0.05158970054,-0.1680840814
1.03,-0.05792693089,-0.1660637575
1.04,-0.06420771195,-0.1637891978
1.05,-0.07042035505,-0.1612613757
1.06,-0.07655320449,-0.1584818561
1.07,-0.08259466591,-0.1554527909
1.08,-0.0885332344,-0.1521769127
1.09,-0.09435752213,-0.1486575283
1.1,-0.1000562856,-0.1448985102
1.11,-0.1056184525,-0.1409042874
1.12,-0.1110331475,-0.1366798349
1.13,-0.1162897185,-0.1322306623
1.14,-0.1213777608,-0.1275628015
1.15,-0.1262871423,-0.1226827926
1.16,-0.1310080265,-0.1175976698
1.17,-0.1355308954,-0.1123149457
1.18,-0.139846572,-0.1068425946
1.19,-0.143946241,-0.1011890355
1.2,-0.1478214695,-0.09536311324
1.21,-0.1514642263,-0.08937408
1.22,-0.1548669006,-0.08323157485
1.23,-0.1580223194,-0.07694560329
1.24,-0.1609237641,-0.0705265158
1.25,-0.163564986,-0.06398498573
1.26,-0.1659402207,-0.0573319866
1.27,-0.1680442018,-0.0505787688
1.28,-0.1698721727,-0.04373683577
1.29,-0.1714198982,-0.03681791969
1.3,-0.1726836741,-0.02983395672
1.31,-0.1736603362,-0.02279706191
1.32,-0.1743472682,-0.01571950371
1.33,-0.1747424077,-0.008613678301
1.34,-0.174844252,-0.001492083575
1.35,-0.1746518616,0.005632706921
1.36,-0.1741648638,0.01274807025
1.37,-0.1733834534,0.01984136035
1.38,-0.1723083941,0.02689993437
1.39,-0.1709410171,0.03391117888
1.4,-0.1692832195,0.04086253606
1.41,-0.1673374607,0.04774152964
1.42,-0.1651067586,0.05453579075
1.43,-0.1625946836,0.06123308338
1.44,-0.1598053524,0.06782132962
1.45,-0.1567434198,0.0742886345
1.46,-0.1534140698,0.08062331044
1.47,-0.1498230058,0.08681390114
1.48,-0.1459764392,0.09284920513
1.49,-0.1418810775,0.09871829856
1.5,-0.1375441111,0.1044105576
1.51,-0.1329731989,0.1099156798
1.52,-0.1281764534,0.1152237055
1.53,-0.1231624245,0.1203250376
1.54,-0.1179400826,0.1252104611
1.55,-0.112518801,0.1298711618
1.56,-0.106908337,0.1342987439
1.57,-0.1011188127,0.1384852471
1.58,-0.09516069493,0.1424231624
1.59,-0.08904477427,0.1461054469
1.6,-0.08278214381,0.1495255384
1.61,-0.07638417707,0.1526773676
1.62,-0.06986250541,0.155555371
1.63,-0.06322899499,0.1581545012
1.64,-0.05649572324,0.1604702367
1.65,-0.04967495494,0.1624985914
1.66,-0.04277911797,0.1642361214
1.67,-0.03582077873,0.1656799322
1.68,-0.02881261735,0.1668276839
1.69,-0.02176740267,0.1676775953
1.7,-0.0146979671,0.1682284473
1.71,-0.007617181352,0.1684795849
1.72,-0.0005379292325,0.168430918
1.73,0.006526917682,0.1680829211
1.74,0.01356452521,0.1674366318
1.75,0.02056212165,0.1664936485
1.76,0.02750702268,0.1652561262
1.77,0.03438665606,0.1637267724
1.78,0.04118858604,0.1619088405
1.79,0.04790053743,0.1598061233
1.8,0.05451041941,0.1574229447
1.81,0.06100634874,0.1547641504
1.82,0.06737667269,0.1518350981
1.83,0.07360999137,0.1486416463
1.84,0.07969517947,0.1451901419
1.85,0.08562140754,0.1414874071
1.86,0.09137816247,0.1375407258
1.87,0.09695526745,0.1333578283
1.88,0.1023429011,0.1289468756
1.89,0.1075316157,0.1243164427
1.9,0.1125123554,0.1194755017
1.91,0.1172764722,0.1144334029
1.92,0.1218157427,0.1091998567
1.93,0.1261223824,0.1037849135
1.94,0.1301890607,0.0981989439
1.95,0.1340089133,0.09245261788
1.96,0.1375755552,0.0865568834
1.97,0.1408830913,0.08052294476
1.98,0.1439261272,0.07436224031
1.99,0.1466997782,0.06808641984
2,0.1491996776,0.06170732157
2.01,0.1514219839,0.05523694884
2.02,0.1533633869,0.04868744659
2.03,0.1550211125,0.0420710775
2.04,0.1563929272,0.03540019812
2.05,0.1574771404,0.02868723476
2.06,0.1582726067,0.02194465939
2.07,0.1587787262,0.01518496547
2.08,0.1589954447,0.008420643851
2.09,0.1589232517,0.001664158718
2.1,0.1585631781,-0.005072076304
2.11,0.1579167928,-0.0117757219
2.12,0.1569861981,-0.01843453656
2.13,0.1557740236,-0.02503639987
2.14,0.1542834204,-0.0315693354
2.15,0.1525180525,-0.03802153328
2.16,0.1504820887,-0.04438137242
2.17,0.1481801932,-0.05063744217
2.18,0.1456175142,-0.05677856361
2.19,0.1427996735,-0.06279381024
2.2,0.1397327533,-0.06867252812
2.21,0.1364232834,-0.07440435541
2.22,0.1328782271,-0.07997924125
2.23,0.1291049664,-0.08538746401
2.24,0.1251112863,-0.09061964875
2.25,0.1209053583,-0.09566678403
2.26,0.1164957239,-0.1005202378
2.27,0.1118912762,-0.1051717728
2.28,0.1071012424,-0.1096135607
2.29,0.1021351639,-0.1138381954
2.3,0.09700287786,-0.1178387064
2.31,0.09171449659,-0.1216085697
2.32,0.08628038743,-0.125141719
2.33,0.08071115184,-0.1284325554
2.34,0.07501760424,-0.1314759568
2.35,0.0692107505,-0.1342672849
2.36,0.0633017661,-0.1368023932
2.37,0.05730197412,-0.1390776322
2.38,0.05122282296,-0.1410898548
2.39,0.04507586396,-0.1428364201
2.4,0.0388727289,-0.1443151966
2.41,0.03262510747,-0.1455245639
2.42,0.02634472464,-0.1464634139
2.43,0.02004331812,-0.1471311504
2.44,0.01373261595,-0.1475276888
2.45,0.007424314068,-0.1476534533
2.46,0.001130054157,-0.1475093742
2.47,-0.00513859835,-0.1470968843
2.48,-0.01137017601,-0.1464179132
2.49,-0.01755333083,-0.1454748823
2.5,-0.02367685536,-0.1442706971
2.51,-0.02972970349,-0.1428087405
2.52,-0.03570101075,-0.1410928631
2.53,-0.04158011421,-0.1391273748
2.54,-0.04735657189,-0.1369170337
2.55,-0.05302018167,-0.1344670351
2.56,-0.05856099958,-0.1317830002
2.57,-0.06396935755,-0.1288709624
2.58,-0.06923588057,-0.1257373548
2.59,-0.0743515031,-0.1223889954
2.6,-0.07930748491,-0.1188330725
2.61,-0.08409542612,-0.1150771294
2.62,-0.08870728157,-0.1111290482
2.63,-0.09313537441,-0.1069970329
2.64,-0.09737240886,-0.1026895927
2.65,-0.1014114823,-0.09821552404
2.66,-0.1052460963,-0.09358389223
2.67,-0.1088701673,-0.08880401328
2.68,-0.1122780354,-0.0838854347
2.69,-0.115464474,-0.0788379162
2.7,-0.1184246965,-0.07367141009
2.71,-0.1211543639,-0.06839604137
2.72,-0.1236495903,-0.06302208758
2.73,-0.1259069481,-0.05755995854
2.74,-0.1279234722,-0.05202017583
2.75,-0.1296966632,-0.04641335227
2.76,-0.1312244893,-0.04075017126
2.77,-0.1325053883,-0.03504136612
2.78,-0.1335382678,-0.02929769951
2.79,-0.1343225044,-0.02352994276
2.8,-0.1348579429,-0.01774885548
2.81,-0.1351448939,-0.01196516512
2.82,-0.1351841304,-0.006189546901
2.83,-0.1349768843,-0.0004326037703
2.84,-0.1345248409,0.005295153249
2.85,-0.1338301339,0.01098332449
2.86,-0.1328953384,0.01662164073
2.87,-0.1317234635,0.02219998192
2.88,-0.1303179446,0.02770839551
2.89,-0.128682634,0.03313711436
2.9,-0.1268217916,0.03847657419
2.91,-0.1247400744,0.04371743049
2.92,-0.1224425252,0.04885057501
2.93,-0.1199345613,0.05386715161
2.94,-0.1172219614,0.05875857152
2.95,-0.1143108534,0.06351652809
2.96,-0.1112077,0.06813301082
2.97,-0.1079192851,0.07260031878
2.98,-0.1044526986,0.07691107334
2.99,-0.1008153216,0.08105823021
3,-0.09701481046,0.08503509073
3.01,-0.09305908069,0.08883531253
3.02,-0.08895629061,0.09245291929
3.03,-0.08471482432,0.09588230988
3.04,-0.08034327459,0.09911826661
3.05,-0.07585042529,0.1021559628
3.06,-0.07124523371,0.1049909694
3.07,-0.06653681256,0.1076192611
3.08,-0.06173441181,0.1100372212
3.09,-0.0568474004,0.1122416459
3.1,-0.05188524783,0.1142297482
3.11,-0.04685750569,0.1159991599
3.12,-0.04177378911,0.1175479339
3.13,-0.03664375826,0.118874545
3.14,-0.03147709985,0.1199778902
3.15,-0.02628350873,0.1208572882
3.16,-0.02107266954,0.1215124775
3.17,-0.01585423858,0.121943615
3.18,-0.0106378258,0.1221512721
3.19,-0.005432976989,0.1221364318
3.2,-0.0002491562564,0.1219004834
3.21,0.004904271254,0.121445218
3.22,0.01001805633,0.1207728218
3.23,0.01508308233,0.1198858699
3.24,0.02009038144,0.1187873185
3.25,0.02503115054,0.1174804972
3.26,0.02989676667,0.1159691
3.27,0.03467880202,0.114257176
3.28,0.03936903844,0.1123491193
3.29,0.04395948148,0.1102496586
3.3,0.0484423739,0.1079638461
3.31,0.05281020857,0.1054970455
3.32,0.05705574092,0.1028549201
3.33,0.0611720007,0.1000434202
3.34,0.06515230318,0.09706876951
3.35,0.06899025972,0.09393745208
3.36,0.0726797877,0.09065619812
3.37,0.0762151198,0.08723196967
3.38,0.0795908126,0.08367194599
3.39,0.08280175454,0.07998350856
3.4,0.08584317314,0.07617422583
3.41,0.08871064155,0.07225183775
3.42,0.09140008439,0.06822424002
3.43,0.0939077829,0.06409946824
3.44,0.09623037935,0.05988568187
3.45,0.09836488072,0.05559114805
3.46,0.1003086617,0.05122422539
3.47,0.102059467,0.04679334767
3.48,0.1036154126,0.04230700751
3.49,0.1049749872,0.03777374009
3.5,0.1061370516,0.03320210689
3.51,0.1071008386,0.02860067947
3.52,0.1078659514,0.02397802341
3.53,0.1084323619,0.01934268238
3.54,0.1088004079,0.0147031623
3.55,0.1089707896,0.01006791577
3.56,0.1089445658,0.005445326712
3.57,0.108723149,0.0008436952063
3.58,0.1083083007,-0.003728777331
3.59,0.1077021246,-0.008264002711
3.6,0.1069070608,-0.01275402019
3.61,0.1059258784,-0.01719101034
3.62,0.104761668,-0.02156730854
3.63,0.1034178331,-0.02587541808
3.64,0.1018980821,-0.03010802281
3.65,0.1002064182,-0.03425799941
3.66,0.09834713028,-0.03831842911
3.67,0.09632478237,-0.04228260902
3.68,0.09414420325,-0.04614406292
3.69,0.09181047526,-0.0498965515
3.7,0.08932892293,-0.05353408213
3.71,0.08670510115,-0.05705091808
3.72,0.08394478303,-0.0604415871
3.73,0.08105394748,-0.06370088958
3.74,0.07803876644,-0.06682390596
3.75,0.0749055919,-0.06980600367
3.76,0.07166094267,-0.07264284345
3.77,0.06831149093,-0.07533038501
3.78,0.06486404865,-0.07786489216
3.79,0.06132555379,-0.08024293724
3.8,0.05770305643,-0.082461405
3.81,0.05400370481,-0.08451749583
3.82,0.05023473124,-0.08640872835
3.83,0.04640343806,-0.08813294144
3.84,0.04251718352,-0.08968829557
3.85,0.0385833677,-0.09107327357
3.86,0.03460941845,-0.09228668075
3.87,0.03060277745,-0.09332764448
3.88,0.02657088631,-0.09419561307
3.89,0.0225211728,-0.0948903541
3.9,0.01846103727,-0.09541195224
3.91,0.01439783916,-0.09576080634
3.92,0.0103388838,-0.09593762607
3.93,0.006291409333,-0.09594342799
3.94,0.002262573956,-0.09577953104
3.95,-0.001740556629,-0.09544755152
3.96,-0.005711021446,-0.09494939759
3.97,-0.009641976192,-0.0942872632
3.98,-0.01352670484,-0.09346362159
3.99,-0.01735863093,-0.09248121834
4,-0.02113132843,-0.09134306389
4.01,-0.02483853231,-0.09005242576
4.02,-0.02847414864,-0.08861282019
4.03,-0.03203226431,-0.08702800357
4.04,-0.03550715632,-0.08530196336
4.05,-0.03889330064,-0.08343890872
4.06,-0.04218538057,-0.08144326082
4.07,-0.04537829468,-0.07931964279
4.08,-0.04846716429,-0.07707286946
4.09,-0.05144734039,-0.07470793677
4.1,-0.05431441014,-0.07223001097
4.11,-0.05706420282,-0.0696444176
4.12,-0.05969279529,-0.06695663027
4.13,-0.06219651695,-0.06417225929
4.14,-0.06457195414,-0.06129704011
4.15,-0.06681595409,-0.05833682167
4.16,-0.06892562822,-0.05529755466
4.17,-0.07089835507,-0.05218527965
4.18,-0.0727317826,-0.04900611521
4.19,-0.07442382995,-0.045766246
4.2,-0.07597268879,-0.04247191083
4.21,-0.07737682403,-0.03912939073
4.22,-0.07863497407,-0.0357449971
4.23,-0.07974615053,-0.03232505987
4.24,-0.08070963748,-0.02887591578
4.25,-0.08152499013,-0.02540389671
4.26,-0.0821920331,-0.02191531823
4.27,-0.08271085814,-0.01841646819
4.28,-0.08308182139,-0.0149135955
4.29,-0.08330554022,-0.0114128992
4.3,-0.08338288954,-0.007920517561
4.31,-0.08331499774,-0.004442517532
4.32,-0.08310324215,-0.0009848843939
4.33,-0.08274924412,0.002446488339
4.34,-0.08225486365,0.005845808737
4.35,-0.0816221937,0.009207395987
4.36,-0.08085355403,0.01252568961
4.37,-0.07995148481,0.01579525838
4.38,-0.07891873976,0.01901080888
4.39,-0.07775827903,0.02216719374
4.4,-0.07647326178,0.02525941951
4.41,-0.07506703846,0.02828265417
4.42,-0.07354314278,0.03123223423
4.43,-0.07190528345,0.03410367149
4.44,-0.07015733574,0.03689265937
4.45,-0.06830333269,0.03959507886
4.46,-0.06634745628,0.04220700402
4.47,-0.0642940283,0.04472470713
4.48,-0.06214750108,0.04714466333
4.49,-0.05991244816,0.04946355492
4.5,-0.05759355473,0.05167827515
4.51,-0.05519560802,0.05378593167
4.52,-0.05272348762,0.05578384947
4.53,-0.05018215573,0.0576695734
4.54,-0.04757664731,0.0594408703
4.55,-0.0449120603,0.06109573064
4.56,-0.04219354575,0.06263236976
4.57,-0.03942629801,0.0640492287
4.58,-0.03661554495,0.06534497453
4.59,-0.03376653817,0.06651850036
4.6,-0.03088454338,0.06756892488
4.61,-0.02797483079,0.06849559146
4.62,-0.0250426656,0.06929806692
4.63,-0.02209329863,0.06997613984
4.64,-0.01913195712,0.07052981851
4.65,-0.01616383559,0.07095932853
4.66,-0.01319408699,0.07126510994
4.67,-0.01022781387,0.07144781414
4.68,-0.007270059919,0.07150830029
4.69,-0.004325801581,0.07144763152
4.7,-0.00139993996,0.07126707073
4.71,0.00150270706,0.07096807606
4.72,0.004377412447,0.07055229615
4.73,0.007219547396,0.07002156498
4.74,0.01002458843,0.06937789656
4.75,0.01278812423,0.06862347924
4.76,0.01550586215,0.06776066988
4.77,0.01817363452,0.06679198768
4.78,0.02078740448,0.06572010789
4.79,0.02334327172,0.06454785524
4.8,0.02583747767,0.06327819717
4.81,0.02826641058,0.06191423697
4.82,0.0306266101,0.06045920669
4.83,0.03291477164,0.05891645991
4.84,0.03512775031,0.05728946438
4.85,0.03726256459,0.05558179459
4.86,0.03931639962,0.05379712418
4.87,0.04128661011,0.05193921833
4.88,0.04317072302,0.05001192601
4.89,0.04496643975,0.04801917221
4.9,0.04667163805,0.04596495021
4.91,0.04828437366,0.04385331367
4.92,0.04980288146,0.04168836887
4.93,0.05122557639,0.03947426685
4.94,0.052551054,0.03721519563
4.95,0.05377809064,0.03491537243
4.96,0.05490564338,0.03257903601
4.97,0.05593284956,0.03021043898
4.98,0.05685902601,0.02781384025
4.99,0.05768366803,0.02539349756
5,0.05840644795,0.02295366011
5.01,0.05902721351,0.02049856132
5.02,0.05954598588,0.01803241167
5.03,0.0599629574,0.01555939178
5.04,0.06027848905,0.0130836455
5.05,0.06049310768,0.0106092733
5.06,0.06060750294,0.008140325749
5.07,0.06062252401,0.005680797183
5.08,0.06053917601,0.003234619603
5.09,0.06035861633,0.0008056567295
5.1,0.06008215056,-0.001602301716
5.11,0.05971122835,-0.003985545517
5.12,0.05924743902,-0.006340449251
5.13,0.05869250702,-0.008663477349
5.14,0.05804828714,-0.01095118892
5.15,0.05731675966,-0.01320024232
5.16,0.05650002529,-0.01540739955
5.17,0.05560029996,-0.01756953027
5.18,0.05461990954,-0.0196836157
5.19,0.05356128441,-0.02174675221
5.2,0.05242695392,-0.02375615461
5.21,0.05121954077,-0.02570915925
5.22,0.04994175535,-0.02760322685
5.23,0.04859638993,-0.02943594501
5.24,0.04718631289,-0.03120503052
5.25,0.04571446282,-0.0329083314
5.26,0.04418384266,-0.03454382864
5.27,0.04259751378,-0.03610963772
5.28,0.04095859008,-0.03760400986
5.29,0.03927023202,-0.03902533302
5.3,0.03753564079,-0.04037213261
5.31,0.0357580524,-0.04164307201
5.32,0.03394073182,-0.0428369528
5.33,0.03208696721,-0.04395271477
5.34,0.03020006415,-0.04498943565
5.35,0.02828333999,-0.04594633069
5.36,0.02634011822,-0.04682275188
5.37,0.02437372296,-0.04761818713
5.38,0.02238747351,-0.04833225903
5.39,0.02038467904,-0.04896472356
5.4,0.01836863335,-0.04951546849
5.41,0.01634260975,-0.04998451167
5.42,0.01430985608,-0.05037199904
5.43,0.01227358985,-0.05067820251
5.44,0.0102369935,-0.05090351769
5.45,0.008203209841,-0.05104846135
5.46,0.006175337586,-0.05111366881
5.47,0.004156427077,-0.05109989118
5.48,0.002149476154,-0.05100799238
5.49,0.0001574261819,-0.05083894607
5.5,-0.001816841755,-0.05059383249
5.51,-0.003770510487,-0.05027383507
5.52,-0.005700830228,-0.04988023706
5.53,-0.007605121864,-0.04941441795
5.54,-0.009480780071,-0.04887784988
5.55,-0.01132527625,-0.04827209387
5.56,-0.01313616127,-0.04759879605
5.57,-0.01491106809,-0.0468596838
5.58,-0.01664771408,-0.04605656181
5.59,-0.01834390331,-0.04519130811
5.6,-0.0199975285,-0.04426587004
5.61,-0.02160657295,-0.04328226019
5.62,-0.02316911215,-0.04224255229
5.63,-0.02468331529,-0.04114887716
5.64,-0.02614744654,-0.04000341851
5.65,-0.02755986624,-0.03880840888
5.66,-0.0289190318,-0.03756612546
5.67,-0.0302234985,-0.036278886
5.68,-0.03147192015,-0.03494904473
5.69,-0.03266304945,-0.03357898823
5.7,-0.03379573837,-0.03217113143
5.71,-0.03486893819,-0.03072791356
5.72,-0.03588169954,-0.02925179422
5.73,-0.03683317215,-0.02774524942
5.74,-0.03772260458,-0.02621076772
5.75,-0.03854934369,-0.02465084645
5.76,-0.03931283404,-0.02306798793
5.77,-0.04001261715,-0.02146469578
5.78,-0.04064833057,-0.01984347136
5.79,-0.04121970694,-0.01820681021
5.8,-0.04172657279,-0.0165571986
5.81,-0.04216884734,-0.01489711019
5.82,-0.04254654109,-0.01322900274
5.83,-0.04285975441,-0.01155531492
5.84,-0.04310867594,-0.009878463261
5.85,-0.04329358095,-0.008200839104
5.86,-0.04341482956,-0.006524805753
5.87,-0.04347286493,-0.00485269567
5.88,-0.04346821135,-0.003186807781
5.89,-0.04340147222,-0.0015294049
5.9,-0.04327332802,0.0001172887576
5.91,-0.04308453419,0.00175108994
5.92,-0.04283591893,0.003369858631
5.93,-0.04252838099,0.004971500202
5.94,-0.04216288737,0.006553967464
5.95,-0.04174047102,0.008115262611
5.96,-0.04126222844,0.00965343905
5.97,-0.04072931735,0.01116660313
5.98,-0.04014295418,0.01265291576
5.99,-0.03950441169,0.01411059393
6,-0.03881501649,0.01553791211
