"Freq [GHz]","re(S(Tx_p1,Tx_p1)) []","im(S(Tx_p1,Tx_p1)) []"
1,-0.006767026255,-0.00178632571
1.01,-0.006818033953,-0.001446890059
1.02,-0.00685212282,-0.001106503373
1.03,-0.006869322683,-0.0007660335075
1.04,-0.006869710183,-0.0004263404044
1.05,-0.006853407699,-8.827353762E-05
1.06,-0.00682058215,0.0002473305345
1.07,-0.006771443675,0.0005796504929
1.08,-0.006706244204,0.0009078824567
1.09,-0.00662527594,0.001231242054
1.1,-0.006528869745,0.001548966364
1.11,-0.006417393461,0.001860315719
1.12,-0.006291250155,0.002164575388
1.13,-0.006150876313,0.002461057108
1.14,-0.005996739993,0.002749100499
1.15,-0.005829338928,0.003028074337
1.16,-0.005649198617,0.003297377699
1.17,-0.005456870383,0.003556440983
1.18,-0.00525292943,0.003804726798
1.19,-0.005037972891,0.004041730737
1.2,-0.004812617881,0.004266982031
1.21,-0.004577499561,0.004480044084
1.22,-0.00433326922,0.004680514903
1.23,-0.004080592373,0.004868027426
1.24,-0.003820146897,0.005042249739
1.25,-0.003552621189,0.005202885214
1.26,-0.003278712364,0.005349672541
1.27,-0.002999124491,0.005482385684
1.28,-0.002714566874,0.00560083376
1.29,-0.002425752374,0.005704860836
1.3,-0.002133395779,0.005794345664
1.31,-0.001838212224,0.005869201351
1.32,-0.001540915654,0.005929374963
1.33,-0.001242217346,0.005974847088
1.34,-0.000942824471,0.006005631339
1.35,-0.000643438711,0.006021773814
1.36,-0.0003447549265,0.00602335252
1.37,-4.745986812E-05,0.006010476752
1.38,0.0002477690611,0.005983286444
1.39,0.0005402649991,0.005941951488
1.4,0.0008293727717,0.005886671023
1.41,0.001114449998,0.005817672702
1.42,0.001394868152,0.005735211934
1.43,0.001670013586,0.005639571103
1.44,0.001939288517,0.005531058775
1.45,0.00220211197,0.005410008877
1.46,0.002457920695,0.005276779863
1.47,0.002706170047,0.005131753867
1.48,0.002946334831,0.00497533583
1.49,0.003177910121,0.004807952623
1.5,0.003400412049,0.004630052141
1.51,0.003613378564,0.00444210239
1.52,0.003816370163,0.004244590553
1.53,0.0040089706,0.004038022038
1.54,0.004190787563,0.003822919507
1.55,0.004361453324,0.003599821887
1.56,0.00452062537,0.003369283362
1.57,0.004667987,0.003131872337
1.58,0.004803247894,0.002888170388
1.59,0.00492614466,0.002638771187
1.6,0.005036441345,0.002384279394
1.61,0.005133929919,0.002125309541
1.62,0.005218430721,0.001862484874
1.63,0.005289792879,0.001596436178
1.64,0.005347894684,0.001327800577
1.65,0.005392643933,0.0010572203
1.66,0.005423978223,0.0007853414315
1.67,0.005441865211,0.0005128126242
1.68,0.005446302817,0.0002402837977
1.69,0.005437319385,-3.159519365E-05
1.7,0.005414973789,-0.0003021759138
1.71,0.005379355489,-0.0005708127197
1.72,0.005330584515,-0.0008368641554
1.73,0.005268811413,-0.001099694364
1.74,0.005194217106,-0.001358674514
1.75,0.005107012704,-0.001613184238
1.76,0.005007439237,-0.001862613083
1.77,0.004895767323,-0.002106361961
1.78,0.004772296758,-0.002343844608
1.79,0.004637356036,-0.002574489035
1.8,0.004491301789,-0.002797738979
1.81,0.004334518148,-0.003013055337
1.82,0.004167416034,-0.003219917593
1.83,0.003990432355,-0.003417825216
1.84,0.003804029132,-0.003606299036
1.85,0.003608692546,-0.003784882596
1.86,0.003404931897,-0.003953143456
1.87,0.003193278491,-0.004110674466
1.88,0.002974284445,-0.004257094992
1.89,0.002748521417,-0.004392052079
1.9,0.00251657926,-0.004515221572
1.91,0.002279064604,-0.004626309162
1.92,0.002036599368,-0.004725051372
1.93,0.001789819207,-0.004811216461
1.94,0.001539371898,-0.00488460526
1.95,0.00128591566,-0.004945051913
1.96,0.00103011743,-0.004992424543
1.97,0.0007726510813,-0.005026625813
1.98,0.0005141956024,-0.005047593401
1.99,0.0002554332372,-0.005055300367
2,-2.952409876E-06,-0.005049755423
2.01,-0.0002602782925,-0.005031003092
2.02,-0.0005158638626,-0.004999123762
2.03,-0.0007690330233,-0.004954233623
2.04,-0.001019116088,-0.004896484499
2.05,-0.001265451738,-0.004826063557
2.06,-0.001507388975,-0.004743192912
2.07,-0.001744289055,-0.004648129103
2.08,-0.001975527401,-0.004541162469
2.09,-0.002200495486,-0.004422616401
2.1,-0.002418602678,-0.004292846484
2.11,-0.002629278038,-0.004152239527
2.12,-0.002831972075,-0.004001212492
2.13,-0.003026158425,-0.003840211302
2.14,-0.003211335484,-0.003669709562
2.15,-0.003387027951,-0.003490207176
2.16,-0.003552788302,-0.003302228863
2.17,-0.003708198174,-0.003106322598
2.18,-0.003852869657,-0.002903057954
2.19,-0.003986446495,-0.002693024374
2.2,-0.004108605174,-0.002476829373
2.21,-0.004219055915,-0.002255096665
2.22,-0.004317543544,-0.002028464237
2.23,-0.004403848256,-0.001797582372
2.24,-0.004477786258,-0.001563111624
2.25,-0.004539210283,-0.001325720754
2.26,-0.004588009992,-0.001086084644
2.27,-0.004624112244,-0.0008448821823
2.28,-0.004647481235,-0.0006027941375
2.29,-0.004658118516,-0.0003605010294
2.3,-0.004656062883,-0.0001186810006
2.31,-0.004641390131,0.0001219923008
2.32,-0.004614212693,0.0003608518176
2.33,-0.004574679141,0.0005972391544
2.34,-0.004522973578,0.000830506612
2.35,-0.004459314897,0.001060019179
2.36,-0.004383955926,0.001285156474
2.37,-0.004297182467,0.001505314627
2.38,-0.004199312212,0.001719908096
2.39,-0.004090693561,0.001928371419
2.4,-0.003971704343,0.002130160873
2.41,-0.003842750433,0.002324756065
2.42,-0.003704264289,0.002511661416
2.43,-0.0035567034,0.002690407569
2.44,-0.003400548658,0.002860552677
2.45,-0.003236302666,0.003021683599
2.46,-0.003064487976,0.003173416984
2.47,-0.002885645278,0.003315400244
2.48,-0.002700331536,0.003447312406
2.49,-0.002509118089,0.003568864859
2.5,-0.002312588712,0.003679801968
2.51,-0.002111337665,0.003779901582
2.52,-0.001905967711,0.003868975406
2.53,-0.001697088132,0.003946869266
2.54,-0.001485312747,0.004013463243
2.55,-0.00127125793,0.004068671693
2.56,-0.001055540645,0.004112443143
2.57,-0.0008387765025,0.004144760075
2.58,-0.0006215778461,0.004165638596
2.59,-0.0004045518715,0.00417512799
2.6,-0.0001882987912,0.004173310168
2.61,2.658995348E-05,0.004160299013
2.62,0.0002395334245,0.004136239617
2.63,0.0004499628581,0.004101307435
2.64,0.0006573232699,0.004055707335
2.65,0.0008610749875,0.003999672567
2.66,0.001060695108,0.003933463656
2.67,0.001255678872,0.003857367212
2.68,0.001445540959,0.003771694676
2.69,0.001629816689,0.003676781001
2.7,0.001808063136,0.003572983276
2.71,0.001979860146,0.003460679304
2.72,0.002144811267,0.00334026613
2.73,0.002302544572,0.003212158535
2.74,0.00245271339,0.003076787502
2.75,0.00259499694,0.002934598649
2.76,0.002729100858,0.002786050657
2.77,0.002854757639,0.002631613677
2.78,0.002971726966,0.002471767735
2.79,0.003079795953,0.002307001136
2.8,0.003178779291,0.002137808886
2.81,0.003268519295,0.001964691109
2.82,0.003348885867,0.001788151501
2.83,0.003419776368,0.001608695794
2.84,0.0034811154,0.001426830261
2.85,0.003532854515,0.001243060241
2.86,0.003574971836,0.001057888719
2.87,0.003607471609,0.0008718149373
2.88,0.00363038368,0.0006853330535
2.89,0.003643762908,0.0004989308567
2.9,0.003647688512,0.0003130885297
2.91,0.003642263364,0.0001282774703
2.92,0.003627613225,-5.504082911E-05
2.93,0.003603885931,-0.0002364158409
2.94,0.00357125054,-0.0004154089995
2.95,0.003529896434,-0.0005915946341
2.96,0.003480032387,-0.0007645608367
2.97,0.003421885605,-0.0009339102642
2.98,0.003355700739,-0.001099260875
2.99,0.003281738875,-0.001260246597
3,0.003200276511,-0.001416517936
3.01,0.003111604519,-0.001567742506
3.02,0.003016027099,-0.001713605514
3.03,0.002913860731,-0.001853810161
3.04,0.002805433121,-0.001988077996
3.05,0.002691082158,-0.002116149201
3.06,0.002571154873,-0.002237782824
3.07,0.002446006406,-0.002352756948
3.08,0.002315998991,-0.00246086881
3.09,0.002181500953,-0.002561934869
3.1,0.002042885726,-0.002655790819
3.11,0.001900530886,-0.002742291558
3.12,0.001754817212,-0.002821311114
3.13,0.001606127768,-0.002892742526
3.14,0.001454847012,-0.002956497684
3.15,0.001301359931,-0.003012507138
3.16,0.001146051204,-0.003060719867
3.17,0.0009893043919,-0.003101103021
3.18,0.0008315011623,-0.003133641632
3.19,0.0006730205356,-0.003158338298
3.2,0.0005142381674,-0.003175212847
3.21,0.0003555256577,-0.003184301977
3.22,0.0001972498895,-0.003185658873
3.23,3.97723975E-05,-0.003179352818
3.24,-0.0001165512357,-0.003165468777
3.25,-0.0002713719552,-0.003144106977
3.26,-0.0004243477821,-0.003115382469
3.27,-0.0005751443362,-0.003079424685
3.28,-0.0007234353328,-0.003036376986
3.29,-0.0008689030561,-0.0029863962
3.3,-0.001011238808,-0.002929652158
3.31,-0.001150143338,-0.00286632722
3.32,-0.001285327247,-0.002796615802
3.33,-0.001416511375,-0.002720723897
3.34,-0.001543427172,-0.002638868591
3.35,-0.001665817045,-0.002551277577
3.36,-0.001783434691,-0.002458188671
3.37,-0.001896045418,-0.002359849313
3.38,-0.002003426445,-0.002256516081
3.39,-0.00210536719,-0.002148454188
3.4,-0.002201669546,-0.002035936986
3.41,-0.002292148141,-0.001919245454
3.42,-0.002376630587,-0.001798667699
3.43,-0.002454957716,-0.001674498431
3.44,-0.002526983806,-0.001547038454
3.45,-0.002592576789,-0.001416594132
3.46,-0.002651618451,-0.001283476865
3.47,-0.002704004621,-0.001148002541
3.48,-0.002749645343,-0.001010490998
3.49,-0.002788465037,-0.0008712654603
3.5,-0.002820402642,-0.0007306519801
3.51,-0.002845411751,-0.0005889788611
3.52,-0.002863460726,-0.0004465760758
3.53,-0.002874532793,-0.0003037746723
3.54,-0.002878626129,-0.0001609061711
3.55,-0.002875753918,-1.830195148E-05
3.56,-0.002865944397,0.000123707372
3.57,-0.002849240876,0.0002647925827
3.58,-0.002825701732,0.0004046265048
3.59,-0.002795400389,0.0005428846556
3.6,-0.00275842526,0.0006792459049
3.61,-0.002714879671,0.0008133931437
3.62,-0.002664881755,0.0009450139579
3.63,-0.002608564311,0.001073801308
3.64,-0.00254607464,0.001199454215
3.65,-0.002477574343,0.001321678442
3.66,-0.002403239087,0.001440187189
3.67,-0.002323258338,0.001554701773
3.68,-0.002237835058,0.001664952319
3.69,-0.002147185362,0.001770678433
3.7,-0.002051538143,0.001871629881
3.71,-0.001951134658,0.00196756725
3.72,-0.001846228075,0.002058262602
3.73,-0.001737082978,0.00214350011
3.74,-0.001623974842,0.002223076682
3.75,-0.001507189466,0.002296802565
3.76,-0.001387022361,0.002364501926
3.77,-0.001263778113,0.002426013404
3.78,-0.001137769701,0.002481190647
3.79,-0.001009317782,0.002529902805
3.8,-0.0008787499402,0.002572034999
3.81,-0.0007463999067,0.002607488754
3.82,-0.0006126067424,0.002636182391
3.83,-0.0004777139959,0.002658051381
3.84,-0.0003420688318,0.002673048651
3.85,-0.0002060211342,0.002681144857
3.86,-6.992258758E-05,0.002682328593
3.87,6.587426288E-05,0.002676606567
3.88,0.0002010169677,0.002664003709
3.89,0.0003351541441,0.002644563244
3.9,0.0004679364579,0.002618346695
3.91,0.0005990176136,0.002585433837
3.92,0.000728055348,0.002545922596
3.93,0.0008547124254,0.002499928887
3.94,0.0009786576295,0.002447586393
3.95,0.001099566749,0.002389046287
3.96,0.001217123551,0.002324476894
3.97,0.001331020745,0.002254063301
3.98,0.001440960923,0.002178006894
3.99,0.001546657481,0.002096524854
4,0.001647835513,0.002009849585
4.01,0.00174423268,0.001918228096
4.02,0.001835600038,0.001821921317
4.03,0.001921702837,0.001721203379
4.04,0.002002321275,0.00161636083
4.05,0.002077251208,0.001507691812
4.06,0.002146304817,0.001395505191
4.07,0.002209311222,0.001280119645
4.08,0.002266117042,0.001161862712
4.09,0.0023165869,0.001041069804
4.1,0.002360603876,0.000918083188
4.11,0.002398069887,0.0007932509383
4.12,0.002428906019,0.0006669258652
4.13,0.002453052782,0.0005394644217
4.14,0.002470470308,0.0004112255936
4.15,0.002481138479,0.0002825697777
4.16,0.002485056988,0.0001538576516
4.17,0.002482245331,2.544903962E-05
4.18,0.00247274273,-0.0001022982208
4.19,0.002456607991,-0.0002290294074
4.2,0.002433919287,-0.0003543940323
4.21,0.00240477388,-0.0004780469471
4.22,0.002369287772,-0.00059964943
4.23,0.002327595292,-0.0007188702499
4.24,0.002279848619,-0.0008353867043
4.25,0.002226217243,-0.0009488856261
4.26,0.002166887365,-0.001059064355
4.27,0.002102061237,-0.001165631673
4.28,0.002031956454,-0.00126830869
4.29,0.001956805184,-0.001366829696
4.3,0.001876853356,-0.001460942952
4.31,0.0017923598,-0.001550411435
4.32,0.001703595341,-0.001635013526
4.33,0.001610841862,-0.001714543643
4.34,0.001514391323,-0.001788812811
4.35,0.001414544757,-0.001857649172
4.36,0.001311611231,-0.001920898429
4.37,0.001205906795,-0.001978424229
4.38,0.001097753402,-0.002030108475
4.39,0.0009874778208,-0.002075851574
4.4,0.0008754105376,-0.002115572614
4.41,0.0007618846522,-0.002149209479
4.42,0.000647234774,-0.002176718889
4.43,0.0005317959213,-0.002198076375
4.44,0.0004159024292,-0.002213276192
4.45,0.0002998868701,-0.002222331153
4.46,0.0001840789902,-0.002225272415
4.47,6.880466731E-05,-0.002222149187
4.48,-4.561510726E-05,-0.002213028386
4.49,-0.0001588652177,-0.002197994228
4.5,-0.000270637381,-0.002177147763
4.51,-0.0003806310689,-0.002150606357
4.52,-0.0004885543902,-0.002118503122
4.53,-0.0005941249323,-0.002080986291
4.54,-0.000697070557,-0.002038218558
4.55,-0.0007971301499,-0.00199037636
4.56,-0.0008940543194,-0.001937649138
4.57,-0.0009876060445,-0.001880238546
4.58,-0.001077561269,-0.001818357635
4.59,-0.001163709441,-0.001752230012
4.6,-0.001245853993,-0.001682088966
4.61,-0.001323812772,-0.001608176579
4.62,-0.001397418401,-0.001530742824
4.63,-0.00146651859,-0.001450044635
4.64,-0.001530976389,-0.001366344991
4.65,-0.001590670372,-0.00127991197
4.66,-0.001645494774,-0.001191017823
4.67,-0.001695359566,-0.001099938039
4.68,-0.00174019047,-0.001006950415
4.69,-0.001779928924,-0.0009123341461
4.7,-0.001814531987,-0.0008163689179
4.71,-0.001843972195,-0.0007193340215
4.72,-0.001868237364,-0.0006215074869
4.73,-0.001887330344,-0.0005231652388
4.74,-0.001901268723,-0.0004245802783
4.75,-0.001910084493,-0.0003260218935
4.76,-0.00191382367,-0.0002277548998
4.77,-0.001912545867,-0.0001300389139
4.78,-0.001906323844,-3.312766315E-05
4.79,-0.001895243014,6.273166888E-05
4.8,-0.001879400916,0.0001572990576
4.81,-0.00185890667,0.0002503422132
4.82,-0.001833880394,0.0003416371146
4.83,-0.001804452607,0.0004309685019
4.84,-0.001770763609,0.000518130326
4.85,-0.001732962847,0.0006029261544
4.86,-0.001691208267,0.000685169534
4.87,-0.00164566565,0.0007646843094
4.88,-0.001596507953,0.0008413048991
4.89,-0.001543914633,0.0009148765267
4.9,-0.001488070977,0.0009852554108
4.91,-0.001429167428,0.001052308913
4.92,-0.001367398924,0.001115915642
4.93,-0.001302964229,0.001175965525
4.94,-0.001236065286,0.00123235983
4.95,-0.001166906573,0.001285011159
4.96,-0.001095694473,0.001333843404
4.97,-0.001022636666,0.001378791663
4.98,-0.000947941526,0.001419802131
4.99,-0.0008718175458,0.001456831957
5,-0.0007944727783,0.001489849069
5.01,-0.0007161142996,0.001518831979
5.02,-0.0006369476939,0.001543769554
5.03,-0.0005571765628,0.001564660775
5.04,-0.0004770020584,0.001581514465
5.05,-0.000396622441,0.001594349005
5.06,-0.0003162326631,0.001603192029
5.07,-0.0002360239781,0.001608080106
5.08,-0.0001561835759,0.001609058411
5.09,-7.68942433E-05,0.001606180382
5.1,1.66594836E-06,0.001599507368
5.11,7.93239313E-05,0.001589108277
5.12,0.0001559119034,0.001575059207
5.13,0.0002312675661,0.001557443085
5.14,0.0003052343376,0.001536349296
5.15,0.0003776615434,0.001511873315
5.16,0.0004484045841,0.00148411634
5.17,0.0005173250811,0.00145318493
5.18,0.0005842910018,0.001419190638
5.19,0.0006491767658,0.001382249658
5.2,0.0007118633315,0.001342482472
5.21,0.0007722382654,0.001300013508
5.22,0.0008301957955,0.001254970797
5.23,0.0008856368492,0.00120748565
5.24,0.0009384690766,0.001157692332
5.25,0.0009886068621,0.001105727749
5.26,0.001035971323,0.001051731148
5.27,0.001080490296,0.0009958438178
5.28,0.001122098322,0.000938208807
5.29,0.001160736608,0.0008789706454
5.3,0.001196352996,0.0008182750782
5.31,0.001228901916,0.0007562688066
5.32,0.001258344339,0.0006930992383
5.33,0.001284647719,0.000628914246
5.34,0.001307785935,0.0005638619332
5.35,0.001327739232,0.0004980904075
5.36,0.001344494151,0.0004317475611
5.37,0.001358043464,0.0003649808571
5.38,0.001368386102,0.0002979371213
5.39,0.001375527086,0.0002307623396
5.4,0.001379477453,0.0001636014597
5.41,0.001380254178,9.659819578E-05
5.42,0.001377880103,2.989483778E-05
5.43,0.001372383859,-3.636793774E-05
5.44,0.001363799785,-0.0001020512543
5.45,0.001352167848,-0.0001670182206
5.46,0.001337533566,-0.000231134115
5.47,0.001319947915,-0.0002942665689
5.48,0.001299467253,-0.00035628575
5.49,0.00127615322,-0.0004170645464
5.5,0.001250072654,-0.0004764787505
5.51,0.001221297488,-0.0005344072433
5.52,0.001189904649,-0.0005907321805
5.53,0.001155975957,-0.0006453391785
5.54,0.001119598004,-0.0006981175015
5.55,0.001080862044,-0.0007489602497
5.56,0.001039863861,-0.0007977645478
5.57,0.000996703641,-0.0008444317334
5.58,0.0009514858256,-0.0008888675464
5.59,0.0009043189668,-0.0009309823165
5.6,0.0008553155653,-0.0009706911517
5.61,0.0008045919022,-0.001007914123
5.62,0.0007522678595,-0.001042576449
5.63,0.0006984667306,-0.001074608677
5.64,0.000643315019,-0.001103946859
5.65,0.0005869422262,-0.001130532725
5.66,0.0005294806278,-0.001154313852
5.67,0.0004710650379,-0.001175243823
5.68,0.0004118325619,-0.001193282383
5.69,0.0003519223374,-0.001208395584
5.7,0.0002914752634,-0.001220555919
5.71,0.0002306337183,-0.001229742454
5.72,0.0001695412665,-0.001235940937
5.73,0.0001083423543,-0.001239143906
5.74,4.718199528E-05,-0.001239350773
5.75,-1.379455322E-05,-0.001236567903
5.76,-7.444212378E-05,-0.001230808672
5.77,-0.00013461598,-0.00122209351
5.78,-0.0001941721655,-0.001210449925
5.79,-0.000252967859,-0.001195912517
5.8,-0.0003108617351,-0.001178522958
5.81,-0.0003677143293,-0.00115832997
5.82,-0.0004233884061,-0.001135389266
5.83,-0.0004777493292,-0.001109763485
5.84,-0.0005306654319,-0.001081522093
5.85,-0.0005820083865,-0.001050741273
5.86,-0.0006316535726,-0.001017503783
5.87,-0.0006794804399,-0.0009818988011
5.88,-0.0007253728674,-0.0009440217399
5.89,-0.0007692195147,-0.0009039740458
5.9,-0.0008109141656,-0.0008618629708
5.91,-0.0008503560617,-0.0008178013255
5.92,-0.0008874502243,-0.0007719072092
5.93,-0.0009221077639,-0.0007243037194
5.94,-0.0009542461745,-0.000675118641
5.95,-0.0009837896128,-0.0006244841157
5.96,-0.001010669159,-0.0005725362927
5.97,-0.00103482306,-0.0005194149611
5.98,-0.001056196952,-0.0004652631663
5.99,-0.001074744059,-0.0004102268103
6,-0.001090425374,-0.0003544542375
