"Freq [GHz]","re(S(Tx_p1,Tx_p1)) []","im(S(Tx_p1,Tx_p1)) []"
1,-0.01661727129,-0.1008131966
1.01,-0.02029900403,-0.1001711892
1.02,-0.02397181354,-0.09938737442
1.03,-0.02762931999,-0.0984611515
1.04,-0.03126510812,-0.09739224506
1.05,-0.03487274294,-0.09618070464
1.06,-0.03844578528,-0.09482690349
1.07,-0.04197780726,-0.09333153678
1.08,-0.04546240759,-0.09169561924
1.09,-0.04889322658,-0.08992048212
1.1,-0.05226396105,-0.08800776966
1.11,-0.05556837897,-0.08595943481
1.12,-0.0588003338,-0.08377773453
1.13,-0.0619537786,-0.0814652244
1.14,-0.06502277983,-0.07902475269
1.15,-0.06800153078,-0.07645945389
1.16,-0.07088436469,-0.07377274164
1.17,-0.07366576751,-0.07096830124
1.18,-0.07634039023,-0.06805008153
1.19,-0.07890306083,-0.0650222863
1.2,-0.08134879577,-0.0618893653
1.21,-0.08367281108,-0.05865600463
1.22,-0.08587053289,-0.05532711686
1.23,-0.08793760761,-0.05190783058
1.24,-0.08986991143,-0.04840347964
1.25,-0.09166355948,-0.04481959197
1.26,-0.09331491434,-0.04116187801
1.27,-0.09482059402,-0.03743621892
1.28,-0.0961774794,-0.03364865431
1.29,-0.09738272112,-0.02980536984
1.3,-0.0984337458,-0.02591268445
1.31,-0.09932826177,-0.02197703743
1.32,-0.1000642641,-0.0180049752
1.33,-0.1006400392,-0.01400313802
1.34,-0.1010541684,-0.009978246404
1.35,-0.1013055315,-0.005937087536
1.36,-0.1013933091,-0.0018865015
1.37,-0.1013169849,0.00216663253
1.38,-0.1010763466,0.006215410151
1.39,-0.1006714872,0.01025291561
1.4,-0.1001028045,0.01427223569
1.41,-0.09937100095,0.01826647352
1.42,-0.09847708248,0.02222876235
1.43,-0.09742235654,0.02615227927
1.44,-0.09620842986,0.0300302587
1.45,-0.09483720541,0.03385600587
1.46,-0.09331087888,0.03762291004
1.47,-0.09163193443,0.04132445752
1.48,-0.08980314001,0.04495424454
1.49,-0.08782754203,0.04850598981
1.5,-0.08570845949,0.05197354682
1.51,-0.08344947759,0.05535091583
1.52,-0.08105444083,0.05863225562
1.53,-0.07852744556,0.06181189478
1.54,-0.07587283205,0.06488434272
1.55,-0.07309517613,0.06784430031
1.56,-0.07019928035,0.07068667002
1.57,-0.06719016464,0.07340656576
1.58,-0.06407305669,0.07599932217
1.59,-0.06085338181,0.07846050356
1.6,-0.0575367525,0.08078591227
1.61,-0.0541289576,0.08297159663
1.62,-0.05063595119,0.08501385835
1.63,-0.04706384112,0.08690925948
1.64,-0.04341887731,0.0886546287
1.65,-0.03970743974,0.09024706726
1.66,-0.03593602626,0.09168395419
1.67,-0.03211124019,0.09296295108
1.68,-0.02823977766,0.09408200623
1.69,-0.02432841494,0.09503935829
1.7,-0.02038399551,0.09583353921
1.71,-0.01641341707,0.09646337678
1.72,-0.01242361851,0.0969279964
1.73,-0.008421566783,0.09722682243
1.74,-0.004414243779,0.09735957886
1.75,-0.0004086331766,0.09732628939
1.76,0.003588292653,0.09712727703
1.77,0.007569585701,0.09676316298
1.78,0.01152833529,0.09623486503
1.79,0.01545768096,0.09554359539
1.8,0.01935082518,0.09469085791
1.81,0.02320104596,0.09367844474
1.82,0.02700170925,0.09250843254
1.83,0.03074628113,0.09118317803
1.84,0.03442833984,0.08970531305
1.85,0.03804158746,0.08807773919
1.86,0.04157986138,0.08630362179
1.87,0.04503714552,0.08438638351
1.88,0.04840758115,0.08232969747
1.89,0.0516854774,0.08013747984
1.9,0.0548653215,0.07781388204
1.91,0.05794178854,0.07536328252
1.92,0.06090975089,0.07279027811
1.93,0.06376428725,0.07009967498
1.94,0.0665006912,0.06729647924
1.95,0.06911447941,0.06438588721
1.96,0.07160139929,0.06137327526
1.97,0.07395743631,0.05826418951
1.98,0.0761788207,0.05506433506
1.99,0.0782620338,0.05177956511
2,0.08020381379,0.04841586969
2.01,0.08200116104,0.04497936432
2.02,0.08365134283,0.04147627831
2.03,0.08515189762,0.03791294306
2.04,0.08650063878,0.03429578002
2.05,0.08769565776,0.0306312887
2.06,0.08873532678,0.02692603443
2.07,0.08961830093,0.02318663616
2.08,0.09034351973,0.01941975409
2.09,0.09091020821,0.01563207736
2.1,0.09131787737,0.01183031168
2.11,0.09156632416,0.008021166988
2.12,0.0916556309,0.004211345166
2.13,0.09158616415,0.000407527772
2.14,0.09135857308,-0.003383636097
2.15,0.09097378734,-0.00715554186
2.16,0.09043301431,-0.01090164136
2.17,0.08973773599,-0.01461545465
2.18,0.08888970525,-0.01829058154
2.19,0.08789094168,-0.02192071304
2.2,0.08674372694,-0.02549964252
2.21,0.08545059959,-0.02902127662
2.22,0.08401434953,-0.03247964597
2.23,0.08243801198,-0.03586891561
2.24,0.08072486099,-0.03918339506
2.25,0.07887840254,-0.04241754814
2.26,0.07690236732,-0.04556600247
2.27,0.074800703,-0.04862355855
2.28,0.07257756622,-0.05158519858
2.29,0.07023731421,-0.05444609479
2.3,0.06778449603,-0.05720161752
2.31,0.06522384353,-0.05984734272
2.32,0.06256026206,-0.06237905924
2.33,0.05979882077,-0.06479277551
2.34,0.05694474282,-0.06708472586
2.35,0.05400339518,-0.06925137645
2.36,0.05098027833,-0.07128943064
2.37,0.04788101575,-0.07319583394
2.38,0.04471134316,-0.07496777852
2.39,0.04147709765,-0.07660270721
2.4,0.03818420673,-0.07809831699
2.41,0.03483867716,-0.07945256207
2.42,0.03144658376,-0.08066365644
2.43,0.02801405812,-0.08173007589
2.44,0.02454727727,-0.08265055963
2.45,0.02105245234,-0.0834241113
2.46,0.01753581717,-0.08404999964
2.47,0.01400361699,-0.0845277585
2.48,0.01046209707,-0.0848571865
2.49,0.006917491492,-0.08503834615
2.5,0.003376011975,-0.08507156245
2.51,-0.0001561632262,-0.08495742112
2.52,-0.003672900264,-0.08469676627
2.53,-0.007168120528,-0.08429069761
2.54,-0.01063581131,-0.08374056731
2.55,-0.01407003628,-0.08304797627
2.56,-0.01746494582,-0.08221477008
2.57,-0.02081478703,-0.08124303445
2.58,-0.02411391367,-0.08013509033
2.59,-0.02735679569,-0.07889348853
2.6,-0.03053802858,-0.07752100403
2.61,-0.03365234249,-0.07602062984
2.62,-0.0366946109,-0.07439557056
2.63,-0.03965985915,-0.07264923554
2.64,-0.04254327254,-0.07078523176
2.65,-0.04534020412,-0.0688073563
2.66,-0.04804618217,-0.06671958863
2.67,-0.05065691723,-0.06452608249
2.68,-0.0531683089,-0.06223115761
2.69,-0.05557645208,-0.05983929104
2.7,-0.05787764301,-0.05735510841
2.71,-0.06006838473,-0.05478337483
2.72,-0.06214539228,-0.05212898564
2.73,-0.0641055974,-0.04939695703
2.74,-0.06594615283,-0.0465924164
2.75,-0.06766443622,-0.04372059262
2.76,-0.06925805355,-0.04078680621
2.77,-0.07072484217,-0.03779645931
2.78,-0.07206287337,-0.03475502567
2.79,-0.07327045455,-0.03166804046
2.8,-0.07434613088,-0.02854109016
2.81,-0.07528868661,-0.02537980228
2.82,-0.07609714589,-0.02218983517
2.83,-0.07677077315,-0.01897686779
2.84,-0.07730907307,-0.0157465895
2.85,-0.0777117901,-0.01250468994
2.86,-0.07797890756,-0.009256848906
2.87,-0.07811064629,-0.006008726366
2.88,-0.07810746296,-0.002765952516
2.89,-0.07797004783,0.0004658820008
2.9,-0.07769932227,0.003681235767
2.91,-0.07729643575,0.006874626112
2.92,-0.07676276248,0.01004063847
2.93,-0.07609989772,0.01317393555
2.94,-0.07530965361,0.01626926631
2.95,-0.07439405477,0.01932147475
2.96,-0.07335533342,0.02232550843
2.97,-0.07219592426,0.02527642677
2.98,-0.07091845896,0.02816940912
2.99,-0.06952576035,0.03099976254
3,-0.06802083631,0.03376292928
3.01,-0.06640687341,0.03645449406
3.02,-0.06468723017,0.03907019091
3.03,-0.06286543014,0.04160590982
3.04,-0.06094515475,0.04405770304
3.05,-0.05893023582,0.046421791
3.06,-0.05682464796,0.04869456794
3.07,-0.05463250073,0.05087260719
3.08,-0.05235803058,0.05295266608
3.09,-0.05000559264,0.05493169052
3.1,-0.04757965241,0.05680681916
3.11,-0.04508477717,0.05857538724
3.12,-0.04252562745,0.06023493006
3.13,-0.03990694823,0.061783186
3.14,-0.03723356012,0.06321809926
3.15,-0.03451035052,0.06453782217
3.16,-0.03174226457,0.0657407171
3.17,-0.02893429624,0.06682535801
3.18,-0.02609147925,0.06779053162
3.19,-0.02321887807,0.06863523818
3.2,-0.02032157887,0.06935869186
3.21,-0.01740468054,0.06996032079
3.22,-0.01447328572,0.07043976668
3.23,-0.01153249188,0.07079688407
3.24,-0.008587382521,0.07103173926
3.25,-0.005643018375,0.07114460882
3.26,-0.002704428792,0.07113597778
3.27,0.0002233968071,0.07100653743
3.28,0.003135517336,0.07075718279
3.29,0.006027048305,0.07038900978
3.3,0.008893169924,0.06990331196
3.31,0.01172913504,0.06930157708
3.32,0.01453027688,0.06858548317
3.33,0.01729201662,0.06775689445
3.34,0.02000987073,0.06681785686
3.35,0.0226794581,0.06577059336
3.36,0.02529650694,0.06461749888
3.37,0.02785686145,0.06336113512
3.38,0.03035648823,0.06200422499
3.39,0.03279148244,0.06054964685
3.4,0.03515807364,0.05900042854
3.41,0.03745263147,0.05735974114
3.42,0.03967167093,0.0556308926
3.43,0.04181185742,0.0538173211
3.44,0.04387001146,0.05192258832
3.45,0.04584311318,0.04995037241
3.46,0.04772830637,0.04790446096
3.47,0.04952290235,0.04578874376
3.48,0.05122438342,0.0436072054
3.49,0.05283040606,0.04136391782
3.5,0.05433880376,0.03906303276
3.51,0.05574758955,0.03670877409
3.52,0.05705495818,0.03430543007
3.53,0.058259288,0.03185734562
3.54,0.05935914246,0.02936891448
3.55,0.06035327134,0.02684457139
3.56,0.0612406116,0.0242887842
3.57,0.06202028796,0.02170604605
3.58,0.06269161305,0.01910086753
3.59,0.06325408736,0.01647776885
3.6,0.06370739877,0.01384127209
3.61,0.06405142183,0.01119589349
3.62,0.06428621667,0.008546135789
3.63,0.06441202765,0.005896480665
3.64,0.06442928166,0.00325138127
3.65,0.06433858613,0.0006152548548
3.66,0.06414072678,-0.002007524481
3.67,0.06383666508,-0.004612632912
3.68,0.06342753533,-0.00719580387
3.69,0.06291464163,-0.009752834879
3.7,0.06229945444,-0.01227959423
3.71,0.06158360695,-0.01477202746
3.72,0.06076889124,-0.01722616372
3.73,0.05985725405,-0.01963812186
3.74,0.05885079253,-0.02200411637
3.75,0.05775174956,-0.02432046314
3.76,0.05656250901,-0.02658358491
3.77,0.05528559072,-0.02879001659
3.78,0.05392364532,-0.03093641033
3.79,0.05247944882,-0.0330195403
3.8,0.0509558971,-0.03503630726
3.81,0.04935600019,-0.03698374296
3.82,0.04768287642,-0.03885901409
3.83,0.04593974641,-0.04065942621
3.84,0.04412992697,-0.04238242722
3.85,0.04225682484,-0.04402561065
3.86,0.04032393037,-0.04558671871
3.87,0.03833481109,-0.04706364499
3.88,0.03629310518,-0.04845443692
3.89,0.03420251489,-0.04975729797
3.9,0.03206679992,-0.05097058954
3.91,0.02988977074,-0.05209283259
3.92,0.02767528183,-0.05312270898
3.93,0.02542722499,-0.05405906254
3.94,0.02314952258,-0.05490089984
3.95,0.02084612074,-0.05564739069
3.96,0.0185209827,-0.05629786842
3.97,0.01617808204,-0.05685182975
3.98,0.01382139603,-0.05730893453
3.99,0.01145489896,-0.05766900514
4,0.009082555627,-0.05793202563
4.01,0.006708314773,-0.05809814059
4.02,0.004336102682,-0.05816765379
4.03,0.001969816831,-0.05814102654
4.04,-0.0003866803611,-0.0580188758
4.05,-0.002729567667,-0.0578019721
4.06,-0.005055071077,-0.05749123711
4.07,-0.007359469694,-0.0570877411
4.08,-0.009639101504,-0.0565927001
4.09,-0.01189036899,-0.05600747285
4.1,-0.0141097446,-0.05533355757
4.11,-0.01629377608,-0.05457258849
4.12,-0.01843909159,-0.05372633219
4.13,-0.02054240471,-0.05279668376
4.14,-0.0226005192,-0.05178566279
4.15,-0.02461033365,-0.05069540913
4.16,-0.02656884585,-0.04952817858
4.17,-0.02847315705,-0.04828633831
4.18,-0.03032047593,-0.04697236223
4.19,-0.03210812248,-0.04558882618
4.2,-0.0338335315,-0.04413840296
4.21,-0.03549425606,-0.0426238573
4.22,-0.03708797062,-0.04104804071
4.23,-0.03861247398,-0.03941388614
4.24,-0.04006569198,-0.03772440268
4.25,-0.04144567997,-0.03598267012
4.26,-0.0427506251,-0.03419183337
4.27,-0.04397884828,-0.03235509694
4.28,-0.04512880604,-0.03047571926
4.29,-0.04619909199,-0.02855700704
4.3,-0.04718843821,-0.02660230954
4.31,-0.04809571628,-0.02461501282
4.32,-0.04891993814,-0.02259853402
4.33,-0.04966025671,-0.02055631556
4.34,-0.05031596626,-0.01849181943
4.35,-0.05088650254,-0.01640852141
4.36,-0.05137144271,-0.01430990538
4.37,-0.05177050501,-0.01219945764
4.38,-0.05208354826,-0.01008066121
4.39,-0.05231057105,-0.007956990309
4.4,-0.05245171077,-0.005831904747
4.41,-0.05250724245,-0.003708844496
4.42,-0.05247757729,-0.001591224276
4.43,-0.05236326111,0.0005175717621
4.44,-0.05216497245,0.00261419526
4.45,-0.05188352062,0.004695338778
4.46,-0.05151984346,0.006757740822
4.47,-0.05107500492,0.008798190748
4.48,-0.05055019249,0.01081353356
4.49,-0.04994671444,0.01280067455
4.5,-0.04926599688,0.01475658389
4.51,-0.04850958063,0.01667830093
4.52,-0.04767911802,0.01856293855
4.53,-0.04677636941,0.02040768719
4.54,-0.04580319967,0.0222098188
4.55,-0.0447615745,0.02396669067
4.56,-0.04365355653,0.02567574899
4.57,-0.04248130143,0.02733453234
4.58,-0.04124705382,0.02894067495
4.59,-0.03995314309,0.03049190982
4.6,-0.03860197908,0.03198607161
4.61,-0.03719604776,0.03342109939
4.62,-0.03573790673,0.0347950392
4.63,-0.03423018068,0.03610604641
4.64,-0.03267555676,0.03735238788
4.65,-0.03107677993,0.03853244394
4.66,-0.02943664821,0.03964471021
4.67,-0.02775800787,0.04068779913
4.68,-0.02604374867,0.04166044142
4.69,-0.02429679894,0.04256148721
4.7,-0.02252012075,0.04338990711
4.71,-0.02071670496,0.04414479298
4.72,-0.01888956639,0.04482535853
4.73,-0.01704173886,0.04543093976
4.74,-0.0151762703,0.04596099515
4.75,-0.01329621789,0.04641510573
4.76,-0.01140464319,0.04679297486
4.77,-0.009504607301,0.04709442792
4.78,-0.007599166069,0.04731941175
4.79,-0.00569136535,0.04746799391
4.8,-0.003784236296,0.04754036181
4.81,-0.001880790719,0.04753682156
4.82,1.598348696E-05,0.04745779676
4.83,0.001903126857,0.04730382704
4.84,0.003777712782,0.04707556643
4.85,0.005636851857,0.04677378162
4.86,0.007477696136,0.04639935002
4.87,0.009297443297,0.04595325763
4.88,0.0110933407,0.04543659686
4.89,0.01286268936,0.04485056406
4.9,0.01460284774,0.04419645707
4.91,0.01631123555,0.04347567246
4.92,0.0179853373,0.04268970278
4.93,0.01962270579,0.04184013363
4.94,0.0212209655,0.04092864055
4.95,0.02277781573,0.03995698591
4.96,0.02429103375,0.03892701557
4.97,0.02575847771,0.03784065555
4.98,0.02717808944,0.03669990849
4.99,0.02854789708,0.03550685013
5,0.02986601757,0.03426362557
5.01,0.03113065904,0.03297244559
5.02,0.03234012292,0.0316355828
5.03,0.03349280604,0.03025536775
5.04,0.03458720245,0.02883418501
5.05,0.03562190515,0.02737446914
5.06,0.03659560764,0.02587870062
5.07,0.03750710526,0.02434940181
5.08,0.03835529649,0.02278913279
5.09,0.0391391839,0.0212004872
5.1,0.03985787512,0.01958608806
5.11,0.04051058352,0.0179485836
5.12,0.0410966288,0.01629064302
5.13,0.04161543733,0.01461495228
5.14,0.04206654245,0.01292420993
5.15,0.04244958448,0.0112211229
5.16,0.04276431064,0.00950840228
5.17,0.0430105748,0.007788759216
5.18,0.04318833708,0.006064900743
5.19,0.04329766324,0.004339525698
5.2,0.04333872398,0.002615320657
5.21,0.04331179407,0.0008949559241
5.22,0.04321725128,-0.0008189184357
5.23,0.04305557523,-0.002523676501
5.24,0.04282734608,-0.004216720343
5.25,0.04253324302,-0.005895483801
5.26,0.04217404273,-0.007557436194
5.27,0.04175061756,-0.00920008595
5.28,0.04126393374,-0.01082098415
5.29,0.04071504932,-0.01241772801
5.3,0.04010511206,-0.01398796421
5.31,0.03943535722,-0.01552939224
5.32,0.03870710516,-0.01703976749
5.33,0.03792175888,-0.01851690443
5.34,0.03708080143,-0.01995867948
5.35,0.03618579326,-0.02136303392
5.36,0.03523836938,-0.02272797662
5.37,0.03424023655,-0.0240515867
5.38,0.03319317027,-0.02533201596
5.39,0.03209901174,-0.02656749136
5.4,0.03095966475,-0.02775631719
5.41,0.02977709245,-0.02889687726
5.42,0.02855331411,-0.02998763688
5.43,0.02729040176,-0.03102714473
5.44,0.02599047683,-0.03201403458
5.45,0.02465570665,-0.03294702691
5.46,0.02328830102,-0.03382493035
5.47,0.02189050862,-0.03464664303
5.48,0.0204646135,-0.03541115373
5.49,0.0190129314,-0.03611754293
5.5,0.01753780617,-0.03676498376
5.51,0.01604160612,-0.03735274266
5.52,0.01452672034,-0.03788018012
5.53,0.01299555501,-0.03834675104
5.54,0.01145052973,-0.03875200516
5.55,0.009894073878,-0.0390955872
5.56,0.008328622858,-0.03937723695
5.57,0.006756614501,-0.03959678915
5.58,0.005180485391,-0.03975417328
5.59,0.003602667242,-0.03984941322
5.6,0.0020255833,-0.03988262673
5.61,0.0004516447747,-0.03985402481
5.62,-0.001116752692,-0.03976391098
5.63,-0.002677232516,-0.03961268032
5.64,-0.004227440618,-0.03940081851
5.65,-0.005765048813,-0.03912890062
5.66,-0.007287758154,-0.03879758988
5.67,-0.008793302205,-0.03840763625
5.68,-0.01027945026,-0.03795987494
5.69,-0.0117440105,-0.03745522472
5.7,-0.01318483304,-0.03689468622
5.71,-0.01459981296,-0.03627934007
5.72,-0.01598689321,-0.03561034489
5.73,-0.01734406742,-0.03488893528
5.74,-0.01866938271,-0.03411641961
5.75,-0.01996094227,-0.03329417776
5.76,-0.02121690799,-0.03242365878
5.77,-0.02243550287,-0.03150637842
5.78,-0.02361501344,-0.03054391661
5.79,-0.02475379197,-0.02953791483
5.8,-0.02585025866,-0.02849007344
5.81,-0.02690290368,-0.02740214889
5.82,-0.0279102891,-0.02627595089
5.83,-0.02887105072,-0.02511333954
5.84,-0.02978389979,-0.02391622233
5.85,-0.03064762458,-0.02268655114
5.86,-0.03146109187,-0.02142631919
5.87,-0.03222324833,-0.02013755792
5.88,-0.03293312169,-0.01882233382
5.89,-0.03358982191,-0.01748274526
5.9,-0.03419254213,-0.01612091925
5.91,-0.03474055958,-0.01473900819
5.92,-0.03523323625,-0.01333918661
5.93,-0.03567001957,-0.01192364787
5.94,-0.03605044285,-0.01049460082
5.95,-0.03637412566,-0.009054266529
5.96,-0.03664077408,-0.007604874952
5.97,-0.03685018078,-0.006148661588
5.98,-0.03700222502,-0.004687864182
5.99,-0.0370968725,-0.00322471941
6,-0.03713417511,-0.001761459593
