"Freq [GHz]","re(S(Tx_p1,Tx_p1)) []","im(S(Tx_p1,Tx_p1)) []"
1,0.002770931051,-0.1421388051
1.01,-0.00165112149,-0.1419869322
1.02,-0.006079798363,-0.1417015086
1.03,-0.01051031118,-0.1412815566
1.04,-0.01493787152,-0.1407263161
1.05,-0.01935769896,-0.1400352372
1.06,-0.02376502833,-0.1392079729
1.07,-0.02815511635,-0.1382443723
1.08,-0.0325232475,-0.1371444728
1.09,-0.03686473928,-0.1359084939
1.1,-0.04117494693,-0.1345368299
1.11,-0.0454492674,-0.1330300433
1.12,-0.04968314295,-0.1313888588
1.13,-0.05387206413,-0.129614157
1.14,-0.0580115723,-0.1277069683
1.15,-0.06209726173,-0.1256684679
1.16,-0.06612478132,-0.1234999703
1.17,-0.07008983593,-0.1212029247
1.18,-0.07398818737,-0.1187789102
1.19,-0.07781565521,-0.1162296321
1.2,-0.08156811724,-0.1135569177
1.21,-0.08524150983,-0.1107627137
1.22,-0.08883182811,-0.1078490825
1.23,-0.09233512599,-0.1048182002
1.24,-0.09574751624,-0.1016723543
1.25,-0.09906517041,-0.09841394195
1.26,-0.1022843189,-0.09504546845
1.27,-0.1054012508,-0.09156954645
1.28,-0.1084123144,-0.08798889515
1.29,-0.1113139172,-0.08430634002
1.3,-0.1141025263,-0.08052481276
1.31,-0.1167746693,-0.07664735157
1.32,-0.1193269347,-0.07267710172
1.33,-0.1217559735,-0.06861731628
1.34,-0.1240585005,-0.06447135715
1.35,-0.1262312956,-0.06024269619
1.36,-0.1282712064,-0.05593491655
1.37,-0.1301751499,-0.05155171406
1.38,-0.131940116,-0.04709689879
1.39,-0.13356317,-0.04257439647
1.4,-0.1350414562,-0.03798825014
1.41,-0.1363722021,-0.03334262155
1.42,-0.1375527222,-0.02864179263
1.43,-0.1385804232,-0.02389016676
1.44,-0.1394528083,-0.01909226991
1.45,-0.1401674834,-0.01425275155
1.46,-0.1407221626,-0.009376385419
1.47,-0.1411146742,-0.004468069875
1.48,-0.1413429675,0.0004671719482
1.49,-0.1414051196,0.005424192401
1.5,-0.1412993424,0.01039771994
1.51,-0.1410239903,0.01538236017
1.52,-0.1405775676,0.02037259736
1.53,-0.1399587369,0.02536279642
1.54,-0.1391663266,0.0303472054
1.55,-0.1381993397,0.03531995853
1.56,-0.1370569622,0.04027507981
1.57,-0.1357385713,0.04520648723
1.58,-0.1342437441,0.0501079975
1.59,-0.1325722661,0.05497333154
1.6,-0.1307241401,0.05979612043
1.61,-0.1286995938,0.06456991216
1.62,-0.1264990889,0.06928817895
1.63,-0.1241233289,0.0739443252
1.64,-0.1215732668,0.07853169617
1.65,-0.118850113,0.08304358723
1.66,-0.1159553422,0.08747325378
1.67,-0.112890701,0.09181392186
1.68,-0.1096582134,0.09605879925
1.69,-0.1062601878,0.1002010873
1.7,-0.1026992218,0.1042339932
1.71,-0.09897820735,0.1081507431
1.72,-0.09510033522,0.1119445952
1.73,-0.0910690985,0.1156088541
1.74,-0.08688829568,0.1191368846
1.75,-0.08256203289,0.1225221273
1.76,-0.07809472537,0.1257581131
1.77,-0.07349109819,0.1288384792
1.78,-0.06875618612,0.1317569848
1.79,-0.06389533259,0.1345075272
1.8,-0.05891418782,0.1370841578
1.81,-0.05381870602,0.1394810994
1.82,-0.04861514162,0.1416927616
1.83,-0.04331004463,0.1437137585
1.84,-0.03791025495,0.1455389243
1.85,-0.03242289572,0.1471633305
1.86,-0.0268553658,0.1485823018
1.87,-0.02121533109,0.1497914325
1.88,-0.01551071501,0.1507866023
1.89,-0.009749687961,0.1515639919
1.9,-0.003940655806,0.1521200981
1.91,0.001907752589,0.1524517487
1.92,0.007786698745,0.1525561165
1.93,0.01368714887,0.1524307335
1.94,0.01959988907,0.1520735033
1.95,0.02551554139,0.1514827138
1.96,0.03142458066,0.1506570489
1.97,0.03731735226,0.1495955994
1.98,0.04318409043,0.1482978728
1.99,0.04901493746,0.1467638024
2,0.05479996347,0.1449937558
2.01,0.0605291868,0.1429885417
2.02,0.06619259494,0.1407494165
2.03,0.07178016603,0.1382780889
2.04,0.07728189073,0.1355767243
2.05,0.08268779449,0.1326479472
2.06,0.08798796017,0.1294948435
2.07,0.09317255087,0.1261209604
2.08,0.09823183299,0.1225303062
2.09,0.1031561993,0.1187273478
2.1,0.1079361924,0.114717008
2.11,0.1125625275,0.1105046607
2.12,0.1170261158,0.1060961254
2.13,0.1213180874,0.1014976602
2.14,0.1254298136,0.09671595359
2.15,0.12935293,0.09175811474
2.16,0.1330793576,0.08663166316
2.17,0.1366013252,0.08134451657
2.18,0.1399113895,0.07590497782
2.19,0.1430024563,0.0703217206
2.2,0.1458677997,0.06460377401
2.21,0.1485010812,0.05876050601
2.22,0.1508963684,0.05280160583
2.23,0.1530481514,0.04673706528
2.24,0.15495136,0.04057715917
2.25,0.1566013789,0.03433242475
2.26,0.157994062,0.02801364024
2.27,0.1591257459,0.02163180257
2.28,0.1599932619,0.01519810438
2.29,0.1605939471,0.008723910235
2.3,0.1609256544,0.002220732285
2.31,0.1609867605,-0.004299794703
2.32,0.1607761737,-0.01082593879
2.33,0.1602933393,-0.01734589675
2.34,0.1595382447,-0.0238478203
2.35,0.1585114221,-0.03031984265
2.36,0.1572139505,-0.0367501052
2.37,0.1556474562,-0.04312678441
2.38,0.1538141117,-0.04943811872
2.39,0.1517166332,-0.05567243543
2.4,0.1493582768,-0.06181817746
2.41,0.1467428334,-0.06786392995
2.42,0.143874622,-0.07379844662
2.43,0.1407584815,-0.07961067572
2.44,0.1373997618,-0.08528978562
2.45,0.1338043126,-0.0908251899
2.46,0.1299784714,-0.09620657189
2.47,0.1259290508,-0.1014239085
2.48,0.1216633233,-0.1064674934
2.49,0.1171890059,-0.1113279596
2.5,0.112514243,-0.1159963007
2.51,0.1076475888,-0.1204638916
2.52,0.1025979878,-0.1247225087
2.53,0.09737475505,-0.1287643478
2.54,0.0919875551,-0.1325820422
2.55,0.08644638003,-0.1361686791
2.56,0.08076152684,-0.1395178149
2.57,0.07494357404,-0.1426234892
2.58,0.06900335747,-0.1454802379
2.59,0.06295194558,-0.1480831043
2.6,0.0568006142,-0.15042765
2.61,0.05056082074,-0.1525099634
2.62,0.04424417814,-0.1543266671
2.63,0.03786242835,-0.1558749247
2.64,0.03142741571,-0.1571524449
2.65,0.02495106008,-0.1581574855
2.66,0.01844532993,-0.1588888548
2.67,0.01192221542,-0.1593459127
2.68,0.005393701542,-0.1595285697
2.69,-0.001128258596,-0.1594372845
2.7,-0.007631770241,-0.1590730609
2.71,-0.01410502318,-0.1584374423
2.72,-0.02053631758,-0.1575325062
2.73,-0.02691408931,-0.1563608558
2.74,-0.03322693484,-0.154925612
2.75,-0.03946363555,-0.1532304025
2.76,-0.04561318129,-0.1512793514
2.77,-0.05166479341,-0.1490770663
2.78,-0.05760794685,-0.1466286246
2.79,-0.06343239154,-0.1439395593
2.8,-0.06912817288,-0.1410158434
2.81,-0.07468565125,-0.137863873
2.82,-0.08009552061,-0.1344904501
2.83,-0.08534882608,-0.130902764
2.84,-0.09043698044,-0.1271083727
2.85,-0.09535177952,-0.1231151827
2.86,-0.1000854166,-0.1189314285
2.87,-0.1046304954,-0.1145656519
2.88,-0.1089800421,-0.1100266801
2.89,-0.1131275165,-0.1053236037
2.9,-0.1170668208,-0.1004657545
2.91,-0.1207923089,-0.09546268267
2.92,-0.1242987926,-0.09032413367
2.93,-0.1275815483,-0.08506002527
2.94,-0.1306363213,-0.07968042422
2.95,-0.1334593292,-0.07419552295
2.96,-0.1360472642,-0.06861561637
2.97,-0.1383972941,-0.06295107865
2.98,-0.1405070625,-0.05721234025
2.99,-0.1423746867,-0.0514098651
3,-0.1439987561,-0.04555412817
3.01,-0.1453783281,-0.03965559329
3.02,-0.1465129233,-0.03372469137
3.03,-0.1474025203,-0.02777179918
3.04,-0.1480475487,-0.02180721856
3.05,-0.1484488811,-0.01584115618
3.06,-0.148607825,-0.009883703983
3.07,-0.1485261129,-0.003944820211
3.08,-0.1482058917,0.001965688814
3.09,-0.1476497123,0.007838186217
3.1,-0.1468605166,0.01366322131
3.11,-0.145841626,0.01943154551
3.12,-0.1445967271,0.02513412747
3.13,-0.1431298585,0.03076216733
3.14,-0.1414453961,0.03630711005
3.15,-0.1395480386,0.04176065793
3.16,-0.1374427916,0.04711478216
3.17,-0.1351349524,0.05236173346
3.18,-0.1326300939,0.0574940518
3.19,-0.1299340483,0.06250457517
3.2,-0.1270528909,0.06738644746
3.21,-0.1239929233,0.07213312535
3.22,-0.1207606567,0.07673838428
3.23,-0.1173627953,0.08119632359
3.24,-0.11380622,0.08550137064
3.25,-0.1100979709,0.08964828411
3.26,-0.1062452316,0.09363215639
3.27,-0.1022553126,0.0974484152
3.28,-0.09813563501,0.1010928243
3.29,-0.09389371491,0.1045614833
3.3,-0.08953714757,0.107850827
3.31,-0.08507359224,0.1109576239
3.32,-0.0805107573,0.1138789736
3.33,-0.0758563857,0.1166123039
3.34,-0.07111824089,0.1191553675
3.35,-0.06630409322,0.1215062374
3.36,-0.06142170679,0.1236633026
3.37,-0.05647882682,0.1256252621
3.38,-0.05148316758,0.1273911197
3.39,-0.04644240075,0.1289601778
3.4,-0.0413641445,0.1303320302
3.41,-0.03625595298,0.1315065557
3.42,-0.03112530651,0.1324839104
3.43,-0.02597960226,0.1332645203
3.44,-0.02082614557,0.1338490734
3.45,-0.01567214183,0.1342385117
3.46,-0.01052468895,0.1344340228
3.47,-0.00539077039,0.134437032
3.48,-0.0002772487996,0.1342491934
3.49,0.00480913984,0.1338723819
3.5,0.009861791487,0.1333086844
3.51,0.0148742388,0.1325603916
3.52,0.01984015535,0.1316299895
3.53,0.02475335942,0.1305201514
3.54,0.02960781721,0.1292337291
3.55,0.03439764569,0.1277737456
3.56,0.03911711495,0.1261433866
3.57,0.04376065023,0.1243459934
3.58,0.04832283347,0.122385055
3.59,0.05279840458,0.1202642012
3.6,0.05718226238,0.1179871953
3.61,0.06146946518,0.1155579275
3.62,0.06565523119,0.1129804087
3.63,0.06973493863,0.1102587637
3.64,0.07370412563,0.107397226
3.65,0.07755849001,0.1044001319
3.66,0.08129388882,0.1012719149
3.67,0.08490633785,0.09801710106
3.68,0.08839201101,0.09464030432
3.69,0.09174723961,0.09114622168
3.7,0.09496851169,0.0875396293
3.71,0.09805247127,0.0838253785
3.72,0.1009959176,0.08000839217
3.73,0.1037958047,0.07609366128
3.74,0.1064492402,0.07208624179
3.75,0.1089534856,0.06799125163
3.76,0.1113059551,0.06381386798
3.77,0.1135042159,0.05955932466
3.78,0.1155459875,0.05523290968
3.79,0.117429142,0.05083996301
3.8,0.1191517041,0.0463858743
3.81,0.1207118517,0.04187608091
3.82,0.1221079158,0.03731606575
3.83,0.1233383817,0.03271135542
3.84,0.1244018898,0.02806751815
3.85,0.1252972362,0.02339016186
3.86,0.1260233747,0.01868493217
3.87,0.1265794176,0.0139575103
3.88,0.1269646375,0.009213610907
3.89,0.1271784691,0.004458979878
3.9,0.1272205116,-0.0003006081066
3.91,0.1270905299,-0.005059352097
3.92,0.1267884577,-0.009811427599
3.93,0.1263143996,-0.01455098949
3.94,0.1256686335,-0.01927217515
3.95,0.1248516135,-0.02396910784
3.96,0.1238639722,-0.02863590032
3.97,0.1227065239,-0.03326665875
3.98,0.1213802671,-0.03785548686
3.99,0.1198863871,-0.04239649042
4,0.1182262595,-0.04688378202
4.01,0.1164014521,-0.05131148618
4.02,0.114413728,-0.05567374474
4.03,0.1122650483,-0.05996472263
4.04,0.1099575741,-0.06417861391
4.05,0.1074936694,-0.06830964823
4.06,0.1048759026,-0.07235209748
4.07,0.1021070489,-0.07630028293
4.08,0.09919009164,-0.08014858254
4.09,0.09612822408,-0.08389143869
4.1,0.09292485014,-0.08752336615
4.11,0.08958358539,-0.09103896032
4.12,0.08610825746,-0.09443290586
4.13,0.08250290612,-0.0976999854
4.14,0.07877178289,-0.1008350886
4.15,0.07491935035,-0.1038332216
4.16,0.07095028086,-0.106689516
4.17,0.06686945494,-0.109399239
4.18,0.06268195902,-0.1119578028
4.19,0.05839308283,-0.1143607748
4.2,0.05400831614,-0.1166038872
4.21,0.04953334499,-0.1186830471
4.22,0.04497404743,-0.1205943469
4.23,0.04033648858,-0.1223340739
4.24,0.03562691521,-0.1238987203
4.25,0.03085174968,-0.1252849933
4.26,0.02601758335,-0.1264898249
4.27,0.0211311693,-0.1275103811
4.28,0.01619941457,-0.128344072
4.29,0.01122937176,-0.1289885603
4.3,0.006228230056,-0.1294417708
4.31,0.001203305657,-0.1297018986
4.32,-0.003837968303,-0.1297674175
4.33,-0.008888052436,-0.1296370882
4.34,-0.0139393123,-0.1293099652
4.35,-0.0189840301,-0.1287854044
4.36,-0.02401441693,-0.1280630691
4.37,-0.02902262546,-0.1271429366
4.38,-0.03400076305,-0.1260253031
4.39,-0.03894090537,-0.1247107889
4.4,-0.04383511032,-0.1232003425
4.41,-0.04867543239,-0.1214952442
4.42,-0.05345393733,-0.1195971093
4.43,-0.05816271706,-0.1175078897
4.44,-0.06279390496,-0.1152298761
4.45,-0.06733969126,-0.1127656984
4.46,-0.07179233871,-0.1101183256
4.47,-0.07614419829,-0.1072910651
4.48,-0.08038772516,-0.1042875615
4.49,-0.08451549449,-0.1011117934
4.5,-0.08852021746,-0.09776807104
4.51,-0.09239475715,-0.09426103163
4.52,-0.09613214431,-0.09059563487
4.53,-0.09972559314,-0.08677715709
4.54,-0.1031685167,-0.08281118484
4.55,-0.1064545424,-0.07870360748
4.56,-0.1095775268,-0.07446060905
4.57,-0.1125315705,-0.07008865935
4.58,-0.1153110323,-0.06559450416
4.59,-0.1179105437,-0.06098515472
4.6,-0.1203250215,-0.05626787646
4.61,-0.1225496819,-0.05145017696
4.62,-0.1245800521,-0.04653979322
4.63,-0.1264119825,-0.04154467824
4.64,-0.1280416584,-0.0364729869
4.65,-0.12946561,-0.03133306129
4.66,-0.1306807226,-0.02613341533
4.67,-0.1316842461,-0.02088271894
4.68,-0.1324738031,-0.01558978161
4.69,-0.1330473967,-0.01026353551
4.7,-0.1334034173,-0.004913018164
4.71,-0.1335406487,0.0004526452936
4.72,-0.1334582732,0.005824260215
4.73,-0.1331558758,0.01119258084
4.74,-0.1326334476,0.01654832896
4.75,-0.1318913882,0.0218822128
4.76,-0.1309305071,0.0271849461
4.77,-0.1297520243,0.03244726722
4.78,-0.1283575697,0.03765995842
4.79,-0.1267491819,0.04281386509
4.8,-0.1249293058,0.04789991492
4.81,-0.1229007892,0.05290913708
4.82,-0.1206668783,0.05783268112
4.83,-0.118231213,0.06266183582
4.84,-0.1155978201,0.06738804766
4.85,-0.1127711065,0.0720029391
4.86,-0.1097558513,0.07649832646
4.87,-0.1065571962,0.08086623742
4.88,-0.1031806367,0.08509892809
4.89,-0.09963201059,0.08918889957
4.9,-0.0959174867,0.09312891401
4.91,-0.09204355276,0.09691201003
4.92,-0.08801700222,0.1005315176
4.93,-0.08384492045,0.1039810722
4.94,-0.07953467027,0.1072546284
4.95,-0.07509387684,0.1103464724
4.96,-0.0705304118,0.1132512342
4.97,-0.06585237701,0.1159638988
4.98,-0.06106808765,0.1184798164
4.99,-0.0561860548,0.120794712
5,-0.05121496768,0.1229046941
5.01,-0.04616367543,0.1248062622
5.02,-0.04104116854,0.1264963139
5.03,-0.03585655997,0.1279721506
5.04,-0.0306190661,0.1292314822
5.05,-0.0253379874,0.1302724315
5.06,-0.02002268895,0.1310935371
5.07,-0.01468258095,0.1316937549
5.08,-0.009327099117,0.13207246
5.09,-0.003965685086,0.132229446
5.1,0.001392233086,0.1321649245
5.11,0.006737260339,0.1318795233
5.12,0.01206005385,0.1313742833
5.13,0.0173513421,0.1306506551
5.14,0.0226019436,0.1297104939
5.15,0.02780278543,0.1285560544
5.16,0.03294492131,0.127189984
5.17,0.03801954938,0.1256153156
5.18,0.04301802944,0.1238354594
5.19,0.04793189979,0.1218541938
5.2,0.0527528935,0.1196756559
5.21,0.05747295413,0.1173043308
5.22,0.0620842509,0.1147450405
5.23,0.06657919312,0.1120029316
5.24,0.07095044411,0.1090834634
5.25,0.07519093429,0.1059923941
5.26,0.07929387361,0.1027357674
5.27,0.08325276329,0.09931989822
5.28,0.08706140667,0.0957513578
5.29,0.09071391937,0.09203695869
5.3,0.09420473863,0.08818373906
5.31,0.09752863181,0.08419894682
5.32,0.1006807041,0.08009002335
5.33,0.1036564052,0.07586458699
5.34,0.1064515355,0.07153041636
5.35,0.1090622513,0.06709543346
5.36,0.1114850687,0.06256768666
5.37,0.1137168674,0.05795533358
5.38,0.1157548931,0.05326662402
5.39,0.1175967593,0.04850988283
5.4,0.1192404482,0.04369349285
5.41,0.1206843106,0.03882587793
5.42,0.1219270654,0.03391548616
5.43,0.122967798,0.0289707732
5.44,0.1238059577,0.02400018586
5.45,0.1244413551,0.01901214598
5.46,0.1248741577,0.0140150345
5.47,0.1251048859,0.009017175988
5.48,0.1251344072,0.004026823446
5.49,0.1249639307,-0.0009478564616
5.5,0.1245950004,-0.00589879775
5.51,0.124029488,-0.010818049
5.52,0.1232695851,-0.01569778677
5.53,0.1223177952,-0.0205303285
5.54,0.1211769244,-0.02530814487
5.55,0.1198500724,-0.03002387165
5.56,0.1183406226,-0.03467032092
5.57,0.1166522322,-0.0392404918
5.58,0.1147888214,-0.04372758048
5.59,0.1127545624,-0.04812498969
5.6,0.1105538686,-0.05242633759
5.61,0.1081913826,-0.05662546595
5.62,0.105671965,-0.06071644778
5.63,0.1030006822,-0.06469359428
5.64,0.1001827943,-0.06855146112
5.65,0.09722374298,-0.07228485422
5.66,0.09412913928,-0.07588883473
5.67,0.090904751,-0.07935872349
5.68,0.08755649048,-0.08269010485
5.69,0.08409040214,-0.08587882984
5.7,0.08051265012,-0.08892101879
5.71,0.07682950601,-0.09181306335
5.72,0.0730473366,-0.09455162787
5.73,0.06917259182,-0.09713365034
5.74,0.06521179283,-0.09955634263
5.75,0.06117152017,-0.1018171903
5.76,0.0570584023,-0.1039139521
5.77,0.05287910416,-0.1058446582
5.78,0.04864031609,-0.1076076092
5.79,0.04434874301,-0.1092013736
5.8,0.04001109376,-0.1106247853
5.81,0.0356340709,-0.1118769406
5.82,0.03122436065,-0.1129571952
5.83,0.0267886233,-0.1138651598
5.84,0.0223334838,-0.114600697
5.85,0.01786552281,-0.1151639162
5.86,0.01339126804,-0.1155551693
5.87,0.008917185954,-0.1157750457
5.88,0.004449673804,-0.1158243675
5.89,-4.947932917E-06,-0.1157041837
5.9,-0.004440442783,-0.115415765
5.91,-0.008850665141,-0.1149605981
5.92,-0.01322956678,-0.1143403796
5.93,-0.01757120297,-0.1135570105
5.94,-0.02186973834,-0.1126125897
5.95,-0.02611945225,-0.1115094081
5.96,-0.03031474396,-0.1102499425
5.97,-0.03445013736,-0.1088368491
5.98,-0.03852028549,-0.1072729574
5.99,-0.04251997461,-0.1055612641
6,-0.0464441281,-0.1037049263
