"Freq [GHz]","re(S(Tx_p1,Tx_p1)) []","im(S(Tx_p1,Tx_p1)) []"
1,0.003724011743,-0.1245007041
1.01,-0.0001338849426,-0.1244222188
1.02,-0.004000209481,-0.1242281238
1.03,-0.00787085857,-0.1239174233
1.04,-0.01174172116,-0.1234893062
1.05,-0.01560868514,-0.1229431405
1.06,-0.01946764336,-0.1222784674
1.07,-0.02331449916,-0.1214949952
1.08,-0.02714517122,-0.1205925942
1.09,-0.03095559796,-0.1195712901
1.1,-0.03474174138,-0.1184312597
1.11,-0.0384995905,-0.1171728249
1.12,-0.04222516421,-0.1157964479
1.13,-0.04591451389,-0.1143027266
1.14,-0.04956372548,-0.1126923899
1.15,-0.05316892131,-0.1109662936
1.16,-0.05672626156,-0.1091254162
1.17,-0.06023194549,-0.1071708556
1.18,-0.0636822124,-0.1051038256
1.19,-0.06707334239,-0.1029256528
1.2,-0.07040165695,-0.1006377743
1.21,-0.07366351941,-0.09824173502
1.22,-0.07685533537,-0.09573918577
1.23,-0.07997355294,-0.09313188174
1.24,-0.08301466308,-0.09042168103
1.25,-0.08597519988,-0.0876105437
1.26,-0.08885174092,-0.08470053101
1.27,-0.09164090769,-0.08169380507
1.28,-0.09433936616,-0.07859262869
1.29,-0.0969438274,-0.0753993655
1.3,-0.09945104851,-0.07211648038
1.31,-0.1018578336,-0.06874654005
1.32,-0.1041610351,-0.06529221386
1.33,-0.1063575552,-0.06175627484
1.34,-0.1084443478,-0.05814160077
1.35,-0.1104184204,-0.05445117548
1.36,-0.1122768365,-0.05068809021
1.37,-0.1140167184,-0.04685554497
1.38,-0.1156352499,-0.04295685003
1.39,-0.1171296802,-0.03899542731
1.4,-0.118497327,-0.0349748118
1.41,-0.1197355807,-0.03089865284
1.42,-0.1208419089,-0.02677071537
1.43,-0.1218138611,-0.02259488095
1.44,-0.1226490736,-0.01837514867
1.45,-0.1233452749,-0.01411563582
1.46,-0.1239002916,-0.009820578312
1.47,-0.1243120542,-0.005494330814
1.48,-0.1245786033,-0.001141366598
1.49,-0.1246980963,0.003233722975
1.5,-0.1246688145,0.007626229345
1.51,-0.1244891696,0.01203132803
1.52,-0.124157711,0.01644408036
1.53,-0.1236731339,0.02085943561
1.54,-0.1230342859,0.02527223368
1.55,-0.1222401752,0.02967720825
1.56,-0.1212899785,0.0340689904
1.57,-0.1201830481,0.03844211285
1.58,-0.1189189205,0.04279101467
1.59,-0.1174973235,0.04711004661
1.6,-0.1159181843,0.05139347699
1.61,-0.1141816368,0.05563549809
1.62,-0.1122880291,0.05983023326
1.63,-0.1102379308,0.06397174442
1.64,-0.1080321396,0.06805404036
1.65,-0.1056716885,0.07207108537
1.66,-0.1031578518,0.07601680864
1.67,-0.1004921513,0.07988511408
1.68,-0.09767636166,0.08366989068
1.69,-0.09471251556,0.08736502351
1.7,-0.09160290854,0.090964405
1.71,-0.08835010292,0.09446194694
1.72,-0.08495693143,0.09785159268
1.73,-0.08142650007,0.10112733
1.74,-0.07776219048,0.104283204
1.75,-0.07396766152,0.1073133309
1.76,-0.07004685021,0.1102119116
1.77,-0.06600397193,0.1129732456
1.78,-0.06184351984,0.1155917456
1.79,-0.05757026353,0.1180619518
1.8,-0.05318924692,0.1203785466
1.81,-0.04870578522,0.1225363692
1.82,-0.0441254612,0.1245304302
1.83,-0.03945412051,0.1263559268
1.84,-0.03469786616,0.1280082571
1.85,-0.02986305219,0.1294830349
1.86,-0.02495627643,0.130776104
1.87,-0.01998437238,0.1318835526
1.88,-0.01495440028,0.1328017268
1.89,-0.009873637324,0.133527245
1.9,-0.00474956696,0.1340570102
1.91,0.0004101325378,0.1343882238
1.92,0.005597600369,0.1345183972
1.93,0.01080480627,0.1344453639
1.94,0.01602356436,0.1341672908
1.95,0.02124554769,0.1336826888
1.96,0.02646230351,0.1329904225
1.97,0.03166526924,0.1320897197
1.98,0.036845789,0.1309801796
1.99,0.04199513082,0.1296617806
2,0.04710450432,0.128134887
2.01,0.05216507895,0.1264002547
2.02,0.05716800263,0.1244590365
2.03,0.06210442087,0.1223127859
2.04,0.06696549619,0.1199634599
2.05,0.07174242783,0.1174134216
2.06,0.07642647173,0.1146654404
2.07,0.08100896069,0.1117226927
2.08,0.08548132466,0.10858876
2.09,0.08983511107,0.1052676272
2.1,0.09406200515,0.1017636791
2.11,0.09815385026,0.09808169594
2.12,0.102102668,0.09422684777
2.13,0.1059006784,0.09020468804
2.14,0.1095403192,0.08602114579
2.15,0.1130142656,0.08168251681
2.16,0.1163154495,0.07719545385
2.17,0.1194370775,0.07256695568
2.18,0.1223726496,0.06780435515
2.19,0.1251159765,0.06291530624
2.2,0.1276611965,0.05790777014
2.21,0.1300027918,0.0527900004
2.22,0.1321356042,0.04757052716
2.23,0.1340548498,0.04225814046
2.24,0.1357561327,0.03686187284
2.25,0.1372354585,0.031390981
2.26,0.1384892459,0.02585492687
2.27,0.1395143385,0.02026335791
2.28,0.1403080144,0.01462608676
2.29,0.1408679956,0.008953070397
2.3,0.1411924562,0.003254388692
2.31,0.1412800287,-0.002459777465
2.32,0.1411298107,-0.008179168437
2.33,0.1407413689,-0.01389346846
2.34,0.1401147427,-0.01959232851
2.35,0.1392504467,-0.02526538946
2.36,0.1381494712,-0.03090230524
2.37,0.136813283,-0.03649276619
2.38,0.1352438232,-0.04202652239
2.39,0.1334435047,-0.04749340693
2.4,0.131415209,-0.05288335898
2.41,0.1291622807,-0.05818644682
2.42,0.1266885211,-0.06339289044
2.43,0.1239981816,-0.06849308396
2.44,0.1210959544,-0.07347761754
2.45,0.117986963,-0.07833729891
2.46,0.1146767517,-0.08306317433
2.47,0.1111712736,-0.08764654905
2.48,0.1074768774,-0.09207900701
2.49,0.1036002938,-0.09635242998
2.5,0.0995486203,-0.1004590158
2.51,0.09532930568,-0.1043912961
2.52,0.09095013303,-0.1081421527
2.53,0.08641920229,-0.1117048336
2.54,0.08174491189,-0.1150729677
2.55,0.0769359397,-0.1182405787
2.56,0.07200122322,-0.1212020979
2.57,0.06694993932,-0.1239523761
2.58,0.06179148322,-0.1264866943
2.59,0.05653544715,-0.1288007729
2.6,0.05119159849,-0.1308907807
2.61,0.04576985752,-0.1327533419
2.62,0.04028027494,-0.1343855422
2.63,0.03473300909,-0.135784934
2.64,0.02913830303,-0.1369495398
2.65,0.02350646148,-0.1378778551
2.66,0.01784782778,-0.1385688494
2.67,0.01217276078,-0.1390219667
2.68,0.006491611891,-0.1392371244
2.69,0.0008147022823,-0.1392147109
2.7,-0.004847699738,-0.1389555825
2.71,-0.01048540104,-0.1384610588
2.72,-0.01608830564,-0.1377329169
2.73,-0.02164643631,-0.136773385
2.74,-0.02714995566,-0.1355851343
2.75,-0.03258918679,-0.1341712705
2.76,-0.03795463331,-0.1325353235
2.77,-0.04323699876,-0.1306812368
2.78,-0.04842720539,-0.1286133561
2.79,-0.05351641216,-0.1263364159
2.8,-0.05849603207,-0.1238555269
2.81,-0.06335774862,-0.1211761609
2.82,-0.06809353145,-0.1183041364
2.83,-0.07269565116,-0.1152456025
2.84,-0.0771566931,-0.1120070229
2.85,-0.08146957039,-0.1085951585
2.86,-0.08562753586,-0.1050170502
2.87,-0.08962419308,-0.101280001
2.88,-0.09345350633,-0.09739155738
2.89,-0.09710980962,-0.09335949065
2.9,-0.1005878147,-0.08919177794
2.91,-0.1038826178,-0.08489658286
2.92,-0.1069897058,-0.080482236
2.93,-0.1099049611,-0.07595721531
2.94,-0.1126246651,-0.0713301264
2.95,-0.1151455013,-0.06660968284
2.96,-0.1174645569,-0.06180468648
2.97,-0.1195793239,-0.05692400787
2.98,-0.1214876985,-0.05197656682
2.99,-0.1231879799,-0.04697131322
3,-0.1246788684,-0.04191720802
3.01,-0.1259594623,-0.03682320459
3.02,-0.1270292535,-0.03169823038
3.03,-0.1278881231,-0.02655116904
3.04,-0.1285363354,-0.02139084287
3.05,-0.1289745316,-0.01622599591
3.06,-0.1292037221,-0.01106527739
3.07,-0.1292252789,-0.005917225823
3.08,-0.1290409267,-0.0007902536938
3.09,-0.1286527332,0.004307367273
3.1,-0.1280630996,0.00936752017
3.11,-0.1272747496,0.01438225629
3.12,-0.1262907185,0.01934380782
3.13,-0.1251143415,0.02424459981
3.14,-0.1237492416,0.0290772614
3.15,-0.1221993174,0.03383463633
3.16,-0.1204687301,0.03850979265
3.17,-0.1185618903,0.04309603167
3.18,-0.1164834451,0.04758689616
3.19,-0.1142382644,0.05197617777
3.2,-0.1118314268,0.05625792363
3.21,-0.1092682064,0.06042644226
3.22,-0.1065540585,0.06447630861
3.23,-0.1036946062,0.06840236843
3.24,-0.1006956256,0.07219974186
3.25,-0.09756303312,0.07586382627
3.26,-0.09430287084,0.07939029839
3.27,-0.09092129342,0.08277511578
3.28,-0.08742455449,0.08601451754
3.29,-0.0838189935,0.08910502445
3.3,-0.08011102274,0.09204343837
3.31,-0.07630711464,0.09482684117
3.32,-0.07241378936,0.09745259292
3.33,-0.06843760276,0.09991832966
3.34,-0.06438513464,0.1022219606
3.35,-0.06026297744,0.1043616646
3.36,-0.0560777253,0.1063358869
3.37,-0.05183596349,0.1081433343
3.38,-0.04754425835,0.1097829711
3.39,-0.04320914765,0.1112540137
3.4,-0.03883713132,0.1125559256
3.41,-0.0344346628,0.1136884119
3.42,-0.03000814068,0.114651413
3.43,-0.025563901,0.1154450991
3.44,-0.02110820985,0.1160698634
3.45,-0.01664725653,0.116526316
3.46,-0.01218714724,0.1168152773
3.47,-0.007733899071,0.1169377712
3.48,-0.003293434629,0.1168950185
3.49,0.001128423001,0.1166884301
3.5,0.005525954809,0.1163196001
3.51,0.009893549991,0.1157902994
3.52,0.01422570967,0.1151024685
3.53,0.01851705022,0.1142582113
3.54,0.02276230621,0.113259788
3.55,0.02695633294,0.1121096095
3.56,0.03109410876,0.1108102302
3.57,0.03517073689,0.1093643424
3.58,0.03918144707,0.10777477
3.59,0.04312159691,0.1060444632
3.6,0.0469866729,0.1041764919
3.61,0.05077229132,0.1021740416
3.62,0.0544741988,0.1000404069
3.63,0.05808827282,0.09777898741
3.64,0.06161052196,0.0953932827
3.65,0.06503708604,0.09288688769
3.66,0.06836423614,0.09026348842
3.67,0.07158837457,0.08752685798
3.68,0.07470603472,0.08468085265
3.69,0.07771388085,0.08172940824
3.7,0.08060870792,0.07867653671
3.71,0.08338744141,0.07552632293
3.72,0.08604713705,0.07228292164
3.73,0.08858498074,0.06895055466
3.74,0.09099828841,0.06553350821
3.75,0.09328450598,0.0620361304
3.76,0.09544120944,0.05846282888
3.77,0.097466105,0.05481806862
3.78,0.09935702929,0.05110636979
3.79,0.1011119498,0.04733230575
3.8,0.1027289655,0.04350050109
3.81,0.104206307,0.03961562975
3.82,0.1055423382,0.03568241318
3.83,0.1067355564,0.0317056185
3.84,0.1077845938,0.02769005668
3.85,0.1086882187,0.02364058066
3.86,0.1094453369,0.01956208346
3.87,0.110054993,0.01545949624
3.88,0.1105163726,0.01133778621
3.89,0.1108288036,0.007201954511
3.9,0.1109917584,0.003057033941
3.91,0.1110048559,-0.001091913477
3.92,0.1108678636,-0.005239799051
3.93,0.1105807002,-0.009381510172
3.94,0.1101434376,-0.01351191325
3.95,0.1095563033,-0.01762585688
3.96,0.1088196833,-0.02171817515
3.97,0.1079341241,-0.0257836913
3.98,0.1069003355,-0.02981722155
3.99,0.105719193,-0.03381357916
4,0.1043917405,-0.03776757882
4.01,0.1029191924,-0.04167404123
4.02,0.1013029362,-0.04552779805
4.03,0.09954453469,-0.04932369705
4.04,0.09764572811,-0.05305660753
4.05,0.09560843621,-0.05672142607
4.06,0.09343476002,-0.06031308255
4.07,0.09112698357,-0.06382654638
4.08,0.08868757531,-0.06725683308
4.09,0.08611918932,-0.07059901105
4.1,0.08342466628,-0.07384820863
4.11,0.0806070341,-0.07699962139
4.12,0.07766950834,-0.08004851962
4.13,0.07461549216,-0.08299025608
4.14,0.07144857611,-0.0858202739
4.15,0.06817253736,-0.0885341147
4.16,0.06479133866,-0.0911274268
4.17,0.06130912689,-0.09359597366
4.18,0.05773023113,-0.09593564235
4.19,0.05405916035,-0.09814245217
4.2,0.05030060059,-0.1002125633
4.21,0.04645941175,-0.1021422855
4.22,0.04254062386,-0.1039280869
4.23,0.03854943286,-0.1055666025
4.24,0.03449119589,-0.1070546431
4.25,0.03037142613,-0.1083892036
4.26,0.0261957871,-0.1095674719
4.27,0.02197008644,-0.1105868368
4.28,0.01770026926,-0.1114448962
4.29,0.01339241091,-0.1121394655
4.3,0.009052709298,-0.112668585
4.31,0.004687476741,-0.1130305274
4.32,0.0003031312869,-0.1132238051
4.33,-0.004093812393,-0.1132471773
4.34,-0.008496752586,-0.1130996558
4.35,-0.01289901056,-0.112780512
4.36,-0.01729384098,-0.1122892821
4.37,-0.02167444281,-0.1116257724
4.38,-0.0260339705,-0.1107900644
4.39,-0.03036554558,-0.1097825188
4.4,-0.03466226865,-0.1086037794
4.41,-0.03891723155,-0.1072547764
4.42,-0.04312352999,-0.105736729
4.43,-0.04727427624,-0.1040511476
4.44,-0.05136261223,-0.102199835
4.45,-0.05538172273,-0.1001848874
4.46,-0.05932484872,-0.09800869467
4.47,-0.0631853009,-0.09567393987
4.48,-0.06695647327,-0.09318359794
4.49,-0.0706318568,-0.09054093401
4.5,-0.07420505306,-0.08774950086
4.51,-0.07766978792,-0.08481313573
4.52,-0.08101992507,-0.08173595638
4.53,-0.08424947959,-0.0785223565
4.54,-0.08735263122,-0.07517700039
4.55,-0.09032373761,-0.07170481696
4.56,-0.09315734727,-0.068110993
4.57,-0.09584821224,-0.06440096583
4.58,-0.09839130061,-0.06058041518
4.59,-0.1007818085,-0.05665525453
4.6,-0.1030151719,-0.05263162169
4.61,-0.1050870778,-0.0485158688
4.62,-0.1069934754,-0.04431455168
4.63,-0.1087305863,-0.04003441869
4.64,-0.1102949142,-0.03568239886
4.65,-0.1116832547,-0.0312655896
4.66,-0.1128927038,-0.02679124387
4.67,-0.1139206661,-0.02226675682
4.68,-0.1147648625,-0.017699652
4.69,-0.1154233368,-0.01309756714
4.7,-0.1158944622,-0.008468239552
4.71,-0.1161769466,-0.003819491176
4.72,-0.1162698375,0.0008407867345
4.73,-0.116172526,0.005504649158
4.74,-0.11588475,0.01016411311
4.75,-0.1154065966,0.01481117366
4.76,-0.114738504,0.0194378201
4.77,-0.1138812623,0.0240360522
4.78,-0.1128360137,0.02859789663
4.79,-0.1116042514,0.0331154233
4.8,-0.1101878185,0.03758076177
4.81,-0.1085889054,0.0419861176
4.82,-0.1068100466,0.04632378854
4.83,-0.1048541169,0.05058618066
4.84,-0.1027243266,0.05476582426
4.85,-0.1004242156,0.05885538957
4.86,-0.09795764732,0.0628477021
4.87,-0.09532880162,0.06673575786
4.88,-0.09254216674,0.07051273801
4.89,-0.08960253076,0.07417202332
4.9,-0.0865149723,0.07770720804
4.91,-0.08328485046,0.08111211343
4.92,-0.07991779416,0.08438080071
4.93,-0.07641969085,0.0875075835
4.94,-0.07279667453,0.09048703969
4.95,-0.06905511331,0.09331402272
4.96,-0.06520159634,0.0959836722
4.97,-0.06124292024,0.0984914239
4.98,-0.05718607509,0.1008330191
4.99,-0.05303822998,0.103004513
5,-0.04880671808,0.1050022828
5.01,-0.04449902147,0.1068230348
5.02,-0.04012275556,0.1084638106
5.03,-0.03568565327,0.1099219925
5.04,-0.03119554894,0.111195309
5.05,-0.02666036209,0.1122818377
5.06,-0.02208808099,0.1131800096
5.07,-0.01748674613,0.1138886104
5.08,-0.0128644336,0.1144067828
5.09,-0.008229238529,0.1147340267
5.1,-0.003589258412,0.1148701993
5.11,0.001047423385,0.1148155141
5.12,0.005672754074,0.1145705394
5.13,0.01027872774,0.1141361952
5.14,0.01485740143,0.1135137505
5.15,0.01940091105,0.1127048186
5.16,0.02390148697,0.1117113528
5.17,0.02835146929,0.1105356402
5.18,0.03274332285,0.1091802959
5.19,0.0370696518,0.1076482555
5.2,0.04132321375,0.1059427678
5.21,0.04549693348,0.1040673861
5.22,0.04958391625,0.1020259593
5.23,0.05357746045,0.09982262238
5.24,0.05747106986,0.09746178608
5.25,0.06125846527,0.09494812632
5.26,0.06493359552,0.09228657297
5.27,0.06849064794,0.08948229808
5.28,0.07192405818,0.08654070389
5.29,0.07522851936,0.08346741019
5.3,0.07839899056,0.08026824152
5.31,0.08143070465,0.07694921392
5.32,0.08431917542,0.07351652146
5.33,0.08706020399,0.06997652243
5.34,0.08964988455,0.06633572544
5.35,0.09208460934,0.06260077524
5.36,0.09436107297,0.05877843845
5.37,0.09647627593,0.0548755892
5.38,0.09842752752,0.05089919466
5.39,0.1002124479,0.04685630062
5.4,0.1018289696,0.04275401701
5.41,0.1032753383,0.03859950352
5.42,0.1045501124,0.03439995529
5.43,0.1056521631,0.03016258874
5.44,0.1065806727,0.02589462749
5.45,0.1073351323,0.02160328859
5.46,0.1079153397,0.01729576882
5.47,0.1083213961,0.01297923138
5.48,0.108553702,0.008660792777
5.49,0.1086129528,0.004347510028
5.5,0.1085001341,4.636824047E-05
5.51,0.1082165159,-0.004235731489
5.52,0.1077636466,-0.008491983775
5.53,0.1071433469,-0.01271569024
5.54,0.1063577021,-0.01690027038
5.55,0.1054090553,-0.021039272
5.56,0.1042999994,-0.02512638119
5.57,0.1030333688,-0.02915543178
5.58,0.101612231,-0.03312041439
5.59,0.1000398778,-0.03701548489
5.6,0.09831981611,-0.04083497242
5.61,0.0964557585,-0.04457338687
5.62,0.09445161369,-0.04822542578
5.63,0.0923114767,-0.05178598083
5.64,0.0900396189,-0.05525014372
5.65,0.08764047788,-0.05861321148
5.66,0.08511864722,-0.06187069138
5.67,0.08247886623,-0.06501830519
5.68,0.07972600959,-0.06805199299
5.69,0.07686507697,-0.07096791641
5.7,0.07390118264,-0.07376246142
5.71,0.07083954519,-0.07643224057
5.72,0.06768547721,-0.07897409477
5.73,0.06444437508,-0.08138509457
5.74,0.06112170885,-0.08366254097
5.75,0.05772301232,-0.08580396582
5.76,0.05425387311,-0.08780713172
5.77,0.05071992307,-0.08967003154
5.78,0.04712682873,-0.09139088751
5.79,0.04348028201,-0.09296814994
5.8,0.03978599115,-0.09440049558
5.81,0.03604967186,-0.09568682556
5.82,0.03227703866,-0.09682626308
5.83,0.02847379658,-0.09781815073
5.84,0.024645633,-0.09866204757
5.85,0.02079820986,-0.09935772585
5.86,0.01693715611,-0.09990516756
5.87,0.0130680604,-0.1003045607
5.88,0.009196464151,-0.1005562954
5.89,0.005327854829,-0.1006609597
5.9,0.001467659584,-0.1006193352
5.91,-0.002378760859,-0.1004323929
5.92,-0.006206118006,-0.1001012884
5.93,-0.0100092011,-0.09962735698
5.94,-0.01378288233,-0.0990121092
5.95,-0.0175221218,-0.09825722577
5.96,-0.02122197212,-0.09736455266
5.97,-0.02487758284,-0.09633609604
5.98,-0.02848420454,-0.09517401732
5.99,-0.03203719266,-0.09388062801
6,-0.03553201113,-0.09245838469
