"Freq [GHz]","re(S(Tx_p1,Tx_p1)) []","im(S(Tx_p1,Tx_p1)) []"
1,0.009443450956,-0.1110448608
1.01,0.00608558896,-0.1110146448
1.02,0.002724550624,-0.1108842585
1.03,-0.0006357968502,-0.1106531463
1.04,-0.003991598668,-0.1103209582
1.05,-0.00733902233,-0.109887544
1.06,-0.01067426693,-0.109352946
1.07,-0.01399357188,-0.1087173928
1.08,-0.01729322503,-0.1079812918
1.09,-0.02056957023,-0.1071452219
1.1,-0.02381901425,-0.1062099266
1.11,-0.02703803322,-0.1051763059
1.12,-0.03022317842,-0.1040454091
1.13,-0.03337108152,-0.102818427
1.14,-0.03647845927,-0.101496684
1.15,-0.03954211765,-0.1000816309
1.16,-0.04255895548,-0.09857483668
1.17,-0.04552596749,-0.09697798134
1.18,-0.04844024694,-0.09529284806
1.19,-0.0512989876,-0.09352131586
1.2,-0.05409948547,-0.09166535236
1.21,-0.05683913984,-0.08972700656
1.22,-0.05951545403,-0.08770840191
1.23,-0.06212603565,-0.08561172956
1.24,-0.06466859651,-0.08343924178
1.25,-0.06714095211,-0.08119324568
1.26,-0.06954102078,-0.07887609717
1.27,-0.07186682255,-0.07649019517
1.28,-0.07411647761,-0.07403797615
1.29,-0.07628820461,-0.07152190891
1.3,-0.07838031863,-0.06894448977
1.31,-0.08039122891,-0.06630823797
1.32,-0.08231943646,-0.06361569147
1.33,-0.08416353145,-0.0608694031
1.34,-0.08592219043,-0.05807193697
1.35,-0.08759417345,-0.05522586531
1.36,-0.08917832115,-0.0523337656
1.37,-0.09067355169,-0.04939821808
1.38,-0.0920788577,-0.04642180356
1.39,-0.09339330319,-0.04340710162
1.4,-0.0946160205,-0.04035668907
1.41,-0.09574620729,-0.03727313882
1.42,-0.09678312354,-0.03415901897
1.43,-0.0977260887,-0.03101689229
1.44,-0.09857447893,-0.02784931594
1.45,-0.09932772444,-0.02465884146
1.46,-0.099985307,-0.02144801508
1.47,-0.1005467577,-0.01821937822
1.48,-0.1010116546,-0.01497546822
1.49,-0.1013796211,-0.01171881934
1.5,-0.101650324,-0.008451963872
1.51,-0.1018234721,-0.005177433498
1.52,-0.1018988151,-0.001897760738
1.53,-0.1018761424,0.001384519438
1.54,-0.1017552823,0.00466686791
1.55,-0.1015361019,0.007946739614
1.56,-0.1012185069,0.0112215817
1.57,-0.1008024412,0.01448883163
1.58,-0.100287888,0.01774591533
1.59,-0.0996748699,0.02099024525
1.6,-0.09896345025,0.02421921855
1.61,-0.09815373416,0.02743021532
1.62,-0.09724587012,0.03062059687
1.63,-0.09624005175,0.03378770412
1.64,-0.09513651985,0.03692885617
1.65,-0.09393556469,0.04004134896
1.66,-0.09263752857,0.04312245415
1.67,-0.09124280853,0.04616941817
1.68,-0.08975185942,0.04917946149
1.69,-0.08816519698,0.05214977811
1.7,-0.08648340127,0.05507753533
1.71,-0.08470712016,0.05795987379
1.72,-0.08283707304,0.06079390773
1.73,-0.08087405456,0.06357672564
1.74,-0.07881893859,0.06630539111
1.75,-0.07667268214,0.06897694414
1.76,-0.07443632948,0.07158840266
1.77,-0.07211101614,0.07413676441
1.78,-0.06969797305,0.07661900926
1.79,-0.06719853057,0.07903210174
1.8,-0.06461412259,0.08137299405
1.81,-0.06194629043,0.08363862935
1.82,-0.05919668675,0.08582594541
1.83,-0.05636707933,0.08793187867
1.84,-0.05345935463,0.0899533686
1.85,-0.05047552131,0.0918873624
1.86,-0.04741771345,0.09373082012
1.87,-0.04428819357,0.09548071996
1.88,-0.04108935545,0.09713406407
1.89,-0.03782372664,0.0986878845
1.9,-0.03449397069,0.1001392496
1.91,-0.03110288907,0.1014852704
1.92,-0.02765342272,0.1027231078
1.93,-0.02414865332,0.1038499794
1.94,-0.02059180405,0.104863167
1.95,-0.01698624013,0.1057600237
1.96,-0.01333546875,0.1065379823
1.97,-0.00964313874,0.1071945627
1.98,-0.005913039671,0.1077273797
1.99,-0.002149100571,0.1081341519
2,0.001644611865,0.1084127088
2.01,0.00546389554,0.1085609999
2.02,0.009304415702,0.1085771025
2.03,0.0131617082,0.1084592301
2.04,0.01703118323,0.1082057406
2.05,0.02090812958,0.1078151443
2.06,0.02478771945,0.107286112
2.07,0.02866501361,0.1066174831
2.08,0.03253496731,0.105808273
2.09,0.03639243642,0.1048576809
2.1,0.0402321843,0.1037650971
2.11,0.04404888897,0.1025301099
2.12,0.04783715089,0.1011525128
2.13,0.05159150114,0.09963231035
2.14,0.05530641,0.09796972488
2.15,0.05897629611,0.09616520194
2.16,0.06259553589,0.09421941571
2.17,0.06615847344,0.09213327398
2.18,0.06965943084,0.08990792259
2.19,0.0730927187,0.08754474941
2.2,0.07645264716,0.08504538786
2.21,0.07973353712,0.08241171987
2.22,0.08292973176,0.07964587827
2.23,0.08603560833,0.07675024867
2.24,0.08904559016,0.07372747067
2.25,0.0919541588,0.07058043859
2.26,0.09475586641,0.06731230144
2.27,0.0974453482,0.06392646237
2.28,0.100017335,0.06042657742
2.29,0.1024666659,0.05681655362
2.3,0.1047883007,0.05310054648
2.31,0.1069773329,0.04928295673
2.32,0.1090290019,0.04536842648
2.33,0.1109387055,0.04136183463
2.34,0.1127020126,0.03726829168
2.35,0.1143146751,0.03309313382
2.36,0.1157726397,0.02884191639
2.37,0.1170720601,0.02452040665
2.38,0.1182093082,0.02013457596
2.39,0.1191809853,0.01569059125
2.4,0.1199839329,0.01119480593
2.41,0.1206152431,0.00665375017
2.42,0.121072269,0.002074120565
2.43,0.1213526336,-0.002537230728
2.44,0.1214542394,-0.007173307433
2.45,0.1213752769,-0.01182698112
2.46,0.1211142324,-0.01649100365
2.47,0.1206698958,-0.02115802015
2.48,0.1200413671,-0.02582058239
2.49,0.1192280628,-0.03047116257
2.5,0.1182297217,-0.03510216753
2.51,0.1170464095,-0.03970595331
2.52,0.1156785228,-0.04427484001
2.53,0.1141267933,-0.04880112695
2.54,0.1123922899,-0.05327710806
2.55,0.110476421,-0.05769508751
2.56,0.1083809356,-0.0620473955
2.57,0.1061079241,-0.06632640417
2.58,0.1036598174,-0.07052454361
2.59,0.1010393864,-0.07463431793
2.6,0.0982497396,-0.07864832138
2.61,0.09529432077,-0.08255925432
2.62,0.0921769052,-0.08635993927
2.63,0.0889015955,-0.09004333675
2.64,0.08547281646,-0.09360256096
2.65,0.08189530916,-0.09703089536
2.66,0.07817412433,-0.1003218079
2.67,0.07431461482,-0.103468966
2.68,0.07032242748,-0.1064662512
2.69,0.06620349418,-0.1093077738
2.7,0.06196402211,-0.1119878863
2.71,0.05761048341,-0.114501197
2.72,0.05314960413,-0.1168425834
2.73,0.04858835243,-0.1190072043
2.74,0.04393392627,-0.1209905119
2.75,0.03919374037,-0.1227882632
2.76,0.03437541268,-0.1243965307
2.77,0.02948675023,-0.1258117126
2.78,0.02453573451,-0.1270305423
2.79,0.01953050633,-0.1280500972
2.8,0.01447935021,-0.1288678064
2.81,0.009390678425,-0.1294814586
2.82,0.004273014613,-0.1298892081
2.83,-0.0008650229582,-0.1300895808
2.84,-0.00601473839,-0.1300814791
2.85,-0.01116737543,-0.1298641861
2.86,-0.01631413497,-0.1294373686
2.87,-0.02144619272,-0.1288010801
2.88,-0.02655471697,-0.1279557616
2.89,-0.03163088653,-0.1269022432
2.9,-0.03666590864,-0.1256417432
2.91,-0.0416510369,-0.1241758676
2.92,-0.04657758916,-0.1225066081
2.93,-0.05143696537,-0.120636339
2.94,-0.05622066518,-0.1185678142
2.95,-0.06092030555,-0.1163041625
2.96,-0.06552763792,-0.1138488821
2.97,-0.07003456535,-0.1112058345
2.98,-0.07443315918,-0.108379238
2.99,-0.07871567544,-0.1053736595
3,-0.08287457087,-0.102194006
3.01,-0.08690251851,-0.09884551533
3.02,-0.09079242281,-0.09533374637
3.03,-0.09453743426,-0.0916645679
3.04,-0.09813096355,-0.08784414732
3.05,-0.101566695,-0.0838789385
3.06,-0.1048385998,-0.07977566902
3.07,-0.1079409477,-0.07554132675
3.08,-0.1108683194,-0.07118314597
3.09,-0.1136156171,-0.06670859281
3.1,-0.1161780748,-0.06212535034
3.11,-0.1185512681,-0.05744130304
3.12,-0.1207311224,-0.05266452092
3.13,-0.1227139215,-0.04780324327
3.14,-0.1244963146,-0.04286586202
3.15,-0.1260753225,-0.03786090476
3.16,-0.1274483433,-0.03279701755
3.17,-0.1286131574,-0.02768294747
3.18,-0.129567931,-0.022527525
3.19,-0.1303112191,-0.0173396462
3.2,-0.1308419682,-0.01212825489
3.21,-0.1311595172,-0.006902324674
3.22,-0.1312635979,-0.00167084101
3.23,-0.1311543348,0.003557216733
3.24,-0.1308322436,0.008772893117
3.25,-0.1302982294,0.01396727439
3.26,-0.1295535838,0.01913150605
3.27,-0.1285999806,0.02425681028
3.28,-0.1274394719,0.02933450309
3.29,-0.1260744825,0.03435601119
3.3,-0.1245078037,0.03931288859
3.31,-0.1227425863,0.04419683281
3.32,-0.1207823331,0.0489997007
3.33,-0.1186308907,0.05371352391
3.34,-0.1162924399,0.05833052378
3.35,-0.1137714866,0.06284312586
3.36,-0.1110728507,0.06724397384
3.37,-0.1082016558,0.07152594295
3.38,-0.1051633171,0.0756821528
3.39,-0.1019635295,0.07970597955
3.4,-0.0986082548,0.08359106759
3.41,-0.09510370861,0.08733134037
3.42,-0.09145634672,0.09092101078
3.43,-0.08767285106,0.09435459062
3.44,-0.08376011524,0.09762689957
3.45,-0.07972522988,0.1007330732
3.46,-0.07557546745,0.1036685706
3.47,-0.07131826694,0.1064291809
3.48,-0.06696121835,0.1090110289
3.49,-0.06251204684,0.1114105809
3.5,-0.05797859684,0.1136246483
3.51,-0.05336881604,0.1156503919
3.52,-0.04869073924,0.1174853241
3.53,-0.0439524722,0.1191273114
3.54,-0.03916217549,0.1205745756
3.55,-0.0343280484,0.121825694
3.56,-0.02945831285,0.1228795997
3.57,-0.02456119751,0.1237355801
3.58,-0.019644922,0.1243932756
3.59,-0.01471768129,0.1248526768
3.6,-0.009787630305,0.1251141217
3.61,-0.004862868853,0.1251782915
3.62,4.857327626E-05,0.1250462061
3.63,0.004938750812,0.1247192194
3.64,0.009799817193,0.1241990128
3.65,0.01462403838,0.123487589
3.66,0.01940380624,0.1225872651
3.67,0.02413165158,0.121500665
3.68,0.02880025661,0.1202307109
3.69,0.03340246705,0.1187806149
3.7,0.03793130365,0.1171538699
3.71,0.04237997326,0.1153542396
3.72,0.0467418793,0.113385749
3.73,0.05101063175,0.1112526734
3.74,0.05518005651,0.1089595279
3.75,0.05924420421,0.1065110559
3.76,0.06319735845,0.1039122181
3.77,0.06703404336,0.1011681803
3.78,0.07074903068,0.09828430161
3.79,0.07433734608,0.09526612212
3.8,0.07779427495,0.0921193506
3.81,0.08111536758,0.08884985187
3.82,0.08429644363,0.08546363417
3.83,0.08733359607,0.08196683641
3.84,0.09022319443,0.07836571535
3.85,0.09296188748,0.07466663277
3.86,0.09554660526,0.07087604267
3.87,0.09797456054,0.06700047849
3.88,0.1002432496,0.06304654038
3.89,0.1023504527,0.05902088259
3.9,0.1042942334,0.05493020099
3.91,0.1060729381,0.05078122072
3.92,0.1076851942,0.04658068403
3.93,0.1091299085,0.04233533832
3.94,0.1104062645,0.03805192438
3.95,0.1115137194,0.03373716493
3.96,0.1124520009,0.02939775341
3.97,0.113221103,0.025040343
3.98,0.1138212818,0.02067153606
3.99,0.1142530504,0.0162978738
4,0.1145171742,0.01192582634
4.01,0.1146146652,0.007561783122
4.02,0.1145467756,0.003212043696
4.03,0.1143149922,-0.001117191125
4.04,0.1139210295,-0.005419827693
4.05,0.1133668229,-0.009689887568
4.06,0.1126545216,-0.01392151513
4.07,0.1117864814,-0.01810898479
4.08,0.1107652568,-0.02224670774
4.09,0.1095935938,-0.02632923833
4.1,0.1082744214,-0.03035127997
4.11,0.106810844,-0.03430769062
4.12,0.1052061331,-0.03819348779
4.13,0.1034637189,-0.04200385323
4.14,0.1015871823,-0.04573413708
4.15,0.0995802464,-0.0493798616
4.16,0.09744676785,-0.0529367246
4.17,0.09519072885,-0.05640060226
4.18,0.09281622859,-0.05976755173
4.19,0.09032747491,-0.06303381325
4.2,0.08772877602,-0.06619581182
4.21,0.08502453234,-0.06925015863
4.22,0.08221922832,-0.07219365199
4.23,0.07931742449,-0.075023278
4.24,0.07632374953,-0.07773621082
4.25,0.07324289253,-0.08032981262
4.26,0.07007959544,-0.08280163325
4.27,0.06683864558,-0.08514940952
4.28,0.06352486845,-0.08737106433
4.29,0.06014312059,-0.08946470538
4.3,0.05669828279,-0.09142862375
4.31,0.05319525338,-0.09326129213
4.32,0.04963894179,-0.09496136294
4.33,0.04603426233,-0.09652766613
4.34,0.04238612815,-0.09795920686
4.35,0.03869944549,-0.09925516302
4.36,0.03497910811,-0.1004148825
4.37,0.03122999198,-0.1014378804
4.38,0.0274569502,-0.1023238362
4.39,0.02366480811,-0.1030725904
4.4,0.01985835873,-0.1036841418
4.41,0.01604235834,-0.1041586439
4.42,0.01222152228,-0.1044964019
4.43,0.008400521077,-0.1046978691
4.44,0.00458397669,-0.1047636436
4.45,0.0007764590003,-0.1046944652
4.46,-0.00301751748,-0.1044912114
4.47,-0.006793496709,-0.1041548945
4.48,-0.01054708402,-0.103686658
4.49,-0.01427394885,-0.1030877731
4.5,-0.01796982727,-0.1023596354
4.51,-0.02163052437,-0.101503762
4.52,-0.02525191649,-0.1005217874
4.53,-0.02882995328,-0.099415461
4.54,-0.03236065962,-0.09818664372
4.55,-0.03584013745,-0.09683730482
4.56,-0.03926456744,-0.09536951897
4.57,-0.0426302106,-0.0937854633
4.58,-0.04593340974,-0.09208741454
4.59,-0.04917059086,-0.09027774621
4.6,-0.05233826452,-0.08835892594
4.61,-0.05543302708,-0.08633351282
4.62,-0.05845156192,-0.08420415489
4.63,-0.06139064059,-0.08197358667
4.64,-0.06424712396,-0.07964462674
4.65,-0.06701796334,-0.07722017546
4.66,-0.06970020158,-0.07470321274
4.67,-0.07229097414,-0.07209679581
4.68,-0.0747875102,-0.06940405716
4.69,-0.07718713379,-0.06662820247
4.7,-0.07948726487,-0.06377250857
4.71,-0.08168542052,-0.06084032151
4.72,-0.08377921611,-0.05783505462
4.73,-0.08576636652,-0.0547601866
4.74,-0.08764468738,-0.05161925963
4.75,-0.08941209642,-0.04841587752
4.76,-0.09106661476,-0.04515370384
4.77,-0.09260636838,-0.04183646002
4.78,-0.09402958952,-0.03846792346
4.79,-0.09533461824,-0.03505192567
4.8,-0.09651990392,-0.03159235023
4.81,-0.09758400696,-0.02809313087
4.82,-0.09852560036,-0.02455824937
4.83,-0.0993434715,-0.0209917335
4.84,-0.1000365239,-0.01739765477
4.85,-0.100603779,-0.01378012623
4.86,-0.1010443779,-0.01014330008
4.87,-0.1013575835,-0.006491365211
4.88,-0.1015427823,-0.002828544663
4.89,-0.101599486,0.0008409070585
4.9,-0.101527334,0.004512706782
4.91,-0.1013260949,0.008182545593
4.92,-0.1009956685,0.0118460919
4.93,-0.100536088,0.01549899463
4.94,-0.0999475215,0.01913688658
4.95,-0.09923027418,0.02275538793
4.96,-0.09838478993,0.02635010986
4.97,-0.0974116532,0.02991665841
4.98,-0.09631159064,0.0334506384
4.99,-0.09508547275,0.0369476576
5,-0.09373431538,0.040403331
5.01,-0.09225928116,0.04381328527
5.02,-0.09066168078,0.04717316336
5.03,-0.0889429742,0.05047862931
5.04,-0.08710477163,0.05372537312
5.05,-0.08514883442,0.05690911589
5.06,-0.08307707581,0.06002561501
5.07,-0.08089156138,0.06307066951
5.08,-0.07859450945,0.06604012563
5.09,-0.07618829117,0.06892988239
5.1,-0.07367543047,0.07173589736
5.11,-0.0710586037,0.07445419253
5.12,-0.06834063914,0.07708086029
5.13,-0.06552451614,0.07961206945
5.14,-0.06261336411,0.08204407141
5.15,-0.05961046117,0.08437320632
5.16,-0.05651923254,0.08659590941
5.17,-0.05334324869,0.08870871721
5.18,-0.05008622312,0.09070827394
5.19,-0.0467520099,0.0925913378
5.2,-0.04334460088,0.09435478735
5.21,-0.03986812261,0.09599562779
5.22,-0.03632683293,0.09751099727
5.23,-0.03272511723,0.09889817309
5.24,-0.02906748441,0.1001545779
5.25,-0.02535856255,0.1012777857
5.26,-0.02160309417,0.1022655281
5.27,-0.0178059313,0.1031156995
5.28,-0.01397203006,0.1038263636
5.29,-0.01010644512,0.1043957584
5.3,-0.006214323688,0.104822302
5.31,-0.002300899265,0.1051045972
5.32,0.001628514897,0.1052414371
5.33,0.005568532656,0.1052318093
5.34,0.009513702117,0.1050749008
5.35,0.01345851305,0.1047701022
5.36,0.01739740454,0.1043170111
5.37,0.02132477299,0.1037154366
5.38,0.02523498022,0.102965402
5.39,0.0291223619,0.1020671479
5.4,0.03298123623,0.1010211351
5.41,0.03680591266,0.09982804675
5.42,0.040590701,0.09848879028
5.43,0.04432992053,0.09700449892
5.44,0.04801790934,0.09537653291
5.45,0.05164903382,0.09360648024
5.46,0.0552176982,0.0916961569
5.47,0.05871835422,0.08964760689
5.48,0.06214551088,0.08746310158
5.49,0.06549374421,0.08514513879
5.5,0.06875770712,0.08269644135
5.51,0.07193213922,0.08011995523
5.52,0.07501187659,0.07741884717
5.53,0.07799186165,0.07459650193
5.54,0.08086715279,0.07165651901
5.55,0.08363293408,0.06860270895
5.56,0.08628452475,0.06543908912
5.57,0.08881738863,0.06216987915
5.58,0.09122714339,0.05879949578
5.59,0.09350956963,0.05533254735
5.6,0.09566061973,0.05177382783
5.61,0.09767642656,0.0481283104
5.62,0.09955331185,0.04440114059
5.63,0.1012877944,0.04059762904
5.64,0.1028765978,0.03672324382
5.65,0.1043166583,0.03278360235
5.66,0.1056051316,0.028784463
5.67,0.1067394001,0.02473171622
5.68,0.1077170792,0.02063137542
5.69,0.1085360236,0.01648956742
5.7,0.1091943328,0.01231252266
5.71,0.1096903564,0.008106565075
5.72,0.1100226994,0.003878101664
5.73,0.1101902259,-0.0003663881451
5.74,0.1101920635,-0.004620363419
5.75,0.1100276066,-0.008877232836
5.76,0.1096965196,-0.01313036601
5.77,0.1091987387,-0.01737310497
5.78,0.1085344748,-0.02159877582
5.79,0.107704214,-0.02580070048
5.8,0.1067087189,-0.02997220856
5.81,0.105549029,-0.03410664929
5.82,0.1042264605,-0.03819740352
5.83,0.1027426052,-0.04223789568
5.84,0.1010993297,-0.04622160584
5.85,0.09929877323,-0.05014208164
5.86,0.09734334529,-0.0539929502
5.87,0.0952357229,-0.05776792997
5.88,0.09297884693,-0.06146084242
5.89,0.09057591817,-0.06506562366
5.9,0.08803039273,-0.06857633582
5.91,0.08534597701,-0.07198717829
5.92,0.08252662206,-0.07529249875
5.93,0.0795765175,-0.07848680392
5.94,0.0765000849,-0.08156477009
5.95,0.07330197068,-0.08452125336
5.96,0.06998703859,-0.08735129951
5.97,0.06656036166,-0.09005015362
5.98,0.06302721373,-0.09261326928
5.99,0.05939306059,-0.09503631742
6,0.0556635507,-0.0973151948
