"Freq [GHz]","re(S(Tx_p1,Tx_p1)) []","im(S(Tx_p1,Tx_p1)) []"
1,0.001345216825,-0.2070434525
1.01,-0.005251780901,-0.2064698574
1.02,-0.01183722215,-0.205681529
1.03,-0.01840222733,-0.2046780168
1.04,-0.02493795181,-0.203459342
1.05,-0.03143560891,-0.2020259858
1.06,-0.03788649207,-0.2003788778
1.07,-0.04428199582,-0.1985193828
1.08,-0.05061363591,-0.1964492881
1.09,-0.05687306824,-0.1941707888
1.1,-0.06305210681,-0.1916864741
1.11,-0.06914274062,-0.1889993113
1.12,-0.07513714944,-0.1861126311
1.13,-0.08102771858,-0.183030111
1.14,-0.08680705251,-0.1797557596
1.15,-0.09246798743,-0.1762938997
1.16,-0.09800360278,-0.1726491512
1.17,-0.1034072317,-0.1688264148
1.18,-0.1086724703,-0.1648308541
1.19,-0.1137931861,-0.1606678787
1.2,-0.1187635252,-0.1563431268
1.21,-0.1235779186,-0.151862448
1.22,-0.1282310875,-0.1472318861
1.23,-0.1327180475,-0.1424576619
1.24,-0.1370341118,-0.1375461564
1.25,-0.1411748939,-0.1325038939
1.26,-0.1451363088,-0.1273375258
1.27,-0.1489145739,-0.1220538143
1.28,-0.1525062085,-0.1166596165
1.29,-0.1559080327,-0.1111618694
1.3,-0.1591171662,-0.1055675742
1.31,-0.162131025,-0.09988378219
1.32,-0.1649473187,-0.09411758071
1.33,-0.1675640465,-0.08827607929
1.34,-0.1699794927,-0.0823663968
1.35,-0.1721922216,-0.0763956489
1.36,-0.1742010721,-0.07037093615
1.37,-0.1760051516,-0.06429933272
1.38,-0.1776038295,-0.0581878757
1.39,-0.1789967305,-0.05204355498
1.4,-0.180183727,-0.04587330392
1.41,-0.1811649323,-0.03968399044
1.42,-0.1819406922,-0.03348240898
1.43,-0.1825115774,-0.02727527292
1.44,-0.1828783756,-0.02106920779
1.45,-0.1830420827,-0.01487074499
1.46,-0.183003895,-0.00868631625
1.47,-0.182765201,-0.00252224863
1.48,-0.1823275726,0.003615239804
1.49,-0.1816927571,0.009720043763
1.5,-0.1808626691,0.01578617391
1.51,-0.1798393825,0.02180775951
1.52,-0.1786251224,0.02777905046
1.53,-0.1772222577,0.03369441896
1.54,-0.1756332931,0.0395483605
1.55,-0.1738608625,0.0453354946
1.56,-0.1719077219,0.0510505649
1.57,-0.1697767423,0.05668843904
1.58,-0.167470904,0.06224410805
1.59,-0.1649932902,0.06771268545
1.6,-0.1623470817,0.07308940602
1.61,-0.1595355513,0.07836962435
1.62,-0.1565620591,0.08354881306
1.63,-0.1534300483,0.08862256096
1.64,-0.1501430407,0.09358657088
1.65,-0.1467046334,0.09843665753
1.66,-0.1431184952,0.1031687451
1.67,-0.1393883641,0.1077788651
1.68,-0.1355180449,0.1122631537
1.69,-0.1315114067,0.1166178494
1.7,-0.1273723819,0.120839291
1.71,-0.1231049643,0.1249239151
1.72,-0.1187132089,0.1288682538
1.73,-0.1142012307,0.1326689331
1.74,-0.109573205,0.1363226707
1.75,-0.1048333672,0.1398262748
1.76,-0.09998601349,0.1431766422
1.77,-0.09503550121,0.1463707575
1.78,-0.08998625012,0.1494056921
1.79,-0.08484274336,0.1522786036
1.8,-0.07960952889,0.1549867357
1.81,-0.07429122096,0.157527418
1.82,-0.06889250179,0.1598980666
1.83,-0.06341812336,0.1620961849
1.84,-0.05787290919,0.1641193647
1.85,-0.05226175627,0.1659652874
1.86,-0.04658963691,0.1676317266
1.87,-0.04086160059,0.1691165497
1.88,-0.0350827758,0.1704177211
1.89,-0.02925837166,0.1715333049
1.9,-0.02339367956,0.1724614686
1.91,-0.01749407453,0.1732004866
1.92,-0.01156501647,0.1737487449
1.93,-0.005612051083,0.1741047454
1.94,0.000359189332,0.1742671104
1.95,0.006342985512,0.1742345885
1.96,0.0123335311,0.1740060598
1.97,0.01832493291,0.1735805416
1.98,0.02431121152,0.1729571947
1.99,0.03028630233,0.1721353296
2,0.03624405702,0.171114413
2.01,0.04217824547,0.1698940749
2.02,0.0480825581,0.1684741146
2.03,0.05395060882,0.1668545088
2.04,0.05977593836,0.1650354178
2.05,0.06555201821,0.1630171931
2.06,0.07127225505,0.1608003847
2.07,0.07692999577,0.1583857475
2.08,0.08251853301,0.1557742494
2.09,0.08803111127,0.1529670776
2.1,0.09346093356,0.1499656457
2.11,0.09880116868,0.1467716004
2.12,0.104044959,0.1433868279
2.13,0.1091854288,0.1398134605
2.14,0.1142156931,0.136053882
2.15,0.1191288674,0.1321107337
2.16,0.1239180772,0.1279869197
2.17,0.1285764688,0.1236856114
2.18,0.1330972201,0.1192102523
2.19,0.1374735522,0.1145645616
2.2,0.1416987411,0.1097525379
2.21,0.1457661302,0.104778462
2.22,0.1496691427,0.09964689868
2.23,0.1534012952,0.09436269921
2.24,0.1569562105,0.08893100168
2.25,0.1603276317,0.08335723161
2.26,0.163509436,0.07764710153
2.27,0.1664956488,0.0718066099
2.28,0.1692804585,0.06584203924
2.29,0.1718582305,0.05975995353
2.3,0.1742235219,0.05356719483
2.31,0.1763710967,0.04727087907
2.32,0.1782959396,0.04087839103
2.33,0.1799932715,0.03439737853
2.34,0.1814585634,0.02783574576
2.35,0.1826875512,0.02120164578
2.36,0.1836762498,0.0145034722
2.37,0.1844209672,0.007749850018
2.38,0.1849183181,0.0009496256246
2.39,0.1851652375,-0.005888144001
2.4,0.1851589933,-0.01275420292
2.41,0.1848971996,-0.01963910864
2.42,0.1843778282,-0.02653324533
2.43,0.1835992203,-0.03342683778
2.44,0.1825600978,-0.0403099661
2.45,0.1812595736,-0.0471725811
2.46,0.1796971611,-0.05400452047
2.47,0.1778727835,-0.06079552547
2.48,0.1757867822,-0.06753525832
2.49,0.173439924,-0.07421332021
2.5,0.1708334078,-0.08081926977
2.51,0.1679688709,-0.08734264214
2.52,0.1648483933,-0.09377296841
2.53,0.1614745022,-0.1000997956
2.54,0.1578501748,-0.1063127069
2.55,0.1539788403,-0.1124013422
2.56,0.1498643813,-0.1183554192
2.57,0.1455111333,-0.1241647544
2.58,0.1409238845,-0.1298192843
2.59,0.1361078727,-0.1353090867
2.6,0.131068783,-0.1406244025
2.61,0.1258127432,-0.145755657
2.62,0.1203463184,-0.1506934811
2.63,0.1146765048,-0.1554287326
2.64,0.1088107221,-0.1599525178
2.65,0.1027568046,-0.1642562114
2.66,0.09652299222,-0.1683314783
2.67,0.09011791894,-0.1721702926
2.68,0.08355060146,-0.1757649584
2.69,0.07683042618,-0.1791081285
2.7,0.0699671353,-0.1821928235
2.71,0.06297081194,-0.1850124501
2.72,0.05585186424,-0.1875608185
2.73,0.04862100857,-0.1898321594
2.74,0.04128925173,-0.1918211403
2.75,0.03386787242,-0.1935228806
2.76,0.02636840169,-0.1949329665
2.77,0.01880260272,-0.1960474643
2.78,0.01118244979,-0.1968629333
2.79,0.003520106563,-0.1973764375
2.8,-0.004172096351,-0.1975855564
2.81,-0.01188168437,-0.1974883944
2.82,-0.01959606251,-0.1970835898
2.83,-0.02730253948,-0.1963703219
2.84,-0.03498835219,-0.1953483172
2.85,-0.04264069067,-0.1940178551
2.86,-0.0502467233,-0.1923797711
2.87,-0.05779362236,-0.1904354602
2.88,-0.06526858967,-0.1881868777
2.89,-0.07265888254,-0.1856365399
2.9,-0.07995183966,-0.1827875227
2.91,-0.08713490706,-0.1796434597
2.92,-0.094195664,-0.1762085381
2.93,-0.1011218488,-0.1724874943
2.94,-0.1079013844,-0.1684856075
2.95,-0.1145224038,-0.1642086922
2.96,-0.1209732748,-0.1596630901
2.97,-0.1272426253,-0.1548556595
2.98,-0.1333193667,-0.1497937649
2.99,-0.1391927184,-0.1444852643
3,-0.1448522304,-0.1389384957
3.01,-0.1502878063,-0.133162263
3.02,-0.1554897246,-0.1271658196
3.03,-0.1604486602,-0.1209588523
3.04,-0.1651557049,-0.114551463
3.05,-0.1696023862,-0.1079541501
3.06,-0.1737806865,-0.1011777886
3.07,-0.1776830604,-0.09423360964
3.08,-0.1813024514,-0.08713317861
3.09,-0.1846323077,-0.07988837312
3.1,-0.187666596,-0.07251135968
3.11,-0.1903998158,-0.06501456996
3.12,-0.1928270109,-0.05741067632
3.13,-0.194943781,-0.04971256671
3.14,-0.196746291,-0.04193331913
3.15,-0.19823128,-0.03408617558
3.16,-0.1993960683,-0.02618451561
3.17,-0.2002385638,-0.01824182953
3.18,-0.2007572665,-0.01027169136
3.19,-0.2009512717,-0.002287731556
3.2,-0.2008202728,0.005696390357
3.21,-0.2003645613,0.01366701329
3.22,-0.1995850268,0.02161050203
3.23,-0.198483155,0.02951327471
3.24,-0.1970610243,0.03736183002
3.25,-0.1953213016,0.04514277435
3.26,-0.1932672365,0.05284284861
3.27,-0.1909026538,0.0604489547
3.28,-0.1882319457,0.06794818166
3.29,-0.185260062,0.0753278313
3.3,-0.1819924993,0.08257544334
3.31,-0.178435289,0.08967882002
3.32,-0.1745949841,0.09662604998
3.33,-0.1704786452,0.1034055315
3.34,-0.1660938252,0.1100059952
3.35,-0.1614485523,0.1164165253
3.36,-0.1565513135,0.1226265811
3.37,-0.1514110358,0.1286260162
3.38,-0.1460370669,0.1344050984
3.39,-0.1404391555,0.1399545269
3.4,-0.1346274301,0.1452654499
3.41,-0.1286123775,0.1503294803
3.42,-0.1224048205,0.1551387109
3.43,-0.1160158951,0.1596857276
3.44,-0.1094570266,0.1639636226
3.45,-0.1027399059,0.1679660053
3.46,-0.09587646496,0.1716870131
3.47,-0.0888788518,0.1751213201
3.48,-0.0817594054,0.1782641448
3.49,-0.07453063019,0.1811112569
3.5,-0.06720517038,0.1836589827
3.51,-0.05979578415,0.1859042089
3.52,-0.05231531773,0.1878443855
3.53,-0.04477667954,0.1894775275
3.54,-0.03719281428,0.1908022152
3.55,-0.02957667724,0.1918175932
3.56,-0.02194120868,0.1925233684
3.57,-0.01429930852,0.1929198065
3.58,-0.006663811308,0.1930077277
3.59,0.000952538533,0.192788501
3.6,0.008537110943,0.192264037
3.61,0.01607741407,0.1914367806
3.62,0.0235611176,0.1903097012
3.63,0.03097607547,0.1888862835
3.64,0.03831034804,0.1871705155
3.65,0.04555222353,0.1851668772
3.66,0.05269023881,0.1828803269
3.67,0.0597131994,0.1803162879
3.68,0.0666101987,0.1774806332
3.69,0.07337063637,0.1743796701
3.7,0.07998423589,0.171020124
3.71,0.08644106118,0.1674091211
3.72,0.09273153232,0.1635541707
3.73,0.09884644033,0.159463147
3.74,0.1047769609,0.1551442698
3.75,0.1105146673,0.1506060857
3.76,0.1160515421,0.1458574473
3.77,0.1213799878,0.140907494
3.78,0.1264928367,0.1357656305
3.79,0.1313833597,0.1304415061
3.8,0.1360452736,0.1249449938
3.81,0.1404727477,0.1192861687
3.82,0.1446604096,0.1134752865
3.83,0.1486033492,0.1075227621
3.84,0.1522971224,0.1014391478
3.85,0.1557377536,0.09523511219
3.86,0.1589217364,0.08892141809
3.87,0.1618460345,0.08250890172
3.88,0.1645080808,0.07600845132
3.89,0.1669057757,0.06943098634
3.9,0.1690374843,0.06278743674
3.91,0.1709020332,0.05608872277
3.92,0.1724987057,0.04934573497
3.93,0.1738272366,0.04256931468
3.94,0.1748878059,0.03577023495
3.95,0.1756810317,0.02895918199
3.96,0.1762079626,0.02214673707
3.97,0.1764700689,0.01534335907
3.98,0.1764692332,0.008559367529
3.99,0.1762077408,0.001804926363
4,0.1756882687,-0.004909971755
4.01,0.1749138747,-0.01157552039
4.02,0.1738879853,-0.0181821136
4.03,0.1726143835,-0.02472035952
4.04,0.1710971964,-0.03118109321
4.05,0.1693408814,-0.03755538868
4.06,0.167350213,-0.0438345703
4.07,0.1651302687,-0.0500102233
4.08,0.162686415,-0.05607420358
4.09,0.1600242925,-0.06201864675
4.1,0.1571498013,-0.06783597628
4.11,0.1540690866,-0.07351891099
4.12,0.1507885229,-0.07906047174
4.13,0.1473146994,-0.08445398721
4.14,0.1436544047,-0.08969309914
4.15,0.1398146116,-0.09477176657
4.16,0.135802462,-0.09968426951
4.17,0.1316252518,-0.1044252118
4.18,0.1272904159,-0.1089895232
4.19,0.1228055133,-0.1133724609
4.2,0.1181782126,-0.1175696102
4.21,0.1134162776,-0.1215768847
4.22,0.1085275527,-0.1253905255
4.23,0.1035199493,-0.1290071002
4.24,0.09840143197,-0.1324235012
4.25,0.09318000509,-0.1356369432
4.26,0.08786369996,-0.1386449601
4.27,0.08246056205,-0.141445402
4.28,0.07697863875,-0.1440364311
4.29,0.07142596756,-0.1464165169
4.3,0.06581056458,-0.1485844323
4.31,0.06014041357,-0.1505392475
4.32,0.05442345532,-0.1522803248
4.33,0.04866757759,-0.1538073129
4.34,0.04288060545,-0.15512014
4.35,0.03707029209,-0.1562190082
4.36,0.03124431013,-0.1571043858
4.37,0.02541024341,-0.1577770011
4.38,0.0195755792,-0.1582378348
4.39,0.01374770099,-0.1584881126
4.4,0.007933881632,-0.1585292982
4.41,0.002141277069,-0.1583630854
4.42,-0.003623079564,-0.1579913906
4.43,-0.009352283337,-0.1574163451
4.44,-0.01503956248,-0.1566402875
4.45,-0.02067828294,-0.1556657558
4.46,-0.02626195242,-0.1544954801
4.47,-0.03178422415,-0.1531323749
4.48,-0.03723890013,-0.1515795313
4.49,-0.04261993408,-0.1498402099
4.5,-0.04792143399,-0.1479178336
4.51,-0.0531376643,-0.1458159798
4.52,-0.05826304784,-0.1435383743
4.53,-0.06329216738,-0.1410888836
4.54,-0.06821976688,-0.1384715087
4.55,-0.07304075261,-0.1356903784
4.56,-0.07775019382,-0.132749743
4.57,-0.08234332334,-0.1296539683
4.58,-0.08681553796,-0.1264075296
4.59,-0.09116239849,-0.1230150061
4.6,-0.09537962986,-0.1194810753
4.61,-0.09946312092,-0.115810508
4.62,-0.1034089242,-0.112008163
4.63,-0.1072132555,-0.1080789826
4.64,-0.1108724935,-0.1040279876
4.65,-0.1143831793,-0.09986027339
4.66,-0.1177420157,-0.09558100563
4.67,-0.1209458667,-0.09119541616
4.68,-0.1239917571,-0.08670879937
4.69,-0.1268768718,-0.0821265086
4.7,-0.1295985551,-0.07745395274
4.71,-0.1321543104,-0.07269659299
4.72,-0.1345417998,-0.06785993977
4.73,-0.1367588434,-0.0629495498
4.74,-0.1388034196,-0.05797102325
4.75,-0.1406736642,-0.05293000107
4.76,-0.1423678706,-0.04783216232
4.77,-0.1438844901,-0.0426832217
4.78,-0.1452221314,-0.03748892702
4.79,-0.1463795612,-0.03225505682
4.8,-0.1473557044,-0.02698741796
4.81,-0.1481496449,-0.02169184323
4.82,-0.1487606255,-0.01637418897
4.83,-0.1491880494,-0.01104033265
4.84,-0.1494314803,-0.005696170475
4.85,-0.1494906438,-0.0003476148002
4.86,-0.1493654286,0.004999408381
4.87,-0.1490558869,0.01033896212
4.88,-0.1485622366,0.01566510129
4.89,-0.1478848621,0.02097187545
4.9,-0.1470243157,0.02625333189
4.91,-0.1459813194,0.03150351876
4.92,-0.1447567663,0.03671648843
4.93,-0.1433517222,0.041886301
4.94,-0.1417674273,0.04700702792
4.95,-0.1400052977,0.05207275594
4.96,-0.1380669273,0.05707759113
4.97,-0.1359540891,0.06201566321
4.98,-0.1336687373,0.06688113001
4.99,-0.1312130083,0.07166818224
5,-0.1285892225,0.07637104842
5.01,-0.1257998857,0.08098400005
5.02,-0.12284769,0.08550135705
5.03,-0.1197355157,0.08991749337
5.04,-0.1164664314,0.09422684288
5.05,-0.1130436956,0.09842390548
5.06,-0.1094707568,0.1025032534
5.07,-0.1057512542,0.1064595376
5.08,-0.1018890179,0.1102874949
5.09,-0.09788806882,0.1139819544
5.1,-0.09375261837,0.1175378452
5.11,-0.08948706786,0.1209502029
5.12,-0.08509600765,0.1242141781
5.13,-0.0805842159,0.1273250431
5.14,-0.07595665699,0.1302782003
5.15,-0.07121847971,0.1330691897
5.16,-0.06637501487,0.1356936972
5.17,-0.06143177272,0.1381475623
5.18,-0.05639443992,0.1404267866
5.19,-0.05126887599,0.1425275417
5.2,-0.04606110955,0.1444461776
5.21,-0.04077733397,0.1461792309
5.22,-0.03542390262,0.1477234327
5.23,-0.03000732378,0.1490757169
5.24,-0.02453425495,0.1502332284
5.25,-0.01901149684,0.1511933307
5.26,-0.01344598682,0.1519536141
5.27,-0.007844792006,0.1525119029
5.28,-0.002215101826,0.1528662634
5.29,0.003435779842,0.1530150105
5.3,0.009100442953,0.1529567156
5.31,0.01477138004,0.1526902125
5.32,0.02044099535,0.1522146046
5.33,0.02610161448,0.1515292705
5.34,0.0317454943,0.1506338702
5.35,0.03736483338,0.1495283504
5.36,0.04295178275,0.1482129496
5.37,0.04849845701,0.1466882029
5.38,0.05399694584,0.1449549458
5.39,0.0594393258,0.1430143183
5.4,0.0648176724,0.1408677681
5.41,0.07012407259,0.1385170532
5.42,0.07535063736,0.1359642442
5.43,0.08048951467,0.1332117259
5.44,0.08553290257,0.1302621987
5.45,0.09047306252,0.1271186785
5.46,0.09530233283,0.1237844971
5.47,0.1000131423,0.1202633015
5.48,0.1045980238,0.1165590521
5.49,0.1090496282,0.1126760214
5.5,0.1133607381,0.1086187909
5.51,0.1175242816,0.1043922479
5.52,0.1215333461,0.1000015818
5.53,0.1253811919,0.09545227913
5.54,0.1290612661,0.0907501188
5.55,0.1325672158,0.08590116576
5.56,0.1358929016,0.08091176459
5.57,0.1390324107,0.07578853223
5.58,0.1419800694,0.07053835008
5.59,0.1447304566,0.06516835546
5.6,0.147278415,0.05968593241
5.61,0.1496190642,0.05409870189
5.62,0.1517478113,0.04841451135
5.63,0.1536603627,0.04264142367
5.64,0.1553527348,0.0367877056
5.65,0.1568212641,0.03086181553
5.66,0.1580626171,0.0248723908
5.67,0.1590737997,0.01882823441
5.68,0.1598521658,0.01273830134
5.69,0.1603954251,0.006611684254
5.7,0.1607016514,0.0004575988611
5.71,0.1607692886,-0.005714631176
5.72,0.1605971577,-0.01189558974
5.73,0.1601844616,-0.01807578408
5.74,0.1595307906,-0.02424566103
5.75,0.1586361261,-0.03039562341
5.76,0.1575008441,-0.03651604682
5.77,0.1561257178,-0.04259729656
5.78,0.1545119194,-0.04862974478
5.79,0.1526610212,-0.05460378774
5.8,0.150574996,-0.06050986329
5.81,0.1482562165,-0.06633846829
5.82,0.1457074535,-0.07208017615
5.83,0.1429318748,-0.07772565436
5.84,0.1399330411,-0.08326568192
5.85,0.136714903,-0.08869116678
5.86,0.1332817962,-0.09399316311
5.87,0.1296384359,-0.09916288835
5.88,0.125789911,-0.1041917402
5.89,0.1217416767,-0.1090713131
5.9,0.1174995471,-0.1137934149
5.91,0.1130696866,-0.1183500828
5.92,0.1084586004,-0.1227335988
5.93,0.1036731244,-0.1269365055
5.94,0.09872041508,-0.1309516205
5.95,0.09360793728,-0.1347720512
5.96,0.08834345251,-0.1383912085
5.97,0.08293500601,-0.14180282
5.98,0.07739091335,-0.1450009435
5.99,0.07171974641,-0.1479799782
6,0.06593031874,-0.1507346773
