"Freq [GHz]","re(S(Tx_p1,Tx_p1)) []","im(S(Tx_p1,Tx_p1)) []"
1,-0.01879686505,-0.04113906439
1.01,-0.02033604077,-0.04029285601
1.02,-0.02184177043,-0.03938586269
1.03,-0.02331130098,-0.03841944534
1.04,-0.02474195593,-0.03739510123
1.05,-0.02613114145,-0.03631445843
1.06,-0.02747635207,-0.03517927001
1.07,-0.02877517598,-0.03399140822
1.08,-0.03002530004,-0.03275285837
1.09,-0.03122451435,-0.0314657127
1.1,-0.03237071648,-0.03013216404
1.11,-0.03346191535,-0.02875449948
1.12,-0.0344962347,-0.02733509385
1.13,-0.03547191629,-0.02587640325
1.14,-0.03638732262,-0.02438095848
1.15,-0.0372409394,-0.02285135846
1.16,-0.03803137765,-0.02129026363
1.17,-0.03875737541,-0.01970038941
1.18,-0.03941779919,-0.0180844996
1.19,-0.04001164506,-0.0164453999
1.2,-0.04053803938,-0.01478593144
1.21,-0.04099623935,-0.01310896437
1.22,-0.04138563311,-0.01141739159
1.23,-0.04170573965,-0.009714122438
1.24,-0.04195620841,-0.008002076667
1.25,-0.04213681859,-0.00628417836
1.26,-0.04224747827,-0.004563350067
1.27,-0.04228822322,-0.002842507042
1.28,-0.04225921546,-0.001124551621
1.29,-0.04216074168,0.0005876322578
1.3,-0.04199321137,0.002291184371
1.31,-0.04175715479,0.003983273379
1.32,-0.0414532207,0.005661101827
1.33,-0.041082174,0.007321910977
1.34,-0.04064489309,0.008962985472
1.35,-0.04014236717,0.01058165782
1.36,-0.03957569335,0.01217531271
1.37,-0.03894607361,0.01374139112
1.38,-0.03825481168,0.01527739432
1.39,-0.03750330977,0.01678088759
1.4,-0.03669306517,0.0182495038
1.41,-0.03582566688,0.01968094689
1.42,-0.03490279194,0.02107299502
1.43,-0.03392620193,0.02242350366
1.44,-0.03289773918,0.02373040845
1.45,-0.03181932307,0.02499172789
1.46,-0.0306929462,0.02620556585
1.47,-0.02952067055,0.02737011397
1.48,-0.02830462355,0.02848365378
1.49,-0.02704699422,0.02954455874
1.5,-0.02575002914,0.03055129609
1.51,-0.02441602851,0.03150242856
1.52,-0.02304734219,0.03239661586
1.53,-0.02164636561,0.03323261611
1.54,-0.02021553586,0.03400928703
1.55,-0.01875732758,0.03472558703
1.56,-0.01727424902,0.03538057618
1.57,-0.01576883799,0.03597341694
1.58,-0.01424365785,0.03650337487
1.59,-0.01270129355,0.03696981914
1.6,-0.01114434763,0.03737222288
1.61,-0.009575436254,0.03771016347
1.62,-0.007997185262,0.03798332266
1.63,-0.006412226243,0.03819148656
1.64,-0.004823192632,0.03833454552
1.65,-0.003232715819,0.03841249387
1.66,-0.001643421291,0.03842542956
1.67,-5.79248052E-05,0.03837355366
1.68,0.001521171425,0.03825716977
1.69,0.003091282498,0.03807668327
1.7,0.004649844569,0.03783260048
1.71,0.00619431856,0.03752552772
1.72,0.007722193837,0.03715617019
1.73,0.009230991845,0.03672533084
1.74,0.01071826971,0.03623390901
1.75,0.01218162379,0.03568289902
1.76,0.0136186932,0.03507338864
1.77,0.01502716328,0.03440655745
1.78,0.01640476901,0.03368367505
1.79,0.01774929838,0.03290609918
1.8,0.01905859571,0.03207527373
1.81,0.02033056491,0.03119272661
1.82,0.02156317267,0.03026006756
1.83,0.0227544516,0.02927898573
1.84,0.02390250328,0.02825124731
1.85,0.02500550129,0.02717869287
1.86,0.02606169407,0.02606323471
1.87,0.0270694078,0.02490685405
1.88,0.02802704914,0.0237115981
1.89,0.02893310786,0.02247957702
1.9,0.02978615943,0.02121296078
1.91,0.03058486747,0.01991397592
1.92,0.03132798611,0.01858490215
1.93,0.03201436224,0.01722806888
1.94,0.0326429376,0.01584585169
1.95,0.03321275081,0.01444066859
1.96,0.03372293926,0.01301497626
1.97,0.0341727408,0.01157126621
1.98,0.03456149538,0.01011206076
1.99,0.03488864648,0.008639909032
2,0.03515374241,0.007157382794
2.01,0.03535643748,0.005667072249
2.02,0.03549649293,0.004171581751
2.03,0.03557377781,0.002673525454
2.04,0.03558826955,0.0011755229
2.05,0.03554005446,-0.000319805447
2.06,0.03542932803,-0.001809842713
2.07,0.03525639496,-0.003291980163
2.08,0.03502166912,-0.004763621789
2.09,0.03472567322,-0.006222188907
2.1,0.03436903833,-0.007665124783
2.11,0.03395250322,-0.009089899258
2.12,0.03347691339,-0.01049401337
2.13,0.03294322005,-0.01187500395
2.14,0.03235247876,-0.01323044823
2.15,0.03170584793,-0.0145579684
2.16,0.03100458709,-0.01585523608
2.17,0.03025005496,-0.01711997683
2.18,0.02944370733,-0.0183499745
2.19,0.02858709465,-0.01954307558
2.2,0.02768185956,-0.02069719343
2.21,0.02672973405,-0.02181031241
2.22,0.02573253657,-0.02288049193
2.23,0.02469216882,-0.02390587036
2.24,0.02361061244,-0.02488466883
2.25,0.02248992548,-0.02581519488
2.26,0.02133223866,-0.02669584594
2.27,0.02013975148,-0.02752511274
2.28,0.01891472818,-0.02830158244
2.29,0.0176594935,-0.02902394164
2.3,0.01637642829,-0.02969097924
2.31,0.01506796501,-0.03030158901
2.32,0.01373658306,-0.03085477203
2.33,0.01238480397,-0.03134963891
2.34,0.01101518653,-0.03178541179
2.35,0.009630321728,-0.03216142605
2.36,0.008232827687,-0.03247713191
2.37,0.00682534443,-0.03273209566
2.38,0.005410528627,-0.03292600076
2.39,0.003991048263,-0.03305864859
2.4,0.002569577252,-0.03312995906
2.41,0.001148790025,-0.03313997083
2.42,-0.0002686439115,-0.0330888414
2.43,-0.001680065427,-0.03297684685
2.44,-0.003082831211,-0.03280438134
2.45,-0.004474319206,-0.0325719564
2.46,-0.005851934005,-0.03228019987
2.47,-0.00721311221,-0.03192985464
2.48,-0.008555327728,-0.0315217771
2.49,-0.009876097,-0.03105693535
2.5,-0.01117298415,-0.03053640717
2.51,-0.01244360601,-0.02996137767
2.52,-0.01368563709,-0.02933313679
2.53,-0.01489681435,-0.02865307648
2.54,-0.01607494192,-0.0279226877
2.55,-0.01721789558,-0.02714355716
2.56,-0.01832362717,-0.02631736383
2.57,-0.01939016875,-0.0254458753
2.58,-0.02041563662,-0.02453094387
2.59,-0.02139823517,-0.02357450245
2.6,-0.02233626045,-0.02257856036
2.61,-0.02322810361,-0.02154519883
2.62,-0.02407225406,-0.02047656645
2.63,-0.02486730242,-0.01937487438
2.64,-0.02561194325,-0.01824239153
2.65,-0.02630497749,-0.01708143949
2.66,-0.02694531471,-0.01589438741
2.67,-0.02753197506,-0.01468364684
2.68,-0.02806409095,-0.01345166636
2.69,-0.02854090852,-0.01220092621
2.7,-0.02896178876,-0.01093393289
2.71,-0.02932620846,-0.009653213646
2.72,-0.02963376077,-0.008361310954
2.73,-0.02988415562,-0.007060777019
2.74,-0.03007721973,-0.005754168234
2.75,-0.03021289644,-0.004444039665
2.76,-0.03029124525,-0.003132939568
2.77,-0.03031244105,-0.001823403945
2.78,-0.03027677314,-0.0005179511501
2.79,-0.03018464397,0.0007809234249
2.8,-0.03003656757,0.002070752592
2.81,-0.02983316781,0.003349102506
2.82,-0.02957517637,0.004613577698
2.83,-0.02926343045,0.005861825987
2.84,-0.02889887029,0.007091543256
2.85,-0.02848253647,0.008300478088
2.86,-0.02801556691,0.009486436241
2.87,-0.02749919378,0.01064728496
2.88,-0.02693474012,0.01178095712
2.89,-0.02632361633,0.01288545514
2.9,-0.02566731646,0.0139588548
2.91,-0.02496741433,0.01499930873
2.92,-0.0242255595,0.01600504977
2.93,-0.02344347313,0.01697439412
2.94,-0.02262294365,0.01790574421
2.95,-0.02176582234,0.01879759138
2.96,-0.02087401885,0.01964851831
2.97,-0.01994949656,0.02045720125
2.98,-0.01899426788,0.02122241195
2.99,-0.01801038953,0.02194301938
3,-0.01699995769,0.02261799123
3.01,-0.01596510319,0.0232463951
3.02,-0.01490798659,0.0238273995
3.03,-0.01383079334,0.02436027459
3.04,-0.01273572886,0.02484439267
3.05,-0.01162501366,0.0252792284
3.06,-0.01050087852,0.02566435886
3.07,-0.009365559627,0.02599946326
3.08,-0.00822129386,0.02628432255
3.09,-0.00707031404,0.02651881865
3.1,-0.005914844317,0.0267029336
3.11,-0.004757095613,0.02683674843
3.12,-0.003599261165,0.02692044175
3.13,-0.002443512164,0.02695428829
3.14,-0.001291993519,0.02693865711
3.15,-0.0001468197283,0.02687400967
3.16,0.0009899291045,0.02676089772
3.17,0.002116211128,0.02659996104
3.18,0.003230026447,0.02639192493
3.19,0.004329420678,0.02613759766
3.2,0.005412488342,0.02583786772
3.21,0.006477376096,0.02549370088
3.22,0.007522285793,0.02510613724
3.23,0.008545477368,0.02467628808
3.24,0.009545271543,0.0242053326
3.25,0.01052005236,0.02369451466
3.26,0.0114682695,0.02314513931
3.27,0.01238844049,0.02255856932
3.28,0.0132791526,0.02193622166
3.29,0.01413906469,0.02127956386
3.3,0.01496690874,0.0205901104
3.31,0.0157614913,0.01986941901
3.32,0.01652169469,0.01911908697
3.33,0.01724647802,0.01834074742
3.34,0.01793487801,0.01753606563
3.35,0.01858600972,0.01670673526
3.36,0.01919906697,0.01585447472
3.37,0.01977332268,0.01498102346
3.38,0.02030812898,0.01408813833
3.39,0.0208029172,0.01317759001
3.4,0.02125719767,0.01225115941
3.41,0.02167055936,0.01131063422
3.42,0.02204266936,0.01035780542
3.43,0.02237327226,0.00939446399
3.44,0.02266218933,0.008422397533
3.45,0.0229093176,0.007443387119
3.46,0.02311462878,0.006459204138
3.47,0.02327816809,0.005471607266
3.48,0.02340005299,0.004482339525
3.49,0.02348047169,0.003493125436
3.5,0.02351968172,0.002505668285
3.51,0.0235180083,0.001521647478
3.52,0.02347584259,0.00054271602
3.53,0.02339363999,-0.0004295019065
3.54,0.02327191823,-0.001393413249
3.55,0.02311125545,-0.002347458278
3.56,0.02291228824,-0.00329011267
3.57,0.02267570956,-0.004219889471
3.58,0.0224022667,-0.005135340949
3.59,0.02209275909,-0.006035060334
3.6,0.02174803615,-0.006917683443
3.61,0.02136899511,-0.007781890188
3.62,0.02095657876,-0.008626405981
3.63,0.02051177319,-0.00945000302
3.64,0.02003560556,-0.01025150148
3.65,0.01952914182,-0.01102977057
3.66,0.01899348443,-0.01178372954
3.67,0.01842977007,-0.01251234852
3.68,0.01783916742,-0.01321464929
3.69,0.01722287484,-0.013889706
3.7,0.01658211816,-0.0145366457
3.71,0.01591814841,-0.01515464886
3.72,0.01523223966,-0.01574294976
3.73,0.01452568677,-0.01630083686
3.74,0.01379980324,-0.01682765295
3.75,0.01305591908,-0.01732279541
3.76,0.01229537866,-0.01778571625
3.77,0.01151953867,-0.01821592211
3.78,0.01072976602,-0.01861297425
3.79,0.009927435841,-0.01897648843
3.8,0.009113929496,-0.01930613472
3.81,0.008290632622,-0.01960163725
3.82,0.007458933212,-0.01986277396
3.83,0.00662021973,-0.02008937623
3.84,0.005775879265,-0.02028132849
3.85,0.004927295719,-0.02043856777
3.86,0.004075848028,-0.02056108323
3.87,0.003222908422,-0.02064891563
3.88,0.002369840721,-0.02070215671
3.89,0.001517998659,-0.02072094867
3.9,0.0006687242483,-0.02070548341
3.91,-0.0001766538247,-0.02065600192
3.92,-0.001016821773,-0.02057279356
3.93,-0.001850482246,-0.02045619523
3.94,-0.002676355842,-0.02030659069
3.95,-0.003493182583,-0.02012440965
3.96,-0.004299723363,-0.01991012697
3.97,-0.005094761367,-0.01966426173
3.98,-0.005877103461,-0.0193873764
3.99,-0.006645581554,-0.01908007581
4,-0.00739905393,-0.01874300622
4.01,-0.008136406555,-0.01837685433
4.02,-0.00885655436,-0.01798234622
4.03,-0.009558442485,-0.01756024629
4.04,-0.01024104751,-0.0171113562
4.05,-0.01090337866,-0.0166365137
4.06,-0.01154447896,-0.01613659148
4.07,-0.01216342638,-0.01561249604
4.08,-0.01275933496,-0.01506516639
4.09,-0.0133313559,-0.01449557285
4.1,-0.01387867861,-0.01390471572
4.11,-0.0144005317,-0.01329362401
4.12,-0.01489618404,-0.01266335405
4.13,-0.01536494568,-0.01201498809
4.14,-0.01580616876,-0.0113496329
4.15,-0.01621924845,-0.01066841831
4.16,-0.01660362375,-0.009972495655
4.17,-0.01695877834,-0.009263036327
4.18,-0.01728424132,-0.008541230136
4.19,-0.01757958796,-0.007808283734
4.2,-0.01784444037,-0.007065418965
4.21,-0.01807846814,-0.00631387119
4.22,-0.01828138891,-0.005554887572
4.23,-0.0184529689,-0.004789725336
4.24,-0.01859302341,-0.004019649988
4.25,-0.0187014172,-0.003245933502
4.26,-0.01877806486,-0.002469852489
4.27,-0.01882293112,-0.001692686319
4.28,-0.01883603105,-0.0009157152327
4.29,-0.01881743025,-0.0001402184196
4.3,-0.01876724491,0.0006325279248
4.31,-0.01868564186,0.001401252561
4.32,-0.01857283847,0.002164691185
4.33,-0.01842910257,0.002921588423
4.34,-0.0182547522,0.00367069984
4.35,-0.01805015531,0.00441079395
4.36,-0.01781572943,0.00514065424
4.37,-0.01755194115,0.005859081186
4.38,-0.01725930561,0.006564894277
4.39,-0.01693838588,0.007256934023
4.4,-0.01658979219,0.007934063958
4.41,-0.01621418115,0.008595172628
4.42,-0.01581225487,0.009239175555
4.43,-0.01538475992,0.009865017186
4.44,-0.0149324863,0.0104716728
4.45,-0.01445626621,0.01105815041
4.46,-0.01395697288,0.01162349258
4.47,-0.01343551913,0.01216677826
4.48,-0.01289285598,0.01268712451
4.49,-0.01232997115,0.01318368823
4.5,-0.01174788739,0.01365566779
4.51,-0.01114766085,0.01410230462
4.52,-0.01053037928,0.01452288475
4.53,-0.009897160199,0.01491674023
4.54,-0.009249148939,0.01528325049
4.55,-0.008587516689,0.0156218437
4.56,-0.007913458406,0.0159319979
4.57,-0.007228190689,0.01621324216
4.58,-0.006532949591,0.01646515763
4.59,-0.005828988364,0.01668737842
4.6,-0.005117575165,0.01687959246
4.61,-0.004399990696,0.01704154224
4.62,-0.00367752582,0.01717302539
4.63,-0.002951479122,0.01727389525
4.64,-0.002223154452,0.01734406123
4.65,-0.001493858426,0.0173834891
4.66,-0.0007648979203,0.01739220119
4.67,-3.757753829E-05,0.01737027641
4.68,0.0006868029264,0.01731785017
4.69,0.001406951032,0.01723511426
4.7,0.002121584227,0.01712231647
4.71,0.002829432382,0.01697976019
4.72,0.003529240305,0.01680780386
4.73,0.004219770234,0.01660686028
4.74,0.004899804302,0.01637739584
4.75,0.005568146973,0.01611992957
4.76,0.006223627427,0.01583503216
4.77,0.00686510191,0.01552332474
4.78,0.007491456022,0.0151854777
4.79,0.008101606949,0.01482220925
4.8,0.008694505632,0.01443428394
4.81,0.009269138865,0.01402251112
4.82,0.009824531309,0.01358774321
4.83,0.01035974744,0.01313087388
4.84,0.01087389338,0.01265283625
4.85,0.01136611869,0.01215460082
4.86,0.01183561799,0.01163717349
4.87,0.01228163257,0.01110159335
4.88,0.01270345178,0.01054893053
4.89,0.01310041445,0.009980283859
4.9,0.01347191004,0.009396778558
4.91,0.01381737985,0.008799563813
4.92,0.01413631791,0.008189810326
4.93,0.01442827195,0.00756870781
4.94,0.0146928441,0.00693746245
4.95,0.01492969151,0.006297294328
4.96,0.01513852686,0.005649434828
4.97,0.01531911873,0.004995124016
4.98,0.01547129184,0.004335608012
4.99,0.01559492713,0.003672136355
5,0.01568996176,0.003005959375
5.01,0.01575638896,0.002338325563
5.02,0.01579425773,0.001670478968
5.03,0.01580367244,0.00100365661
5.04,0.01578479231,0.0003390859208
5.05,0.01573783072,-0.0003220177753
5.06,0.01566305446,-0.0009784537423
5.07,0.01556078277,-0.001629038264
5.08,0.01543138642,-0.002272607023
5.09,0.01527528649,-0.002908017414
5.1,0.01509295317,-0.003534150801
5.11,0.01488490439,-0.004149914693
5.12,0.0146517044,-0.004754244848
5.13,0.01439396224,-0.005346107298
5.14,0.01411233002,-0.005924500281
5.15,0.01380750131,-0.006488456089
5.16,0.01348020923,-0.007037042814
5.17,0.01313122465,-0.007569366003
5.18,0.01276135419,-0.008084570206
5.19,0.0123714382,-0.008581840419
5.2,0.01196234871,-0.009060403419
5.21,0.01153498729,-0.009519528994
5.22,0.01109028287,-0.009958531047
5.23,0.0106291895,-0.0103767686
5.24,0.01015268414,-0.01077364668
5.25,0.009661764339,-0.01114861707
5.26,0.009157445973,-0.01150117897
5.27,0.00864076089,-0.01183087953
5.28,0.008112754601,-0.01213731424
5.29,0.007574483951,-0.01242012726
5.3,0.007027014788,-0.01267901155
5.31,0.006471419647,-0.01291370899
5.32,0.00590877545,-0.01312401028
5.33,0.005340161226,-0.01330975482
5.34,0.004766655856,-0.01347083038
5.35,0.004189335854,-0.01360717279
5.36,0.003609273183,-0.01371876539
5.37,0.003027533118,-0.01380563847
5.38,0.002445172151,-0.01386786859
5.39,0.001863235955,-0.01390557778
5.4,0.0012827574,-0.01391893269
5.41,0.0007047546376,-0.01390814358
5.42,0.0001302292397,-0.01387346333
5.43,-0.0004398355819,-0.01381518629
5.44,-0.00100447669,-0.01373364706
5.45,-0.00156275266,-0.01362921925
5.46,-0.002113745337,-0.01350231414
5.47,-0.002656561316,-0.01335337927
5.48,-0.003190333333,-0.01318289698
5.49,-0.003714221578,-0.01299138294
5.5,-0.004227414914,-0.01277938457
5.51,-0.004729132015,-0.01254747946
5.52,-0.005218622406,-0.01229627375
5.53,-0.005695167425,-0.01202640047
5.54,-0.006158081083,-0.01173851786
5.55,-0.006606710841,-0.01143330765
5.56,-0.007040438293,-0.01111147339
5.57,-0.007458679764,-0.01077373867
5.58,-0.007860886813,-0.01042084542
5.59,-0.00824654665,-0.01005355216
5.6,-0.008615182472,-0.0096726323
5.61,-0.008966353703,-0.009278872362
5.62,-0.00929965616,-0.008873070321
5.63,-0.009614722133,-0.00845603389
5.64,-0.009911220383,-0.00802857885
5.65,-0.01018885607,-0.007591527401
5.66,-0.01044737061,-0.007145706543
5.67,-0.01068654142,-0.006691946482
5.68,-0.01090618167,-0.006231079078
5.69,-0.0111061399,-0.005763936326
5.7,-0.01128629961,-0.005291348876
5.71,-0.01144657875,-0.004814144598
5.72,-0.01158692923,-0.00433314719
5.73,-0.01170733629,-0.003849174834
5.74,-0.01180781788,-0.003363038899
5.75,-0.01188842397,-0.002875542696
5.76,-0.01194923581,-0.002387480284
5.77,-0.01199036518,-0.001899635325
5.78,-0.01201195355,-0.001412779999
5.79,-0.01201417131,-0.0009276739693
5.8,-0.0119972168,-0.0004450634004
5.81,-0.01196131553,3.431996511E-05
5.82,-0.01190671918,0.0005097596772
5.83,-0.01183370471,0.0009805553937
5.84,-0.0117425734,0.001446023642
5.85,-0.01163364987,0.001905498524
5.86,-0.01150728115,0.002358332377
5.87,-0.01136383566,0.002803896365
5.88,-0.01120370225,0.003241581042
5.89,-0.01102728919,0.003670796844
5.9,-0.01083502322,0.004090974546
5.91,-0.01062734855,0.004501565664
5.92,-0.01040472588,0.004902042818
5.93,-0.01016763144,0.005291900047
5.94,-0.009916556022,0.005670653077
5.95,-0.009652004058,0.006037839561
5.96,-0.009374492652,0.006393019265
5.97,-0.009084550677,0.006735774233
5.98,-0.008782717865,0.007065708899
5.99,-0.008469543914,0.007382450185
6,-0.008145587622,0.007685647553
