"Freq [GHz]","re(S(Tx_p1,Tx_p1)) []","im(S(Tx_p1,Tx_p1)) []"
1,-0.01030378326,-0.1470436106
1.01,-0.01523784124,-0.1464731424
1.02,-0.02016640852,-0.145733227
1.03,-0.02508252881,-0.1448230857
1.04,-0.02997923107,-0.1437422807
1.05,-0.03484954457,-0.1424907101
1.06,-0.03968651341,-0.1410686026
1.07,-0.04448321062,-0.1394765118
1.08,-0.04923275161,-0.1377153103
1.09,-0.05392830725,-0.1357861832
1.1,-0.05856311634,-0.1336906213
1.11,-0.06313049765,-0.1314304146
1.12,-0.06762386138,-0.1290076444
1.13,-0.07203672021,-0.1264246766
1.14,-0.07636269983,-0.1236841536
1.15,-0.08059554896,-0.1207889866
1.16,-0.08472914891,-0.1177423475
1.17,-0.08875752274,-0.1145476608
1.18,-0.09267484387,-0.1112085952
1.19,-0.09647544431,-0.1077290555
1.2,-0.1001538224,-0.1041131735
1.21,-0.1037046503,-0.1003652999
1.22,-0.1071227805,-0.09648999557
1.23,-0.1104032532,-0.09249202252
1.24,-0.1135413014,-0.0883763354
1.25,-0.1165323576,-0.08414807261
1.26,-0.1193720587,-0.07981254749
1.27,-0.1220562511,-0.07537523949
1.28,-0.1245809957,-0.07084178532
1.29,-0.1269425721,-0.06621797014
1.3,-0.1291374825,-0.06150971873
1.31,-0.131162456,-0.05672308668
1.32,-0.1330144517,-0.05186425163
1.33,-0.1346906619,-0.04693950447
1.34,-0.1361885153,-0.04195524063
1.35,-0.1375056796,-0.03691795136
1.36,-0.1386400637,-0.03183421505
1.37,-0.1395898203,-0.02671068854
1.38,-0.1403533477,-0.02155409854
1.39,-0.1409292913,-0.01637123298
1.4,-0.1413165455,-0.01116893243
1.41,-0.1415142549,-0.005954081531
1.42,-0.1415218152,-0.0007336004548
1.43,-0.1413388743,0.00448556365
1.44,-0.140965333,0.009696445178
1.45,-0.1404013453,0.01489206859
1.46,-0.139647319,0.02006545692
1.47,-0.1387039153,0.02520964031
1.48,-0.1375720493,0.03031766452
1.49,-0.1362528892,0.03538259943
1.5,-0.1347478559,0.04039754762
1.51,-0.1330586225,0.04535565286
1.52,-0.1311871128,0.05025010868
1.53,-0.1291355009,0.05507416696
1.54,-0.1269062092,0.05982114647
1.55,-0.124501907,0.06448444147
1.56,-0.1219255086,0.06905753034
1.57,-0.1191801714,0.07353398414
1.58,-0.1162692931,0.07790747529
1.59,-0.1131965096,0.08217178613
1.6,-0.1099656918,0.0863208176
1.61,-0.1065809424,0.09034859781
1.62,-0.1030465928,0.09424929067
1.63,-0.09936719894,0.09801720445
1.64,-0.09554753765,0.1016468004
1.65,-0.09159260202,0.105132701
1.66,-0.08750759685,0.1084696991
1.67,-0.08329793365,0.1116527653
1.68,-0.07896922533,0.1146770574
1.69,-0.0745272805,0.1175379276
1.7,-0.06997809751,0.1202309316
1.71,-0.06532785805,0.1227518359
1.72,-0.06058292046,0.1250966261
1.73,-0.05574981268,0.1272615146
1.74,-0.05083522475,0.1292429479
1.75,-0.04584600109,0.1310376146
1.76,-0.0407891323,0.1326424518
1.77,-0.03567174665,0.1340546529
1.78,-0.0305011012,0.1352716738
1.79,-0.02528457253,0.1362912392
1.8,-0.0200296472,0.1371113495
1.81,-0.01474391175,0.137730286
1.82,-0.009435042464,0.1381466168
1.83,-0.004110794711,0.1383592016
1.84,0.001221007966,0.1383671971
1.85,0.006552485114,0.1381700609
1.86,0.01187571091,0.1377675559
1.87,0.01718272602,0.1371597534
1.88,0.02246554965,0.1363470367
1.89,0.02771619195,0.1353301036
1.9,0.03292666658,0.1341099684
1.91,0.0380890035,0.1326879636
1.92,0.04319526196,0.1310657412
1.93,0.04823754367,0.1292452729
1.94,0.05320800609,0.1272288505
1.95,0.05809887584,0.1250190849
1.96,0.06290246223,0.1226189054
1.97,0.06761117081,0.1200315576
1.98,0.07221751701,0.1172606011
1.99,0.07671413974,0.1143099064
2,0.08109381496,0.1111836517
2.01,0.08534946929,0.107886318
2.02,0.08947419337,0.1044226847
2.03,0.09346125527,0.1007978239
2.04,0.09730411361,0.09701709431
2.05,0.1009964306,0.09308613413
2.06,0.1045320847,0.089010854
2.07,0.1079051835,0.08479742871
2.08,0.1111100753,0.08045228855
2.09,0.1141413617,0.07598211
2.1,0.1169939088,0.07139380579
2.11,0.1196628584,0.06669451443
2.12,0.1221436388,0.06189158914
2.13,0.1244319753,0.05699258618
2.14,0.1265238997,0.0520052527
2.15,0.1284157596,0.04693751405
2.16,0.1301042275,0.04179746059
2.17,0.1315863089,0.03659333405
2.18,0.1328593496,0.03133351339
2.19,0.1339210431,0.02602650033
2.2,0.1347694366,0.02068090442
2.21,0.1354029369,0.01530542777
2.22,0.1358203152,0.009908849478
2.23,0.1360207114,0.004500009731
2.24,0.1360036378,-0.0009122063171
2.25,0.1357689815,-0.00631888491
2.26,0.1353170069,-0.01171110023
2.27,0.1346483563,-0.01707993109
2.28,0.1337640513,-0.02241647772
2.29,0.1326654915,-0.02771187865
2.3,0.1313544539,-0.03295732756
2.31,0.1298330909,-0.03814409021
2.32,0.1281039276,-0.04326352122
2.33,0.1261698581,-0.04830708085
2.34,0.1240341413,-0.05326635152
2.35,0.1217003956,-0.0581330543
2.36,0.1191725934,-0.06289906508
2.37,0.1164550538,-0.0675564305
2.38,0.1135524356,-0.07209738361
2.39,0.1104697291,-0.07651435917
2.4,0.1072122466,-0.08080000858
2.41,0.1037856135,-0.08494721438
2.42,0.1001957573,-0.08894910435
2.43,0.09644889686,-0.09279906504
2.44,0.09255153075,-0.09649075486
2.45,0.08851042475,-0.1000181166
2.46,0.08433259904,-0.1033753891
2.47,0.08002531472,-0.1065571191
2.48,0.07559605978,-0.1095581712
2.49,0.0710525346,-0.1123737385
2.5,0.06640263694,-0.1149993511
2.51,0.06165444656,-0.1174308854
2.52,0.05681620939,-0.1196645717
2.53,0.05189632138,-0.1216970008
2.54,0.046903312,-0.1235251309
2.55,0.04184582751,-0.1251462926
2.56,0.03673261397,-0.1265581938
2.57,0.03157250002,-0.1277589237
2.58,0.02637437956,-0.1287469552
2.59,0.02114719432,-0.1295211477
2.6,0.01589991631,-0.1300807484
2.61,0.01064153032,-0.1304253923
2.62,0.005381016356,-0.1305551026
2.63,0.0001273322051,-0.1304702887
2.64,-0.00511060393,-0.130171745
2.65,-0.01032393065,-0.1296606477
2.66,-0.01550386038,-0.1289385511
2.67,-0.02064169617,-0.1280073834
2.68,-0.02572884826,-0.1268694413
2.69,-0.03075685028,-0.1255273841
2.7,-0.03571737516,-0.1239842272
2.71,-0.0406022506,-0.1222433341
2.72,-0.04540347426,-0.1203084088
2.73,-0.05011322831,-0.1181834867
2.74,-0.05472389364,-0.1158729249
2.75,-0.05922806353,-0.1133813925
2.76,-0.06361855675,-0.1107138596
2.77,-0.06788843011,-0.1078755859
2.78,-0.0720309904,-0.1048721091
2.79,-0.07603980575,-0.1017092324
2.8,-0.07990871632,-0.09839301167
2.81,-0.08363184429,-0.09492974217
2.82,-0.08720360327,-0.09132594501
2.83,-0.09061870695,-0.08758835299
2.84,-0.09387217701,-0.08372389631
2.85,-0.0969593504,-0.07973968786
2.86,-0.0998758858,-0.07564300838
2.87,-0.1026177694,-0.0714412913
2.88,-0.10518132,-0.06714210746
2.89,-0.1075631929,-0.06275314969
2.9,-0.1097603842,-0.05828221729
2.91,-0.1117702326,-0.05373720041
2.92,-0.1135904223,-0.04912606448
2.93,-0.1152189836,-0.04445683459
2.94,-0.1166542939,-0.03973757996
2.95,-0.1178950774,-0.03497639847
2.96,-0.1189404043,-0.03018140134
2.97,-0.1197896887,-0.02536069797
2.98,-0.1204426872,-0.02052238093
2.99,-0.1208994951,-0.01567451121
3,-0.1211605435,-0.01082510373
3.01,-0.1212265946,-0.00598211311
3.02,-0.1210987367,-0.001153419773
3.03,-0.1207783796,0.003653183628
3.04,-0.1202672473,0.0084300054
3.05,-0.1195673727,0.01316946761
3.06,-0.1186810896,0.01786411849
3.07,-0.1176110255,0.02250664436
3.08,-0.1163600935,0.02708988116
3.09,-0.1149314838,0.03160682546
3.1,-0.1133286545,0.03605064499
3.11,-0.1115553228,0.04041468867
3.12,-0.109615455,0.04469249614
3.13,-0.1075132565,0.04887780673
3.14,-0.1052531615,0.05296456788
3.15,-0.1028398229,0.0569469431
3.16,-0.1002781007,0.06081931927
3.17,-0.09757305184,0.06457631347
3.18,-0.09472991829,0.06821277915
3.19,-0.09175411625,0.07172381189
3.2,-0.0886512245,0.07510475446
3.21,-0.08542697282,0.07835120136
3.22,-0.08208723049,0.08145900289
3.23,-0.07863799459,0.08442426856
3.24,-0.07508537838,0.08724337
3.25,-0.07143559966,0.08991294335
3.26,-0.06769496921,0.09242989114
3.27,-0.06386987922,0.09479138357
3.28,-0.05996679189,0.0969948594
3.29,-0.05599222812,0.09903802628
3.3,-0.0519527563,0.1009188606
3.31,-0.04785498128,0.1026356069
3.32,-0.04370553351,0.1041867767
3.33,-0.03951105837,0.1055711475
3.34,-0.03527820569,0.1067877602
3.35,-0.03101361952,0.1078359173
3.36,-0.02672392809,0.1087151799
3.37,-0.02241573407,0.109425365
3.38,-0.01809560506,0.109966542
3.39,-0.01377006436,0.1103390287
3.4,-0.009445581986,0.1105433878
3.41,-0.00512856605,0.110580422
3.42,-0.0008253543441,0.1104511701
3.43,0.003457793717,0.1101569016
3.44,0.007714704869,0.1096991119
3.45,0.01193929947,0.1090795169
3.46,0.01612559864,0.1083000478
3.47,0.02026773113,0.1073628452
3.48,0.02435993985,0.1062702532
3.49,0.02839658807,0.1050248139
3.5,0.03237216539,0.1036292608
3.51,0.03628129332,0.1020865129
3.52,0.04011873059,0.1003996684
3.53,0.04387937819,0.09857199819
3.54,0.04755828408,0.09660693953
3.55,0.05115064764,0.09450808953
3.56,0.05465182381,0.09227919857
3.57,0.058057327,0.08992416377
3.58,0.06136283468,0.08744702238
3.59,0.06456419077,0.08485194518
3.6,0.06765740872,0.08214322989
3.61,0.07063867439,0.07932529454
3.62,0.07350434866,0.07640267093
3.63,0.07625096986,0.07337999803
3.64,0.07887525593,0.07026201548
3.65,0.0813741064,0.06705355704
3.66,0.08374460418,0.06375954418
3.67,0.08598401707,0.06038497961
3.68,0.08808979924,0.05693494092
3.69,0.09005959237,0.05341457424
3.7,0.09189122673,0.04982908795
3.71,0.09358272203,0.04618374643
3.72,0.09513228815,0.04248386387
3.73,0.09653832574,0.03873479813
3.74,0.09779942658,0.03494194464
3.75,0.0989143739,0.03111073036
3.76,0.09988214255,0.02724660773
3.77,0.100701899,0.02335504878
3.78,0.1013730011,0.01944153915
3.79,0.1018949983,0.01551157224
3.8,0.1022676306,0.01157064335
3.81,0.1024908286,0.007624243885
3.82,0.102564713,0.00367785555
3.83,0.1024895933,-0.0002630553724
3.84,0.1022659676,-0.004193043759
3.85,0.1018945215,-0.008106691349
3.86,0.1013761267,-0.01199861242
3.87,0.1007118403,-0.01586345945
3.88,0.09990290344,-0.01969592876
3.89,0.09895073961,-0.02349076617
3.9,0.09785695337,-0.02724277255
3.91,0.09662332868,-0.03094680951
3.92,0.09525182701,-0.03459780494
3.93,0.09374458551,-0.03819075857
3.94,0.09210391492,-0.04172074761
3.95,0.09033229736,-0.04518293224
3.96,0.08843238399,-0.04857256121
3.97,0.0864069925,-0.05188497729
3.98,0.08425910448,-0.05511562287
3.99,0.08199186254,-0.05826004536
4,0.07960856736,-0.06131390272
4.01,0.07711267451,-0.06427296885
4.02,0.0745077911,-0.067133139
4.03,0.07179767225,-0.06989043513
4.04,0.06898621738,-0.0725410112
4.05,0.0660774663,-0.07508115847
4.06,0.06307559509,-0.07750731065
4.07,0.05998491179,-0.07981604904
4.08,0.05680985188,-0.08200410758
4.09,0.05355497358,-0.08406837784
4.1,0.05022495288,-0.08600591384
4.11,0.04682457843,-0.08781393682
4.12,0.04335874612,-0.08948983989
4.13,0.03983245357,-0.09103119256
4.14,0.03625079427,-0.09243574507
4.15,0.03261895163,-0.09370143261
4.16,0.02894219271,-0.09482637943
4.17,0.02522586178,-0.09580890265
4.18,0.02147537373,-0.09664751597
4.19,0.01769620715,-0.09734093317
4.2,0.01389389733,-0.09788807136
4.21,0.01007402896,-0.09828805402
4.22,0.006242228734,-0.09854021379
4.23,0.002404157705,-0.09864409506
4.24,-0.001434496509,-0.09859945619
4.25,-0.005268027692,-0.09840627153
4.26,-0.009090719145,-0.09806473313
4.27,-0.01289685196,-0.09757525214
4.28,-0.01668071341,-0.0969384599
4.29,-0.0204366055,-0.09615520869
4.3,-0.02415885356,-0.09522657216
4.31,-0.02784181501,-0.09415384543
4.32,-0.03147988813,-0.09293854476
4.33,-0.03506752099,-0.09158240696
4.34,-0.0385992203,-0.09008738835
4.35,-0.04206956044,-0.08845566336
4.36,-0.04547319236,-0.08668962276
4.37,-0.0488048526,-0.0847918715
4.38,-0.0520593722,-0.08276522611
4.39,-0.0552316856,-0.08061271175
4.4,-0.05831683952,-0.07833755887
4.41,-0.06131000165,-0.07594319938
4.42,-0.06420646941,-0.07343326251
4.43,-0.06700167837,-0.07081157025
4.44,-0.06969121075,-0.06808213233
4.45,-0.07227080361,-0.06524914087
4.46,-0.07473635688,-0.0623169646
4.47,-0.07708394125,-0.05929014273
4.48,-0.07930980578,-0.05617337837
4.49,-0.08141038527,-0.05297153163
4.5,-0.08338230739,-0.04968961238
4.51,-0.08522239949,-0.04633277257
4.52,-0.08692769514,-0.04290629828
4.53,-0.08849544035,-0.03941560141
4.54,-0.0899230994,-0.03586621104
4.55,-0.09120836037,-0.03226376454
4.56,-0.09234914026,-0.02861399833
4.57,-0.09334358972,-0.02492273841
4.58,-0.09419009738,-0.0211958906
4.59,-0.09488729379,-0.0174394306
4.6,-0.09543405481,-0.01365939377
4.61,-0.09582950473,-0.009861864799
4.62,-0.09607301874,-0.006052967101
4.63,-0.09616422508,-0.002238852144
4.64,-0.09610300663,0.001574311395
4.65,-0.095889502,0.005380348565
4.66,-0.09552410619,0.009173089161
4.67,-0.09500747069,0.0129463788
4.68,-0.09434050309,0.01669409004
4.69,-0.09352436619,0.02041013347
4.7,-0.09256047658,0.02408846884
4.71,-0.09145050274,0.02772311611
4.72,-0.09019636254,0.03130816644
4.73,-0.0888002204,0.03483779307
4.74,-0.08726448372,0.03830626211
4.75,-0.08559179901,0.04170794317
4.76,-0.0837850474,0.04503731981
4.77,-0.08184733973,0.04828899984
4.78,-0.0797820111,0.0514577253
4.79,-0.07759261499,0.05453838234
4.8,-0.07528291696,0.05752601071
4.81,-0.0728568878,0.06041581303
4.82,-0.07031869634,0.06320316369
4.83,-0.06767270182,0.0658836175
4.84,-0.06492344588,0.0684529179
4.85,-0.06207564409,0.07090700484
4.86,-0.05913417721,0.07324202228
4.87,-0.05610408207,0.07545432523
4.88,-0.05299054212,0.0775404864
4.89,-0.0497988777,0.07949730241
4.9,-0.046534536,0.08132179951
4.91,-0.04320308078,0.08301123886
4.92,-0.03981018188,0.08456312128
4.93,-0.03636160449,0.0859751916
4.94,-0.03286319825,0.08724544235
4.95,-0.02932088617,0.08837211713
4.96,-0.02574065348,0.08935371328
4.97,-0.02212853629,0.09018898414
4.98,-0.01849061026,0.09087694074
4.99,-0.0148329791,0.09141685293
5,-0.0111617632,0.09180825006
5.01,-0.007483088075,0.09205092103
5.02,-0.003803073027,0.09214491388
5.03,-0.0001278197021,0.09209053477
5.04,0.003536599187,0.09188834657
5.05,0.007184151058,0.09153916674
5.06,0.01080885453,0.09104406491
5.07,0.01440479033,0.09040435976
5.08,0.01796611204,0.08962161555
5.09,0.02148705661,0.08869763809
5.1,0.02496195466,0.08763447024
5.11,0.02838524058,0.08643438699
5.12,0.03175146225,0.08509989007
5.13,0.03505529061,0.08363370214
5.14,0.03829152877,0.08203876052
5.15,0.04145512095,0.08031821064
5.16,0.04454116092,0.07847539894
5.17,0.04754490019,0.07651386559
5.18,0.05046175578,0.07443733677
5.19,0.05328731758,0.07224971662
5.2,0.0560173553,0.06995507896
5.21,0.05864782509,0.06755765868
5.22,0.06117487557,0.0650618429
5.23,0.06359485359,0.06247216191
5.24,0.06590430941,0.05979327988
5.25,0.0681000015,0.05702998538
5.26,0.07017890086,0.05418718179
5.27,0.07213819487,0.05126987751
5.28,0.07397529066,0.04828317607
5.29,0.07568781804,0.04523226621
5.3,0.07727363192,0.04212241184
5.31,0.0787308143,0.03895894191
5.32,0.08005767578,0.03574724041
5.33,0.08125275655,0.0324927362
5.34,0.08231482701,0.02920089299
5.35,0.08324288786,0.02587719932
5.36,0.08403616975,0.02252715862
5.37,0.08469413255,0.01915627934
5.38,0.08521646409,0.01577006523
5.39,0.08560307854,0.01237400571
5.4,0.08585411435,0.008973566437
5.41,0.0859699318,0.005574179998
5.42,0.08595111015,0.002181236815
5.43,0.08579844439,-0.001199923755
5.44,0.0855129417,-0.004564022097
5.45,0.08509581745,-0.007905846781
5.46,0.08454849094,-0.01122026276
5.47,0.08387258081,-0.01450221929
5.48,0.08306990016,-0.01774675762
5.49,0.08214245131,-0.02094901832
5.5,0.08109242035,-0.02410424838
5.51,0.07992217148,-0.02720780799
5.52,0.07863424098,-0.030255177
5.53,0.07723133111,-0.03324196101
5.54,0.0757163037,-0.03616389726
5.55,0.0740921736,-0.03901686004
5.56,0.072362102,-0.04179686588
5.57,0.07052938951,-0.04450007831
5.58,0.06859746921,-0.04712281238
5.59,0.06656989954,-0.04966153873
5.6,0.06445035707,-0.0521128874
5.61,0.06224262926,-0.05447365124
5.62,0.05995060709,-0.05674078904
5.63,0.05757827771,-0.05891142826
5.64,0.05512971698,-0.06098286744
5.65,0.05260908211,-0.06295257834
5.66,0.05002060418,-0.06481820766
5.67,0.04736858076,-0.06657757849
5.68,0.04465736854,-0.06822869147
5.69,0.041891376,-0.06976972556
5.7,0.03907505613,-0.07119903859
5.71,0.03621289922,-0.07251516748
5.72,0.03330942574,-0.07371682818
5.73,0.03036917934,-0.07480291532
5.74,0.02739671986,-0.07577250162
5.75,0.02439661658,-0.076624837
5.76,0.02137344147,-0.07735934751
5.77,0.01833176266,-0.07797563393
5.78,0.01527613798,-0.07847347023
5.79,0.01221110867,-0.07885280175
5.8,0.009141193275,-0.07911374319
5.81,0.006070881612,-0.0792565764
5.82,0.003004628973,-0.07928174801
5.83,-5.314955349E-05,-0.07918986683
5.84,-0.003098084577,-0.07898170115
5.85,-0.006125857735,-0.07865817579
5.86,-0.009132206853,-0.07822036911
5.87,-0.01211293093,-0.07766950979
5.88,-0.01506389495,-0.07700697356
5.89,-0.01798103451,-0.07623427974
5.9,-0.02086036031,-0.07535308774
5.91,-0.0236979624,-0.07436519339
5.92,-0.02649001434,-0.07327252524
5.93,-0.02923277711,-0.07207714073
5.94,-0.03192260291,-0.07078122234
5.95,-0.03455593875,-0.06938707357
5.96,-0.03712932988,-0.06789711498
5.97,-0.03963942308,-0.0663138801
5.98,-0.04208296979,-0.06464001129
5.99,-0.04445682905,-0.06287825561
6,-0.04675797029,-0.06103146056
