"Freq [GHz]","re(S(Tx_p1,Tx_p1)) []","im(S(Tx_p1,Tx_p1)) []"
1,-0.003738476135,-0.1565384203
1.01,-0.008676505349,-0.1560709413
1.02,-0.01360741633,-0.1554504272
1.03,-0.01852555205,-0.1546765412
1.04,-0.02342529483,-0.153749208
1.05,-0.02830107641,-0.1526686036
1.06,-0.03314738704,-0.1514351451
1.07,-0.03795878369,-0.1500494803
1.08,-0.04272989743,-0.148512478
1.09,-0.04745543989,-0.1468252176
1.1,-0.05213020897,-0.1449889793
1.11,-0.0567490938,-0.1430052344
1.12,-0.06130707885,-0.1408756361
1.13,-0.06579924748,-0.1386020099
1.14,-0.07022078474,-0.1361863448
1.15,-0.07456697955,-0.1336307851
1.16,-0.07883322634,-0.1309376219
1.17,-0.08301502615,-0.1281092853
1.18,-0.08710798724,-0.1251483373
1.19,-0.09110782525,-0.1220574648
1.2,-0.09501036301,-0.1188394729
1.21,-0.09881152994,-0.1154972793
1.22,-0.1025073612,-0.1120339087
1.23,-0.1060939968,-0.1084524877
1.24,-0.10956768,-0.1047562403
1.25,-0.1129247559,-0.1009484842
1.26,-0.1161616704,-0.09703262705
1.27,-0.1192749681,-0.09301216337
1.28,-0.1222612909,-0.08889067231
1.29,-0.1251173766,-0.08467181539
1.3,-0.1278400573,-0.08035933495
1.31,-0.1304262583,-0.07595705297
1.32,-0.1328729967,-0.07146887026
1.33,-0.1351773808,-0.06689876614
1.34,-0.1373366091,-0.0622507983
1.35,-0.1393479703,-0.05752910319
1.36,-0.1412088427,-0.05273789649
1.37,-0.1429166952,-0.047881474
1.38,-0.1444690869,-0.04296421263
1.39,-0.1458636692,-0.03799057163
1.4,-0.1470981864,-0.03296509393
1.41,-0.148170478,-0.0278924076
1.42,-0.1490784807,-0.02277722728
1.43,-0.149820231,-0.01762435572
1.44,-0.1503938689,-0.01243868522
1.45,-0.1507976409,-0.007225198977
1.46,-0.1510299041,-0.001988972347
1.47,-0.151089131,0.003264826119
1.48,-0.1509739143,0.008530933817
1.49,-0.1506829717,0.01380399352
1.5,-0.1502151524,0.0190785531
1.51,-0.1495694426,0.02434906561
1.52,-0.1487449721,0.02960988973
1.53,-0.1477410212,0.03485529069
1.54,-0.1465570274,0.04007944157
1.55,-0.1451925932,0.04527642519
1.56,-0.1436474933,0.05044023647
1.57,-0.1419216825,0.05556478537
1.58,-0.1400153035,0.0606439004
1.59,-0.137928695,0.06567133275
1.6,-0.1356623996,0.07064076106
1.61,-0.1332171721,0.07554579682
1.62,-0.1305939874,0.08037999042
1.63,-0.1277940487,0.08513683792
1.64,-0.1248187949,0.08980978844
1.65,-0.1216699085,0.09439225228
1.66,-0.1183493233,0.09887760966
1.67,-0.114859231,0.1032592203
1.68,-0.1112020883,0.1075304332
1.69,-0.1073806232,0.1116845981
1.7,-0.1033978409,0.1157150762
1.71,-0.09925702952,0.1196152524
1.72,-0.09496176454,0.1233785484
1.73,-0.09051591342,0.1269984354
1.74,-0.08592363915,0.1304684479
1.75,-0.08118940321,0.1337821983
1.76,-0.07631796777,0.1369333913
1.77,-0.07131439718,0.1399158393
1.78,-0.06618405854,0.142723478
1.79,-0.06093262149,0.1453503817
1.8,-0.0555660571,0.1477907805
1.81,-0.05009063582,0.1500390756
1.82,-0.04451292448,0.1520898567
1.83,-0.03883978236,0.1539379185
1.84,-0.03307835626,0.1555782771
1.85,-0.02723607447,0.1570061872
1.86,-0.02132063991,0.1582171588
1.87,-0.01534002206,0.1592069733
1.88,-0.009302447943,0.1599717006
1.89,-0.003216392081,0.1605077145
1.9,0.002909434594,0.1608117091
1.91,0.009066096853,0.1608807138
1.92,0.01524444827,0.1607121086
1.93,0.02143514533,0.1603036382
1.94,0.02762866248,0.1596534261
1.95,0.03381530815,0.1587599875
1.96,0.03998524166,0.1576222424
1.97,0.04612849101,0.1562395265
1.98,0.0522349715,0.1546116024
1.99,0.05829450517,0.1527386701
2,0.06429684098,0.150621375
2.01,0.07023167563,0.1482608168
2.02,0.07608867515,0.1456585561
2.03,0.08185749693,0.1428166202
2.04,0.0875278124,0.1397375081
2.05,0.0930893301,0.1364241937
2.06,0.09853181918,0.1328801287
2.07,0.1038451332,0.1291092429
2.08,0.1090192343,0.1251159449
2.09,0.1140442174,0.1209051198
2.1,0.1189103344,0.116482127
2.11,0.1236080189,0.1118527957
2.12,0.1281279106,0.1070234194
2.13,0.132460879,0.1020007496
2.14,0.1365980482,0.09679198679
2.15,0.1405308201,0.0914047716
2.16,0.144250898,0.08584717359
2.17,0.1477503098,0.08012767914
2.18,0.1510214301,0.07425517798
2.19,0.1540570021,0.06823894838
2.2,0.1568501591,0.06208864112
2.21,0.1593944446,0.05581426227
2.22,0.1616838323,0.0494261547
2.23,0.1637127444,0.04293497858
2.24,0.1654760696,0.03635169065
2.25,0.1669691802,0.02968752253
2.26,0.1681879471,0.02295395805
2.27,0.1691287548,0.01616270959
2.28,0.1697885145,0.009325693565
2.29,0.1701646765,0.002455005199
2.3,0.1702552406,-0.004437107568
2.31,0.1700587655,-0.01133827074
2.32,0.1695743771,-0.01823601154
2.33,0.1688017749,-0.02511778619
2.34,0.1677412374,-0.03197100812
2.35,0.1663936252,-0.03878307651
2.36,0.1647603837,-0.04554140513
2.37,0.1628435433,-0.0522334513
2.38,0.1606457189,-0.05884674498
2.39,0.1581701071,-0.06536891788
2.4,0.1554204821,-0.07178773245
2.41,0.1524011906,-0.07809111069
2.42,0.1491171443,-0.08426716277
2.43,0.1455738112,-0.09030421525
2.44,0.1417772061,-0.09619083887
2.45,0.1377338781,-0.1019158759
2.46,0.1334508984,-0.1074684666
2.47,0.1289358453,-0.1128380757
2.48,0.1241967884,-0.1180145172
2.49,0.1192422716,-0.122987979
2.5,0.1140812946,-0.1277490465
2.51,0.108723293,-0.1322887247
2.52,0.1031781175,-0.1365984603
2.53,0.09745601196,-0.1406701616
2.54,0.09156759021,-0.1444962179
2.55,0.08552381203,-0.1480695173
2.56,0.07933595815,-0.1513834636
2.57,0.07301560441,-0.1544319913
2.58,0.06657459516,-0.1572095798
2.59,0.06002501597,-0.1597112658
2.6,0.05337916567,-0.1619326544
2.61,0.04664952796,-0.1638699288
2.62,0.03984874251,-0.1655198578
2.63,0.0329895757,-0.1668798031
2.64,0.02608489111,-0.1679477238
2.65,0.01914761984,-0.1687221796
2.66,0.01219073069,-0.1692023332
2.67,0.005227200374,-0.1693879501
2.68,-0.001730016235,-0.1692793974
2.69,-0.008668015636,-0.1688776409
2.7,-0.01557397503,-0.1681842408
2.71,-0.02243518128,-0.1672013457
2.72,-0.02923905946,-0.1659316851
2.73,-0.03597320092,-0.1643785607
2.74,-0.04262539075,-0.1625458357
2.75,-0.04918363458,-0.1604379235
2.76,-0.05563618464,-0.1580597741
2.77,-0.06197156507,-0.1554168604
2.78,-0.06817859628,-0.1525151619
2.79,-0.07424641842,-0.1493611481
2.8,-0.08016451382,-0.1459617608
2.81,-0.08592272841,-0.1423243945
2.82,-0.09151129194,-0.1384568767
2.83,-0.09692083716,-0.1343674468
2.84,-0.1021424177,-0.1300647341
2.85,-0.1071675247,-0.1255577354
2.86,-0.1119881021,-0.120855791
2.87,-0.1165965609,-0.1159685611
2.88,-0.1209857917,-0.1109060012
2.89,-0.1251491759,-0.1056783365
2.9,-0.1290805958,-0.1002960367
2.91,-0.1327744432,-0.09476978995
2.92,-0.1362256263,-0.08911047675
2.93,-0.1394295755,-0.08332914361
2.94,-0.1423822476,-0.07743697663
2.95,-0.1450801287,-0.07144527504
2.96,-0.147520236,-0.06536542487
2.97,-0.1497001171,-0.05920887271
2.98,-0.1516178497,-0.0529870997
2.99,-0.153272038,-0.04671159583
3,-0.1546618098,-0.0403938346
3.01,-0.1557868103,-0.0340452481
3.02,-0.1566471962,-0.02767720261
3.03,-0.157243628,-0.0213009748
3.04,-0.1575772612,-0.01492772849
3.05,-0.157649736,-0.008568492146
3.06,-0.1574631668,-0.002234137159
3.07,-0.1570201297,0.00406464316
3.08,-0.1563236502,0.01031735368
3.09,-0.1553771884,0.01651371665
3.1,-0.1541846253,0.02264369003
3.11,-0.1527502464,0.02869748476
3.12,-0.1510787263,0.0346655811
3.13,-0.1491751112,0.04053874391
3.14,-0.147044802,0.04630803683
3.15,-0.1446935359,0.05196483549
3.16,-0.1421273684,0.05750083949
3.17,-0.1393526543,0.0629080834
3.18,-0.1363760286,0.06817894654
3.19,-0.1332043873,0.07330616171
3.2,-0.129844868,0.07828282279
3.21,-0.1263048298,0.08310239123
3.22,-0.1225918344,0.08775870138
3.23,-0.1187136255,0.09224596482
3.24,-0.1146781101,0.09655877358
3.25,-0.1104933387,0.1006921022
3.26,-0.106167486,0.1046413091
3.27,-0.101708832,0.1084021364
3.28,-0.09712574347,0.1119707092
3.29,-0.09242665536,0.1153435339
3.3,-0.08762005324,0.1185174953
3.31,-0.08271445566,0.1214898531
3.32,-0.07771839727,0.1242582378
3.33,-0.07264041241,0.126820645
3.34,-0.06748901932,0.12917543
3.35,-0.06227270492,0.1313213007
3.36,-0.05699991023,0.1332573111
3.37,-0.05167901648,0.1349828525
3.38,-0.0463183319,0.1364976461
3.39,-0.04092607921,0.1378017334
3.4,-0.03551038383,0.1388954674
3.41,-0.03007926288,0.1397795025
3.42,-0.02464061482,0.140454785
3.43,-0.01920220997,0.1409225424
3.44,-0.01377168164,0.1411842728
3.45,-0.008356518147,0.1412417346
3.46,-0.002964055492,0.1410969355
3.47,0.002398529214,0.1407521215
3.48,0.007724223586,0.1402097661
3.49,0.01300618509,0.1394725592
3.5,0.0182377455,0.1385433965
3.51,0.02341241463,0.1374253686
3.52,0.02852388351,0.1361217502
3.53,0.03356602682,0.1346359902
3.54,0.03853290486,0.1329717011
3.55,0.04341876483,0.1311326489
3.56,0.04821804166,0.129122744
3.57,0.05292535833,0.1269460314
3.58,0.05753552567,0.1246066818
3.59,0.06204354182,0.1221089829
3.6,0.06644459122,0.1194573313
3.61,0.07073404329,0.1166562246
3.62,0.0749074508,0.1137102536
3.63,0.07896054793,0.1106240959
3.64,0.08288924814,0.1074025086
3.65,0.08668964181,0.1040503228
3.66,0.09035799376,0.1005724373
3.67,0.09389074063,0.09697381365
3.68,0.09728448816,0.09325947129
3.69,0.1005360085,0.08943448291
3.7,0.1036422375,0.08550397059
3.71,0.1066002718,0.08147310214
3.72,0.1094073666,0.07734708789
3.73,0.1120609327,0.07313117778
3.74,0.1145585343,0.06883065894
3.75,0.1168978869,0.06445085341
3.76,0.1190768548,0.05999711633
3.77,0.1210934496,0.05547483434
3.78,0.1229458286,0.05088942419
3.79,0.1246322933,0.04624633165
3.8,0.126151288,0.04155103055
3.81,0.1275013998,0.03680902205
3.82,0.128681357,0.03202583391
3.83,0.1296900299,0.02720702
3.84,0.1305264303,0.02235815979
3.85,0.1311897118,0.01748485786
3.86,0.1316791713,0.0125927434
3.87,0.1319942489,0.007687469741
3.88,0.1321345303,0.002774713697
3.89,0.1320997478,-0.00213982513
3.9,0.1318897827,-0.007050425211
3.91,0.1315046669,-0.01195134413
3.92,0.1309445861,-0.01683681984
3.93,0.1302098822,-0.02170107211
3.94,0.1293010561,-0.02653830435
3.95,0.1282187712,-0.03134270555
3.96,0.1269638565,-0.03610845273
3.97,0.1255373105,-0.0408297136
3.98,0.1239403042,-0.04550064964
3.99,0.1221741854,-0.05011541953
4,0.1202404821,-0.054668183
4.01,0.1181409068,-0.0591531051
4.02,0.1158773596,-0.06356436087
4.03,0.1134519328,-0.06789614045
4.04,0.1108669138,-0.07214265464
4.05,0.1081247894,-0.07629814089
4.06,0.1052282486,-0.08035686976
4.07,0.1021801864,-0.08431315178
4.08,0.09898370653,-0.08816134477
4.09,0.09564212409,-0.09189586163
4.1,0.09215896829,-0.09551117844
4.11,0.08853798437,-0.09900184311
4.12,0.08478313539,-0.1023624843
4.13,0.08089860355,-0.1055878207
4.14,0.07688879105,-0.1086726709
4.15,0.0727583205,-0.1116119633
4.16,0.06851203479,-0.1144007461
4.17,0.06415499645,-0.1170341984
4.18,0.05969248642,-0.1195076409
4.19,0.05513000222,-0.1218165465
4.2,0.05047325554,-0.1239565519
4.21,0.04572816913,-0.1259234689
4.22,0.04090087308,-0.1277132954
4.23,0.03599770039,-0.1293222273
4.24,0.03102518192,-0.1307466699
4.25,0.02599004052,-0.1319832489
4.26,0.02089918455,-0.1330288222
4.27,0.01575970068,-0.1338804909
4.28,0.0105788459,-0.1345356103
4.29,0.005364038906,-0.1349918008
4.3,0.0001228507039,-0.1352469584
4.31,-0.005137005433,-0.1352992647
4.32,-0.01040768474,-0.1351471973
4.33,-0.01568122242,-0.1347895385
4.34,-0.02094954569,-0.1342253849
4.35,-0.02620448661,-0.1334541555
4.36,-0.03143779538,-0.1324755998
4.37,-0.03664115434,-0.1312898051
4.38,-0.04180619249,-0.1298972031
4.39,-0.04692450052,-0.1282985763
4.4,-0.05198764641,-0.1264950627
4.41,-0.05698719144,-0.1244881607
4.42,-0.06191470659,-0.1222797332
4.43,-0.06676178943,-0.11987201
4.44,-0.0715200812,-0.1172675901
4.45,-0.07618128431,-0.1144694431
4.46,-0.08073718002,-0.1114809094
4.47,-0.08517964627,-0.1083056999
4.48,-0.08950067575,-0.1049478939
4.49,-0.09369239396,-0.1014119373
4.5,-0.09774707735,-0.09770263882
4.51,-0.1016571714,-0.09382516555
4.52,-0.1054153088,-0.08978503782
4.53,-0.109014327,-0.08558812266
4.54,-0.1124472863,-0.08124062652
4.55,-0.1157074869,-0.07674908697
4.56,-0.1187884864,-0.07212036337
4.57,-0.1216841163,-0.06736162669
4.58,-0.1243884984,-0.06248034832
4.59,-0.1268960609,-0.05748428796
4.6,-0.1292015533,-0.05238148065
4.61,-0.1313000614,-0.04718022291
4.62,-0.1331870216,-0.04188905802
4.63,-0.1348582339,-0.0365167605
4.64,-0.1363098748,-0.03107231984
4.65,-0.1375385094,-0.02556492346
4.66,-0.138541102,-0.02000393897
4.67,-0.1393150267,-0.01439889579
4.68,-0.1398580765,-0.008759466194
4.69,-0.1401684719,-0.003095445725
4.7,-0.1402448679,0.00258326683
4.71,-0.1400863604,0.00826668995
4.72,-0.1396924918,0.01394478028
4.73,-0.1390632552,0.01960745389
4.74,-0.1381990971,0.02524460777
4.75,-0.13710092,0.0308461416
4.76,-0.1357700832,0.03640197967
4.77,-0.1342084023,0.04190209284
4.78,-0.1324181481,0.04733652066
4.79,-0.1304020444,0.05269539334
4.8,-0.1281632638,0.05796895369
4.81,-0.1257054234,0.06314757895
4.82,-0.1230325786,0.06822180228
4.83,-0.1201492163,0.07318233411
4.84,-0.1170602469,0.07802008308
4.85,-0.1137709946,0.08272617657
4.86,-0.1102871878,0.08729198082
4.87,-0.1066149472,0.09170912048
4.88,-0.1027607738,0.09596949762
4.89,-0.09873153549,0.1000653101
4.9,-0.09453445303,0.1039890692
4.91,-0.09017708454,0.1077336167
4.92,-0.08566730972,0.1112921409
4.93,-0.08101331295,0.1146581919
4.94,-0.07622356568,0.1178256963
4.95,-0.07130680809,0.1207889705
4.96,-0.06627203007,0.1235427333
4.97,-0.06112845159,0.1260821176
4.98,-0.05588550248,0.128402681
4.99,-0.05055280175,0.130500415
5,-0.04514013636,0.1323717539
5.01,-0.03965743973,0.1340135817
5.02,-0.03411476981,0.1354232385
5.03,-0.02852228694,0.1365985257
5.04,-0.02289023145,0.1375377096
5.05,-0.0172289012,0.1382395246
5.06,-0.01154862897,0.1387031744
5.07,-0.005859759844,0.1389283329
5.08,-0.0001726286513,0.1389151431
5.09,0.005502462476,0.1386642155
5.1,0.01115526639,0.138176625
5.11,0.01677561299,0.1374539068
5.12,0.02235343096,0.1364980515
5.13,0.0278787692,0.1353114982
5.14,0.03334181782,0.1338971276
5.15,0.03873292868,0.1322582535
5.16,0.04404263538,0.1303986132
5.17,0.04926167279,0.1283223576
5.18,0.0543809958,0.1260340391
5.19,0.05939179752,0.1235386001
5.2,0.06428552675,0.1208413596
5.21,0.06905390464,0.1179479993
5.22,0.07368894062,0.1148645489
5.23,0.07818294748,0.1115973709
5.24,0.08252855556,0.1081531443
5.25,0.08671872608,0.1045388481
5.26,0.09074676349,0.100761744
5.27,0.09460632696,0.09682935846
5.28,0.09829144083,0.09274946466
5.29,0.1017965041,0.08853006379
5.3,0.1051162988,0.08417936602
5.31,0.1082459976,0.07970577126
5.32,0.1111811703,0.07511784961
5.33,0.1139177891,0.07042432163
5.34,0.1164522327,0.06563403859
5.35,0.1187812905,0.06075596248
5.36,0.120902164,0.05579914617
5.37,0.1228124687,0.05077271351
5.38,0.124510234,0.04568583961
5.39,0.1259939032,0.04054773116
5.4,0.1272623308,0.03536760712
5.41,0.128314781,0.03015467947
5.42,0.1291509233,0.02491813442
5.43,0.1297708288,0.01966711391
5.44,0.130174964,0.01441069748
5.45,0.1303641855,0.009157884617
5.46,0.1303397325,0.003917577593
5.47,0.1301032194,-0.001301435233
5.48,0.1296566269,-0.006490495503
5.49,0.1290022929,-0.01164109039
5.5,0.128142903,-0.01674486748
5.51,0.1270814795,-0.02179364906
5.52,0.1258213707,-0.02677944565
5.53,0.1243662388,-0.0316944689
5.54,0.1227200485,-0.03653114374
5.55,0.1208870537,-0.0412821198
5.56,0.118871785,-0.04594028208
5.57,0.1166790361,-0.05049876086
5.58,0.1143138504,-0.05495094077
5.59,0.1117815069,-0.05929046924
5.6,0.109087506,-0.06351126395
5.61,0.1062375553,-0.06760751969
5.62,0.1032375553,-0.07157371432
5.63,0.1000935846,-0.07540461397
5.64,0.09681188541,-0.0790952775
5.65,0.09339884897,-0.0826410602
5.66,0.08986100107,-0.08603761666
5.67,0.0862049875,-0.08928090298
5.68,0.08243755975,-0.09236717827
5.69,0.07856556081,-0.09529300536
5.7,0.07459591117,-0.0980552509
5.71,0.07053559502,-0.1006510848
5.72,0.06639164676,-0.1030779789
5.73,0.06217113776,-0.1053337054
5.74,0.05788116344,-0.1074163341
5.75,0.05352883068,-0.1093242297
5.76,0.04912124561,-0.1110560479
5.77,0.04466550177,-0.1126107321
5.78,0.04016866873,-0.1139875081
5.79,0.03563778103,-0.1151858799
5.8,0.03107982766,-0.1162056239
5.81,0.02650174191,-0.1170467833
5.82,0.02191039176,-0.1177096623
5.83,0.01731257067,-0.1181948196
5.84,0.0127149889,-0.1185030618
5.85,0.008124265239,-0.1186354366
5.86,0.003546919322,-0.1185932257
5.87,-0.001010635677,-0.1183779375
5.88,-0.005542099811,-0.1179912999
5.89,-0.01004129267,-0.1174352528
5.9,-0.0145021592,-0.1167119401
5.91,-0.01891877513,-0.1158237028
5.92,-0.02328535183,-0.1147730707
5.93,-0.02759624084,-0.113562755
5.94,-0.03184593792,-0.1121956406
5.95,-0.03602908666,-0.1106747785
5.96,-0.04014048179,-0.1090033784
5.97,-0.04417507195,-0.107184801
5.98,-0.04812796229,-0.1052225507
5.99,-0.05199441653,-0.1031202687
6,-0.05576985883,-0.1008817256
