"Freq [GHz]","re(S(Tx_p1,Tx_p1)) []","im(S(Tx_p1,Tx_p1)) []"
1,-0.03866744855,-0.07417823607
1.01,-0.04152613495,-0.07255577812
1.02,-0.04432614843,-0.07081867351
1.03,-0.04706243436,-0.06896893425
1.04,-0.04973002991,-0.06700880245
1.05,-0.05232407245,-0.06494074444
1.06,-0.05483980765,-0.06276744466
1.07,-0.05727259728,-0.06049179959
1.08,-0.05961792664,-0.0581169116
1.09,-0.06187141183,-0.0556460827
1.1,-0.06402880666,-0.05308280835
1.11,-0.0660860094,-0.05043077107
1.12,-0.06803906926,-0.04769383414
1.13,-0.06988419271,-0.04487603515
1.14,-0.07161774957,-0.04198157956
1.15,-0.07323627896,-0.03901483415
1.16,-0.07473649503,-0.0359803204
1.17,-0.07611529266,-0.03288270784
1.18,-0.07736975284,-0.02972680722
1.19,-0.07849714806,-0.02651756367
1.2,-0.07949494753,-0.02326004969
1.21,-0.08036082217,-0.01995945801
1.22,-0.08109264965,-0.01662109436
1.23,-0.08168851913,-0.01325037003
1.24,-0.08214673597,-0.009852794298
1.25,-0.08246582623,-0.006433966653
1.26,-0.08264454111,-0.002999568862
1.27,-0.08268186111,0.0004446431966
1.28,-0.08257700014,0.003892847911
1.29,-0.08232940936,0.00733916653
1.3,-0.08193878086,0.010777672
1.31,-0.08140505109,0.01420239803
1.32,-0.08072840413,0.01760734843
1.33,-0.07990927459,0.0209865067
1.34,-0.07894835032,0.02433384582
1.35,-0.07784657475,0.02764333839
1.36,-0.076605149,0.03090896694
1.37,-0.07522553351,0.03412473455
1.38,-0.07370944939,0.03728467567
1.39,-0.07205887933,0.04038286722
1.4,-0.07027606808,0.04341343987
1.41,-0.0683635225,0.04637058958
1.42,-0.06632401104,0.04924858928
1.43,-0.06416056286,0.0520418008
1.44,-0.06187646629,0.05474468685
1.45,-0.05947526674,0.05735182329
1.46,-0.05696076416,0.05985791131
1.47,-0.05433700972,0.06225778986
1.48,-0.051608302,0.06454644802
1.49,-0.04877918246,0.06671903744
1.5,-0.04585443034,0.06877088471
1.51,-0.04283905679,0.07069750372
1.52,-0.03973829838,0.07249460786
1.53,-0.03655760996,0.07415812217
1.54,-0.03330265668,0.07568419518
1.55,-0.02997930549,0.07706921065
1.56,-0.0265936158,0.07830979898
1.57,-0.02315182955,0.07940284827
1.58,-0.01966036047,0.08034551509
1.59,-0.01612578278,0.0811352348
1.6,-0.01255481915,0.0817697314
1.61,-0.008954328014,0.08224702691
1.62,-0.005331290269,0.08256545021
1.63,-0.001692795364,0.0827236452
1.64,0.001953973214,0.08272057847
1.65,0.005601752994,0.08255554612
1.66,0.009243218097,0.08222818001
1.67,0.0128709953,0.08173845311
1.68,0.01647768054,0.08108668418
1.69,0.02005585583,0.08027354149
1.7,0.02359810652,0.07930004576
1.71,0.02709703887,0.07816757212
1.72,0.03054529792,0.07687785123
1.73,0.03393558547,0.07543296936
1.74,0.03726067832,0.07383536754
1.75,0.04051344653,0.07208783969
1.76,0.04368687175,0.07019352977
1.77,0.04677406552,0.06815592789
1.78,0.04976828743,0.06597886538
1.79,0.05266296325,0.06366650884
1.8,0.05545170272,0.06122335322
1.81,0.05812831712,0.05865421374
1.82,0.06068683653,0.05596421695
1.83,0.06312152663,0.05315879068
1.84,0.06542690505,0.05024365307
1.85,0.06759775725,0.04722480059
1.86,0.06962915171,0.04410849517
1.87,0.0715164546,0.04090125043
1.88,0.0732553436,0.03760981698
1.89,0.07484182107,0.03424116697
1.9,0.07627222641,0.03080247781
1.91,0.07754324746,0.02730111512
1.92,0.07865193107,0.02374461506
1.93,0.07959569272,0.02014066596
1.94,0.08037232508,0.0164970894
1.95,0.08098000557,0.0128218207
1.96,0.08141730287,0.009122889076
1.97,0.08168318229,0.005408397222
1.98,0.08177701004,0.001686500704
1.99,0.08169855632,-0.002034613001
2,0.08144799728,-0.005746745639
2.01,0.0810259158,-0.009441709443
2.02,0.08043330099,-0.01311134847
2.03,0.07967154666,-0.01674755989
2.04,0.0787424484,-0.02034231527
2.05,0.07764819967,-0.0238876816
2.06,0.07639138653,-0.02737584215
2.07,0.07497498131,-0.03079911706
2.08,0.07340233512,-0.0341499835
2.09,0.07167716921,-0.03742109538
2.1,0.06980356521,-0.04060530267
2.11,0.06778595436,-0.04369567002
2.12,0.06562910572,-0.04668549481
2.13,0.06333811325,-0.04956832453
2.14,0.06091838215,-0.05233797334
2.15,0.05837561414,-0.05498853787
2.16,0.05571579194,-0.0575144122
2.17,0.05294516297,-0.05991030181
2.18,0.05007022232,-0.06217123672
2.19,0.04709769497,-0.06429258355
2.2,0.04403451747,-0.06627005656
2.21,0.04088781903,-0.06809972766
2.22,0.03766490213,-0.06977803528
2.23,0.03437322269,-0.07130179218
2.24,0.03102036992,-0.07266819206
2.25,0.02761404585,-0.07387481508
2.26,0.02416204469,-0.07491963213
2.27,0.02067223199,-0.07580100805
2.28,0.01715252382,-0.07651770355
2.29,0.01361086581,-0.07706887604
2.3,0.01005521242,-0.07745407927
2.31,0.006493506211,-0.07767326181
2.32,0.002933657419,-0.07772676443
2.33,-0.0006164762691,-0.07761531627
2.34,-0.004149109561,-0.07734003005
2.35,-0.007656549019,-0.0769023961
2.36,-0.01113121206,-0.0763042754
2.37,-0.01456564543,-0.07554789163
2.38,-0.01795254314,-0.07463582222
2.39,-0.02128476371,-0.07357098856
2.4,-0.0245553468,-0.07235664523
2.41,-0.02775752911,-0.07099636848
2.42,-0.0308847595,-0.0694940439
2.43,-0.03393071328,-0.06785385339
2.44,-0.03688930577,-0.06608026143
2.45,-0.03975470484,-0.06417800075
2.46,-0.0425213427,-0.06215205747
2.47,-0.04518392667,-0.06000765567
2.48,-0.04773744903,-0.05775024161
2.49,-0.05017719599,-0.0553854675
2.5,-0.05249875557,-0.052919175
2.51,-0.05469802463,-0.05035737843
2.52,-0.0567712148,-0.04770624779
2.53,-0.05871485757,-0.04497209168
2.54,-0.06052580826,-0.04216134004
2.55,-0.06220124918,-0.03928052704
2.56,-0.06373869167,-0.03633627379
2.57,-0.06513597737,-0.03333527135
2.58,-0.06639127841,-0.03028426372
2.59,-0.06750309686,-0.02719003115
2.6,-0.06847026313,-0.0240593736
2.61,-0.0692919337,-0.02089909456
2.62,-0.0699675879,-0.01771598518
2.63,-0.07049702399,-0.01451680876
2.64,-0.0708803544,-0.0113082857
2.65,-0.07111800036,-0.008097078898
2.66,-0.07121068579,-0.004889779603
2.67,-0.07115943055,-0.001692893824
2.68,-0.07096554313,0.00148717073
2.69,-0.07063061278,0.004644117129
2.7,-0.07015650108,0.007771771121
2.71,-0.06954533315,0.01086409241
2.72,-0.0687994883,0.0139151853
2.73,-0.06792159043,0.01691930875
2.74,-0.066914498,0.0198708857
2.75,-0.0657812938,0.02276451182
2.76,-0.06452527436,0.02559496359
2.77,-0.06314993926,0.02835720567
2.78,-0.06165898022,0.03104639773
2.79,-0.06005627007,0.03365790052
2.8,-0.05834585166,0.03618728139
2.81,-0.05653192669,0.03863031912
2.82,-0.05461884454,0.04098300821
2.83,-0.05261109115,0.04324156251
2.84,-0.05051327791,0.04540241828
2.85,-0.04833013066,0.04746223674
2.86,-0.0460664788,0.04941790603
2.87,-0.04372724454,0.05126654266
2.88,-0.04131743229,0.05300549246
2.89,-0.03884211826,0.05463233109
2.9,-0.03630644029,0.05614486407
2.91,-0.03371558781,0.0575411264
2.92,-0.03107479211,0.05881938177
2.93,-0.02838931686,0.05997812143
2.94,-0.02566444883,0.06101606268
2.95,-0.02290548892,0.06193214708
2.96,-0.02011774346,0.06272553832
2.97,-0.01730651574,0.06339561987
2.98,-0.01447709787,0.06394199233
2.99,-0.01163476289,0.06436447064
3,-0.008784757148,0.06466308097
3.01,-0.005932292943,0.06483805759
3.02,-0.003082541462,0.06488983945
3.03,-0.0002406259374,0.06481906666
3.04,0.002588384925,0.06462657693
3.05,0.005399483288,0.06431340173
3.06,0.008187728291,0.0638807626
3.07,0.01094825194,0.06333006714
3.08,0.01367626479,0.0626629051
3.09,0.01636706146,0.06188104438
3.1,0.01901602588,0.06098642691
3.11,0.0216186365,0.05998116461
3.12,0.02417047124,0.05886753519
3.13,0.0266672123,0.05764797801
3.14,0.02910465093,0.05632508987
3.15,0.03147869197,0.05490162075
3.16,0.03378535831,0.05338046955
3.17,0.03602079532,0.05176467981
3.18,0.03818127511,0.05005743529
3.19,0.04026320076,0.04826205564
3.2,0.0422631104,0.04638199191
3.21,0.04417768137,0.04442082206
3.22,0.04600373417,0.04238224636
3.23,0.04773823641,0.04027008273
3.24,0.04937830677,0.03808826201
3.25,0.05092121878,0.03584082309
3.26,0.05236440467,0.03353190796
3.27,0.05370545906,0.03116575663
3.28,0.05494214268,0.02874670191
3.29,0.05607238597,0.02627916407
3.3,0.05709429263,0.02376764531
3.31,0.05800614307,0.02121672412
3.32,0.05880639782,0.01863104942
3.33,0.05949370079,0.0160153345
3.34,0.06006688244,0.01337435087
3.35,0.06052496286,0.01071292181
3.36,0.06086715459,0.008035915751
3.37,0.06109286548,0.005348239471
3.38,0.06120170118,0.00265483105
3.39,0.06119346756,-3.934736921E-05
3.4,0.0610681729,-0.002729317038
3.41,0.0608260298,-0.005410090274
3.42,0.06046745695,-0.00807667834
3.43,0.05999308049,-0.01072409952
3.44,0.0594037352,-0.01334738741
3.45,0.05870046532,-0.01594159937
3.46,0.05788452508,-0.01850182519
3.47,0.05695737885,-0.02102319589
3.48,0.05592070091,-0.02350089271
3.49,0.05477637489,-0.02593015618
3.5,0.05352649275,-0.02830629538
3.51,0.05217335337,-0.03062469725
3.52,0.05071946066,-0.03288083601
3.53,0.0491675213,-0.0350702826
3.54,0.04752044188,-0.03718871419
3.55,0.04578132569,-0.03923192369
3.56,0.04395346894,-0.04119582924
3.57,0.04204035652,-0.04307648359
3.58,0.04004565721,-0.04487008355
3.59,0.03797321842,-0.04657297913
3.6,0.03582706041,-0.04818168275
3.61,0.03361136995,-0.04969287811
3.62,0.0313304935,-0.05110342893
3.63,0.0289889299,-0.05241038747
3.64,0.0265913225,-0.05361100271
3.65,0.02414245082,-0.05470272831
3.66,0.02164722173,-0.05568323015
3.67,0.01911066012,-0.05655039357
3.68,0.01653789919,-0.05730233012
3.69,0.01393417016,-0.05793738398
3.7,0.01130479172,-0.05845413783
3.71,0.008655158956,-0.05885141825
3.72,0.005990731964,-0.0591283006
3.73,0.003317024086,-0.05928411333
3.74,0.0006395898502,-0.05931844173
3.75,-0.002035987396,-0.05923113105
3.76,-0.004704108097,-0.059022289
3.77,-0.007359169329,-0.05869228762
3.78,-0.009995577819,-0.05824176447
3.79,-0.01260776312,-0.05767162311
3.8,-0.01519019087,-0.05698303291
3.81,-0.01773737617,-0.05617742819
3.82,-0.02024389692,-0.05525650651
3.83,-0.0227044072,-0.05422222641
3.84,-0.02511365055,-0.05307680427
3.85,-0.02746647319,-0.05182271051
3.86,-0.02975783704,-0.05046266507
3.87,-0.03198283261,-0.04899963214
3.88,-0.0341366916,-0.04743681415
3.89,-0.03621479927,-0.04577764511
3.9,-0.03821270646,-0.04402578323
3.91,-0.04012614128,-0.04218510284
3.92,-0.04195102034,-0.04025968567
3.93,-0.04368345962,-0.03825381153
3.94,-0.04531978475,-0.03617194827
3.95,-0.04685654087,-0.03401874126
3.96,-0.0482905019,-0.0317990023
3.97,-0.04961867915,-0.02951769791
3.98,-0.05083832944,-0.02717993724
3.99,-0.05194696242,-0.02479095943
4,-0.05294234733,-0.02235612064
4.01,-0.05382251897,-0.01988088065
4.02,-0.05458578297,-0.01737078906
4.03,-0.0552307203,-0.01483147135
4.04,-0.05575619105,-0.01226861454
4.05,-0.05616133732,-0.009687952722
4.06,-0.05644558543,-0.007095252407
4.07,-0.05660864725,-0.00449629777
4.08,-0.05665052074,-0.001896875823
4.09,-0.05657148966,0.0006972384254
4.1,-0.0563721225,0.00328029678
4.11,-0.05605327052,0.005846592586
4.12,-0.05561606505,0.008390475333
4.13,-0.05506191395,0.01090636508
4.14,-0.05439249732,0.01338876665
4.15,-0.05360976238,0.01583228357
4.16,-0.05271591762,0.01823163171
4.17,-0.05171342626,0.02058165251
4.18,-0.05060499888,0.02287732586
4.19,-0.04939358548,0.0251137825
4.2,-0.04808236685,0.02728631602
4.21,-0.04667474522,0.02939039419
4.22,-0.04517433445,0.03142166991
4.23,-0.04358494957,0.03337599142
4.24,-0.04191059583,0.03524941203
4.25,-0.04015545722,0.03703819909
4.26,-0.03832388461,0.03873884236
4.27,-0.03642038343,0.04034806164
4.28,-0.03444960102,0.04186281374
4.29,-0.03241631363,0.04328029864
4.3,-0.03032541319,0.044597965
4.31,-0.02818189383,0.0458135148
4.32,-0.02599083817,0.04692490729
4.33,-0.02375740358,0.04793036217
4.34,-0.02148680828,0.04882836193
4.35,-0.01918431737,0.04961765344
4.36,-0.01685522896,0.05029724883
4.37,-0.01450486023,0.05086642545
4.38,-0.0121385337,0.05132472526
4.39,-0.009761563568,0.0516719533
4.4,-0.007379242218,0.05190817552
4.41,-0.004996827003,0.05203371585
4.42,-0.002619527253,0.05204915263
4.43,-0.0002524915983,0.05195531423
4.44,0.002099204373,0.05175327418
4.45,0.004430570082,0.05144434553
4.46,0.006736711512,0.0510300747
4.47,0.009012842337,0.05051223469
4.48,0.01125429456,0.0498928178
4.49,0.01345652868,0.0491740278
4.5,0.01561514332,0.04835827166
4.51,0.0177258843,0.04744815081
4.52,0.01978465321,0.04644645203
4.53,0.02178751531,0.04535613792
4.54,0.02373070691,0.04418033709
4.55,0.0256106421,0.04292233407
4.56,0.02742391888,0.0415855589
4.57,0.02916732468,0.04017357659
4.58,0.03083784122,0.03869007635
4.59,0.03243264875,0.0371388607
4.6,0.03394912964,0.03552383452
4.61,0.03538487143,0.03384899397
4.62,0.03673766912,0.03211841547
4.63,0.03800552696,0.03033624462
4.64,0.03918665955,0.02850668523
4.65,0.04027949242,0.02663398844
4.66,0.04128266199,0.02472244188
4.67,0.04219501494,0.02277635907
4.68,0.04301560708,0.02080006895
4.69,0.04374370168,0.01879790566
4.7,0.0443787673,0.0167741985
4.71,0.04492047507,0.01473326222
4.72,0.04536869562,0.01267938752
4.73,0.04572349545,0.01061683195
4.74,0.045985133,0.008549811037
4.75,0.04615405428,0.006482489843
4.76,0.04623088809,0.004418974833
4.77,0.04621644104,0.002363306131
4.78,0.04611169213,0.0003194501687
4.79,0.04591778716,-0.001708707275
4.8,0.0456360328,-0.003717367634
4.81,0.04526789055,-0.005702825701
4.82,0.04481497038,-0.007661475357
4.83,0.04427902433,-0.009589814901
4.84,0.04366193991,-0.01148445194
4.85,0.04296573337,-0.0133421079
4.86,0.04219254295,-0.01515962209
4.87,0.04134462203,-0.01693395539
4.88,0.04042433225,-0.01866219353
4.89,0.03943413663,-0.02034154997
4.9,0.03837659269,-0.02196936844
4.91,0.03725434563,-0.02354312505
4.92,0.0360701215,-0.02506043011
4.93,0.03482672052,-0.02651902954
4.94,0.03352701044,-0.027916806
4.95,0.03217392,-0.02925177968
4.96,0.03077043251,-0.0305221088
4.97,0.02931957961,-0.03172608985
4.98,0.02782443508,-0.0328621575
4.99,0.02628810889,-0.03392888429
5,0.02471374136,-0.03492498014
5.01,0.02310449747,-0.03584929156
5.02,0.0214635614,-0.03670080071
5.03,0.01979413121,-0.03747862425
5.04,0.01809941367,-0.03818201207
5.05,0.01638261933,-0.03881034579
5.06,0.01464695771,-0.03936313722
5.07,0.01289563274,-0.03984002665
5.08,0.01113183827,-0.04024078098
5.09,0.009358753858,-0.04056529193
5.1,0.00757954066,-0.04081357394
5.11,0.005797337502,-0.04098576223
5.12,0.004015257105,-0.04108211064
5.13,0.002236382463,-0.04110298952
5.14,0.0004637633568,-0.04104888354
5.15,-0.001299586996,-0.04092038949
5.16,-0.00305069517,-0.04071821407
5.17,-0.004786630639,-0.04044317164
5.18,-0.006504508782,-0.04009618199
5.19,-0.008201493792,-0.0396782681
5.2,-0.009874801487,-0.03919055386
5.21,-0.01152170205,-0.03863426186
5.22,-0.01313952271,-0.0380107111
5.23,-0.01472565033,-0.03732131481
5.24,-0.01627753394,-0.03656757812
5.25,-0.01779268731,-0.03575109584
5.26,-0.01926869135,-0.03487355025
5.27,-0.02070319655,-0.03393670873
5.28,-0.02209392545,-0.03294242156
5.29,-0.02343867494,-0.03189261958
5.3,-0.02473531872,-0.03078931184
5.31,-0.02598180957,-0.02963458325
5.32,-0.02717618177,-0.02843059218
5.33,-0.02831655341,-0.02717956795
5.34,-0.02940112872,-0.0258838084
5.35,-0.03042820038,-0.02454567722
5.36,-0.03139615188,-0.02316760135
5.37,-0.03230345978,-0.02175206824
5.38,-0.03314869603,-0.02030162303
5.39,-0.03393053021,-0.0188188656
5.4,-0.03464773179,-0.0173064476
5.41,-0.03529917237,-0.01576706929
5.42,-0.03588382781,-0.01420347631
5.43,-0.03640078041,-0.01261845627
5.44,-0.03684922097,-0.01101483531
5.45,-0.03722845079,-0.009395474413
5.46,-0.03753788365,-0.007763265672
5.47,-0.03777704765,-0.006121128364
5.48,-0.03794558695,-0.004472004905
5.49,-0.03804326347,-0.002818856655
5.5,-0.03806995838,-0.001164659579
5.51,-0.03802567354,0.0004876002291
5.52,-0.03791053272,0.002134931171
5.53,-0.03772478271,0.003774340898
5.54,-0.03746879425,0.0054028412
5.55,-0.03714306275,0.007017453025
5.56,-0.03674820883,0.008615211614
5.57,-0.03628497868,0.01019317175
5.58,-0.0357542441,0.01174841312
5.59,-0.03515700242,0.01327804574
5.6,-0.03449437611,0.01477921552
5.61,-0.03376761212,0.01624910983
5.62,-0.03297808098,0.01768496316
5.63,-0.03212727563,0.01908406284
5.64,-0.03121680993,0.02044375472
5.65,-0.03024841691,0.02176144897
5.66,-0.02922394667,0.02303462574
5.67,-0.02814536408,0.02426084089
5.68,-0.02701474601,0.02543773167
5.69,-0.02583427842,0.02656302228
5.7,-0.024606253,0.02763452941
5.71,-0.02333306354,0.02865016765
5.72,-0.02201720207,0.02960795479
5.73,-0.02066125452,0.03050601696
5.74,-0.01926789623,0.0313425936
5.75,-0.01783988708,0.03211604235
5.76,-0.01638006634,0.03282484353
5.77,-0.01489134725,0.03346760464
5.78,-0.01337671129,0.03404306441
5.79,-0.01183920222,0.03455009675
5.8,-0.01028191983,0.03498771428
5.81,-0.008708013536,0.03535507168
5.82,-0.007120675612,0.03565146865
5.83,-0.005523134352,0.03587635257
5.84,-0.003918646969,0.03602932081
5.85,-0.002310492338,0.03611012265
5.86,-0.0007019636051,0.03611866088
5.87,0.0009036393508,0.03605499298
5.88,0.00250301755,0.03591933188
5.89,0.004092880634,0.03571204637
5.9,0.005669954641,0.03543366107
5.91,0.007230989827,0.03508485594
5.92,0.008772768485,0.03466646546
5.93,0.01029211276,0.03417947728
5.94,0.01178589241,0.03362503051
5.95,0.01325103254,0.03300441356
5.96,0.01468452117,0.03231906153
5.97,0.01608341677,0.03157055324
5.98,0.01744485559,0.03076060777
5.99,0.01876605886,0.02989108063
6,0.02004433974,0.02896395953
