"Freq [GHz]","re(S(Tx_p1,Tx_p1)) []","im(S(Tx_p1,Tx_p1)) []"
3,0.006454867977,0.01628556109
3.014,0.009298393752,0.01479321054
3.028,0.01181451172,0.01281142758
3.042,0.01392035215,0.01040947549
3.056,0.0155473036,0.007670378153
3.07,0.01664324354,0.004688047748
3.084,0.01717420068,0.001564062073
3.098,0.01712539628,-0.001595797947
3.112,0.01650163308,-0.004685132371
3.126,0.01532702238,-0.007600506466
3.14,0.01364406258,-0.01024491427
3.154,0.011512104,-0.01253100544
3.168,0.009005255337,-0.01438396822
3.182,0.006209805741,-0.01574397322
3.196,0.003221252109,-0.01656809869
3.21,0.0001410342469,-0.01683167521
3.224,-0.00292691048,-0.01652900838
3.238,-0.005879655878,-0.01567345875
3.252,-0.008618740536,-0.01429688033
3.266,-0.01105345042,-0.01244844054
3.28,-0.01310382102,-0.01019286512
3.294,-0.01470325985,-0.007608170612
3.308,-0.0158007033,-0.004782963906
3.322,-0.01636223834,-0.001813402415
3.336,-0.0163721379,0.001200080768
3.35,-0.01583327863,0.00415617512
3.364,-0.01476693121,0.006956099313
3.378,-0.01321193393,0.009506901623
3.392,-0.01122328155,0.0117245439
3.406,-0.008870180389,0.01353666684
3.42,-0.006233638572,0.01488494567
3.434,-0.003403675326,0.01572695979
3.448,-0.0004762455615,0.01603751677
3.462,0.002450015129,0.01580938965
3.476,0.005277114592,0.01505344681
3.49,0.007910985289,0.01379817387
3.504,0.01026461269,0.01208860781
3.518,0.01226090689,0.00998472289
3.532,0.01383522281,0.007559326133
3.546,0.01493744679,0.004895536386
3.56,0.01553358239,0.002083934146
3.574,0.01560678575,-0.0007805199731
3.588,0.01515781934,-0.003601693266
3.602,0.01420491282,-0.006285507058
3.616,0.0127830399,-0.00874307266
3.63,0.01094263906,-0.01089363268
3.644,0.008747825119,-0.01266721047
3.658,0.006274154869,-0.01400688095
3.672,0.003606024671,-0.01487058932
3.686,0.0008337897945,-0.01523245997
3.7,-0.001949296218,-0.01508355512
3.714,-0.004650218422,-0.01443206181
3.728,-0.007179308073,-0.01330290478
3.742,-0.009453217178,-0.01173680232
3.756,-0.01139766142,-0.009788800487
3.77,-0.01294984132,-0.007526338465
3.784,-0.01406046295,-0.005026912986
3.798,-0.0146952935,-0.002375422767
3.812,-0.01483620285,0.0003387159999
3.826,-0.01448166017,0.003024585085
3.84,-0.01364667274,0.005592808895
3.854,-0.01236217301,0.007958526454
3.868,-0.0106738783,0.01004419196
3.882,-0.008640665107,0.0117821116
3.896,-0.006332515687,0.01311663387
3.91,-0.003828108561,0.01400592276
3.924,-0.00121213596,0.0144232576
3.938,0.00142756033,0.01435781977
3.952,0.00400293786,0.0138149436
3.966,0.006428688181,0.01281582709
3.98,0.008625059524,0.01139671598
3.994,0.01052047423,0.009607592388
4.008,0.01205385522,0.007510415049
4.022,0.01317658603,0.005176973428
4.036,0.013854042,0.002686429806
4.05,0.01406664457,0.0001226336079
4.064,0.01381040728,-0.002428700929
4.078,0.01309695897,-0.004882858792
4.092,0.01195304733,-0.007158934274
4.106,0.01041954322,-0.009182494023
4.12,0.008549982465,-0.01088800553
4.134,0.006408697368,-0.01222095209
4.148,0.004068602804,-0.01313956616
4.162,0.001608713348,-0.01361612651
4.176,-0.0008885241347,-0.01363777915
4.19,-0.0033399924,-0.01320685849
4.204,-0.005664667752,-0.01234070176
4.218,-0.007786294186,-0.01107096669
4.232,-0.009635879638,-0.009442478902
4.246,-0.01115393281,-0.007511650792
4.26,-0.01229236831,-0.005344527653
4.274,-0.01301601943,-0.003014528715
4.288,-0.01330371133,-0.0005999603382
4.302,-0.01314886244,0.001818614421
4.316,-0.01255959768,0.004161061569
4.33,-0.01155837355,0.006350327801
4.344,-0.01018113119,0.008314970396
4.358,-0.008476009086,0.009991482488
4.372,-0.006501661485,0.01132633826
4.386,-0.004325241195,0.01227769252
4.4,-0.002020116124,0.012816681
4.414,0.0003366028043,0.01292828142
4.428,0.002666639118,0.01261171033
4.442,0.004893147565,0.01188034593
4.456,0.00694324417,0.01076118333
4.47,0.008750386434,0.009293843737
4.484,0.01025652616,0.007529173753
4.498,0.01141396555,0.005527484321
4.512,0.01218685747,0.0033564902
4.526,0.01255230322,0.00108902038
4.54,0.01250101452,-0.001199423196
4.554,0.01203752136,-0.003433176847
4.568,0.01117992229,-0.005538912895
4.582,0.009959189013,-0.007448041622
4.596,0.008418051533,-0.009098938974
4.61,0.006609504052,-0.01043892788
4.624,0.004594983651,-0.01142594983
4.638,0.002442284401,-0.01202987393
4.652,0.0002232776416,-0.01223340324
4.666,-0.001988484956,-0.01203255153
4.68,-0.004120205723,-0.01143667821
4.694,-0.006102232287,-0.01046808353
4.708,-0.007870327449,-0.009161181044
4.722,-0.009367743918,-0.007561277497
4.736,-0.01054703714,-0.00572300363
4.75,-0.01137155868,-0.00370844998
4.764,-0.01181658341,-0.001585071346
4.778,-0.01187003649,0.0005765694543
4.792,-0.01153279911,0.002705143151
4.806,-0.01081858638,0.004730903344
4.82,-0.009753404542,0.006587966369
4.834,-0.008374608658,0.008216447386
4.848,-0.006729594712,0.009564383695
4.862,-0.004874171874,0.0105893838
4.876,-0.002870670759,0.01125995023
4.89,-0.0007858517552,0.01155643523
4.904,0.001311316484,0.0114716008
4.918,0.003351934575,0.01101076776
4.932,0.005269430917,0.01019155206
4.946,0.007001727328,0.009043200134
4.96,0.008493241607,0.007605548155
4.974,0.009696662678,0.005927642007
4.988,0.01057444195,0.004066065836
5.002,0.01109995422,0.002083035999
5.016,0.01125829265,4.43245701E-05
5.03,0.01104667458,-0.001982918426
5.044,0.01047444781,-0.003932372064
5.058,0.009562700113,-0.005740708511
5.072,0.008343487846,-0.007349643564
5.086,0.00685871149,-0.008707807577
5.1,0.005158677643,-0.00977237703
5.114,0.00330039667,-0.01051041522
5.128,0.00134567355,-0.01089988051
5.142,-0.000640944251,-0.01093027157
5.156,-0.002594293867,-0.01060289141
5.17,-0.004450729162,-0.009930724243
5.184,-0.006150188336,-0.008937932063
5.198,-0.007638130067,-0.007658990159
5.212,-0.008867276054,-0.006137492333
5.226,-0.009799104577,-0.004424667151
5.24,-0.01040504823,-0.00257765565
5.254,-0.01066735891,-0.0006576083025
5.268,-0.01057961439,0.001272335508
5.282,-0.01014685237,0.003149118887
5.296,-0.009385330488,0.004911821936
5.31,-0.008321922585,0.006503632654
5.324,-0.006993173569,0.007873670707
5.338,-0.005444045888,0.008978605799
5.352,-0.003726400596,0.009784019465
5.366,-0.001897264216,0.01026546782
5.38,-1.693918692E-05,0.01040921281
5.394,0.001852979619,0.01021260043
5.408,0.003651617259,0.009684076229
5.422,0.005320794405,0.008842839788
5.436,0.006806902473,0.007718152176
5.45,0.008062618007,0.006348320947
5.464,0.009048401772,0.004779397928
5.478,0.00973373537,0.003063633929
5.492,0.01009805701,0.001257742109
5.506,0.01013136806,-0.0005789723908
5.52,0.00983449297,-0.002386555054
5.534,0.009218986268,-0.00410635337
5.548,0.008306692085,-0.005682913703
5.562,0.007128972644,-0.007065762537
5.576,0.005725632873,-0.008211015136
5.59,0.004143577905,-0.009082760622
5.604,0.002435248635,-0.009654180041
5.618,0.0006568874018,-0.009908362902
5.632,-0.001133309025,-0.009838797649
5.646,-0.002877088645,-0.009449522228
5.66,-0.004518033852,-0.008754931977
5.674,-0.006003380411,-0.007779253167
5.688,-0.007285707364,-0.006555701252
5.702,-0.008324444008,-0.005125352974
5.716,-0.009087146305,-0.003535770521
5.73,-0.009550502842,-0.001839423679
5.744,-0.009701039415,-9.196220307E-05
5.758,-0.009535501245,0.001649604882
5.772,-0.00906090235,0.003328763672
5.786,-0.008294242409,0.004891323348
5.8,-0.007261902171,0.006287158815
5.814,-0.005998738766,0.007471812207
5.828,-0.004546911839,0.008407902327
5.842,-0.002954479924,0.009066297593
5.856,-0.001273813643,0.009427015909
5.87,0.000440122018,0.009479823937
5.884,0.00213156019,0.009224518033
5.898,0.003745741111,0.008670879532
5.912,0.005230679137,0.007838307537
5.926,0.006538830982,0.006755142803
5.94,0.007628611866,0.005457706132
5.954,0.008465711462,0.003989083808
5.968,0.009024168192,0.002397700555
5.982,0.009287168481,0.0007357271293
5.996,0.009247546548,-0.0009426252346
6.01,0.008907970139,-0.002582867964
6.024,0.008280807739,-0.004131998717
6.038,0.00738768314,-0.005540208506
6.052,0.006258733208,-0.006762477597
6.066,0.004931594234,-0.007760009264
6.08,0.003450150834,-0.008501455931
6.094,0.001863088843,-0.008963899152
6.108,0.0002222997739,-0.009133552963
6.122,-0.001418811038,-0.00900616922
6.136,-0.003007057624,-0.008587133192
6.15,-0.004491191856,-0.00789124772
6.164,-0.005823551862,-0.006942214293
6.178,-0.006961587561,-0.005771829079
6.192,-0.007869214678,-0.004418921075
6.206,-0.008517954309,-0.0029280677
6.22,-0.008887822241,-0.001348130181
6.234,-0.008967940375,0.0002693433204
6.248,-0.00875685171,0.001871794805
6.262,-0.008262529935,0.003407359384
6.276,-0.007502084545,0.004826539076
6.29,-0.006501172207,0.006083793613
6.304,-0.005293134481,0.007138997308
6.318,-0.003917890776,0.007958715535
6.332,-0.002420623136,0.008517260355
6.346,-0.0008502960666,0.008797492108
6.36,0.0007419402961,0.008791342047
6.374,0.002304411739,0.008500040211
6.388,0.00378659246,0.00793404224
6.402,0.005140734521,0.007112658573
6.416,0.006323401875,0.006063399032
6.43,0.007296859839,0.004821054904
6.444,0.008030275687,0.003426549036
6.458,0.0085006923,0.001925591795
6.472,0.008693744199,0.0003671868869
6.486,0.008604093737,-0.001197964267
6.5,0.008235574263,-0.002719107818
6.514,0.007601036579,-0.004147079195
6.528,0.006721904569,-0.005435888278
6.542,0.005627455248,-0.00654419707
6.556,0.00435384728,-0.007436642515
6.57,0.002942930081,-0.008084962229
6.584,0.001440872592,-0.008468887414
6.598,-0.0001033435061,-0.00857677478
6.612,-0.001639517102,-0.008405957857
6.626,-0.003117855807,-0.00796280712
6.64,-0.004490586288,-0.00726249781
6.654,-0.005713494831,-0.006328493733
6.668,-0.006747348565,-0.005191764485
6.682,-0.007559151769,-0.003889762078
6.696,-0.008123197102,-0.002465190662
6.71,-0.008421878325,-0.0009646096109
6.724,-0.008446238858,0.0005630844673
6.738,-0.008196239095,0.002068247443
6.752,-0.007680734538,0.003502097549
6.766,-0.006917166139,0.004818293347
6.78,-0.005930973559,0.005974428847
6.794,-0.004754750937,0.006933397623
6.808,-0.003427173085,0.007664582121
6.822,-0.001991727338,0.008144830091
6.836,-0.0004952925193,0.008359187024
6.85,0.001013388678,0.008301361445
6.864,0.002485294229,0.007973908568
6.878,0.003872712847,0.007388126978
6.892,0.005130788098,0.006563672277
6.906,0.006218966681,0.005527900781
6.92,0.007102304169,0.004314965061
6.934,0.007752586214,0.00296469112
6.948,0.008149229278,0.001521273977
6.962,0.008279932114,3.183428302E-05
6.976,0.008141057385,-0.001455117021
6.99,0.007737731556,-0.002891256079
7.004,0.007083660328,-0.004230014327
7.018,0.00620066613,-0.005428086721
7.032,0.005117963142,-0.0064468312
7.046,0.003871193835,-0.007253514194
7.06,0.002501258668,-0.007822362053
7.074,0.001052977275,-0.008135384627
7.088,-0.0004263751614,-0.008182944661
7.102,-0.001888608636,-0.007964054951
7.116,-0.003286186027,-0.007486394061
7.13,-0.004573766857,-0.006766040556
7.144,-0.005709677019,-0.005826934811
7.158,-0.006657256872,-0.004700086307
7.172,-0.007386044113,-0.003422552562
7.186,-0.007872753246,-0.002036223191
7.2,-0.008102020156,-0.0005864489094
7.214,-0.008066887923,0.0008794397476
7.228,-0.007769018481,0.002313675686
7.242,-0.007218623645,0.003669610242
7.256,-0.006434118141,0.004903229326
7.27,-0.005441506324,0.005974581484
7.284,-0.004273522907,0.006849071545
7.298,-0.002968555987,0.007498577976
7.312,-0.00156938771,0.007902357825
7.326,-0.0001217938066,0.008047710106
7.34,0.001326952244,0.00793037635
7.354,0.00272962159,0.007554665647
7.368,0.004040568652,0.006933300473
7.382,0.005217215942,0.006086988679
7.396,0.006221436769,0.005043735958
7.41,0.007020790911,0.003837921505
7.424,0.007589573204,0.002509167301
7.438,0.007909641109,0.001101038121
7.452,0.007970994556,-0.0003403851346
7.466,0.007772089505,-0.001768012149
7.48,0.007319875305,-0.003135280682
7.494,0.006629554997,-0.004397674702
7.508,0.00572407672,-0.005514173655
7.522,0.004633373138,-0.006448585684
7.536,0.003393374016,-0.007170721448
7.55,0.002044824442,-0.007657370447
7.564,0.0006319475032,-0.007893048203
7.578,-0.0007990047443,-0.007870490224
7.592,-0.002201264573,-0.007590876911
7.606,-0.003529076652,-0.007063782399
7.62,-0.004739190979,-0.006306849338
7.634,-0.005792271943,-0.005345200581
7.648,-0.006654177596,-0.004210607292
7.662,-0.007297067508,-0.002940440977
7.676,-0.007700303184,-0.001576443929
7.69,-0.007851111897,-0.0001633584949
7.704,-0.007744992514,0.001252539849
7.718,-0.007385850357,0.002624957553
7.732,-0.006785857035,0.003909096577
7.746,-0.005965040159,0.005063117002
7.76,-0.004950616695,0.006049500903
7.774,-0.003776092076,0.006836272992
7.788,-0.00248015484,0.007398038268
7.802,-0.001105403211,0.00771680295
7.816,0.0003030544835,0.007782552109
7.83,0.001699079608,0.007593565381
7.844,0.003037014672,0.007156460779
7.858,0.004273176931,0.006485965492
7.872,0.005367285236,0.00560442154
7.886,0.006283773517,0.004541042806
7.9,0.006992948001,0.003330948104
7.914,0.00747195049,0.002014002237
7.928,0.007705496366,0.000633503277
7.942,0.007686363474,-0.000765240741
7.956,0.007415616162,-0.002136398904
7.97,0.006902557514,-0.003435119485
7.984,0.006164411689,-0.004618997725
7.998,0.005225747161,-0.005649461268
8.012,0.004117660108,-0.006493027954
8.026,0.002876745064,-0.007122394884
8.04,0.001543886879,-0.007517323315
8.054,0.000162913847,-0.007665290617
8.068,-0.001220843616,-0.007561888269
8.082,-0.002562041348,-0.007210953183
8.096,-0.003816807965,-0.006624428441
8.11,-0.004944180783,-0.005821958405
8.124,-0.005907444086,-0.00483023187
8.138,-0.006675325984,-0.003682095193
8.152,-0.007223014785,-0.002415464842
8.166,-0.007532961807,-0.001072075351
8.18,-0.007595444604,0.000303895967
8.194,-0.007408872473,0.001667282215
8.208,-0.006979824641,0.0029734102
8.222,-0.00632282027,0.004179565059
8.236,-0.005459828267,0.005246388178
8.25,-0.00441953342,0.006139162588
8.264,-0.003236383336,0.006828943844
8.278,-0.001949447841,0.007293499471
8.292,-0.0006011286252,0.007518026454
8.306,0.0007642382606,0.007495623573
8.32,0.002101840953,0.007227503486
8.334,0.003367863365,0.006722938029
8.348,0.004520921449,0.005998938987
8.362,0.005523417011,0.005079685289
8.376,0.006342764735,0.003995715891
8.39,0.006952452344,0.002782915272
8.404,0.00733289934,0.001481325249
8.418,0.007472086486,0.000133822485
8.432,0.00736593576,-0.001215294638
8.446,0.007018428746,-0.002521763142
8.46,0.006441460071,-0.003742808629
8.474,0.005654431193,-0.00483854675
8.488,0.004683598395,-0.005773286993
8.502,0.003561196871,-0.006516696154
8.516,0.002324370147,-0.007044783485
8.53,0.001013940389,-0.007340675526
8.544,-0.0003269396483,-0.007395155532
8.558,-0.001654208507,-0.00720695026
8.572,-0.002924344829,-0.006782755188
8.586,-0.00409579542,-0.006136997863
8.6,-0.00513033566,-0.005291347718
8.614,-0.005994317676,-0.004273988969
8.628,-0.006659765494,-0.003118681024
8.642,-0.007105281476,-0.001863637709
8.656,-0.007316734655,-0.0005502625769
8.67,-0.00728770881,0.0007782178388
8.684,-0.007019696064,0.002078177658
8.698,-0.006522030221,0.003307025252
8.712,-0.005811562584,0.004424599652
8.726,-0.004912091507,0.005394483946
8.74,-0.003853564995,0.006185192672
8.754,-0.002671083057,0.006771194456
8.768,-0.00140373311,0.00713373667
8.782,-9.329706757E-05,0.007261445432
8.796,0.001217127056,0.007150681785
8.81,0.00248454352,0.006805642888
8.824,0.003667470498,0.006238205529
8.838,0.004727298583,0.0054675177
8.852,0.005629551636,0.004519352296
8.866,0.006345008781,0.003425244732
8.88,0.006850650991,0.002221443392
8.894,0.007130401609,0.0009477078391
8.908,0.007175636963,-0.0003540053015
8.922,0.006985450887,-0.001640925338
8.936,0.006566665076,-0.002870873738
8.95,0.005933585586,-0.004003647331
8.964,0.005107514143,-0.005002333066
8.978,0.004116030957,-0.005834511328
8.992,0.002992073204,-0.006473308538
9.006,0.001772840006,-0.006898264875
9.02,0.0004985603381,-0.007095989075
9.034,-0.0007888352747,-0.007060579396
9.048,-0.002047095385,-0.00679379753
9.062,-0.003235035069,-0.006304990431
9.076,-0.004313884598,-0.005610763318
9.09,-0.00524855514,-0.004734415291
9.104,-0.006008780163,-0.003705156741
9.118,-0.006570095377,-0.002557134884
9.132,-0.00691462552,-0.001328299957
9.146,-0.007031652671,-5.914976248E-05
9.16,-0.006917948073,0.001208605867
9.174,-0.006577857252,0.002433416605
9.188,-0.006023136334,0.003575254026
9.202,-0.005272545689,0.004596920173
9.216,-0.004351214922,0.005465259492
9.23,-0.003289800758,0.006152234638
9.244,-0.002123466054,0.006635831256
9.258,-0.0008907139888,0.006900762553
9.272,0.0003678838801,0.006938951135
9.286,0.001611023634,0.006749772985
9.3,0.002798025064,0.006340056293
9.314,0.003890163239,0.005723835921
9.328,0.004851931974,0.00492187233
9.342,0.005652197967,0.003960951444
9.356,0.006265208087,0.002872989126
9.37,0.006671417249,0.001693970211
9.384,0.006858110292,0.0004627574389
9.398,0.006819798114,-0.0007801902914
9.412,0.006558375803,-0.001994148004
9.426,0.00608303833,-0.00313945934
9.44,0.005409957352,-0.004178832086
9.454,0.004561730479,-0.005078552222
9.468,0.00356662178,-0.005809576952
9.482,0.002457619102,-0.006348471321
9.496,0.001271339672,-0.006678158222
9.51,4.68203227E-05,-0.006788457853
9.524,-0.001175767649,-0.00667639964
9.538,-0.002356436663,-0.006346297155
9.552,-0.003456690803,-0.005809584378
9.566,-0.004440780744,-0.005084419433
9.58,-0.005276864753,-0.004195069562
9.594,-0.005938038084,-0.00317109819
9.608,-0.00640319751,-0.002046381357
9.622,-0.006657713265,-0.0008579862607
9.636,-0.006693887067,0.0003550509151
9.65,-0.006511181942,0.001553007577
9.664,-0.006116217135,0.002696775544
9.678,-0.00552252905,0.003749137504
9.692,-0.00475010685,0.004675977465
9.706,-0.003824718666,0.005447385832
9.72,-0.002777051162,0.006038623359
9.734,-0.001641691212,0.006430912957
9.748,-0.000455983532,0.006612034058
9.762,0.0007411980004,0.00657670082
9.776,0.001910724879,0.00632671254
9.79,0.003014492576,0.005870872175
9.804,0.004016661441,0.005224676421
9.818,0.004884819504,0.004409788265
9.832,0.005591029486,0.003453310008
9.846,0.006112726249,0.002386881161
9.86,0.006433435898,0.001245631295
9.874,0.006543293715,6.702250601E-05
9.888,0.0064393447,-0.001110380335
9.902,0.006125617708,-0.002248171176
9.916,0.005612971521,-0.003309354968
9.93,0.004918718714,-0.004259549617
9.944,0.004066040322,-0.005068098701
9.958,0.00308321116,-0.005709058975
9.972,0.002002661687,-0.006162030928
9.986,0.0008599075805,-0.006412805847
10,-0.0003076176383,-0.006453808981
