"Freq [GHz]","re(S(Tx_p1,Tx_p1)) []","im(S(Tx_p1,Tx_p1)) []"
1,-0.01640851103,-0.01350128758
1.01,-0.01687738336,-0.01245956582
1.02,-0.01729070038,-0.01139840717
1.03,-0.01764731584,-0.01032073153
1.04,-0.01794625122,-0.009229535386
1.05,-0.01818670015,-0.008127881408
1.06,-0.01836803216,-0.007018887842
1.07,-0.01848979585,-0.005905717748
1.08,-0.01855172138,-0.00479156811
1.09,-0.01855372231,-0.003679658851
1.1,-0.01849589683,-0.002573221788
1.11,-0.01837852829,-0.001475489568
1.12,-0.01820208517,-0.0003896846134
1.13,-0.01796722028,0.000680991879
1.14,-0.01767476946,0.001733370862
1.15,-0.01732574952,0.002764326237
1.16,-0.01692135567,0.003770785507
1.17,-0.01646295825,0.004749740233
1.18,-0.01595209894,0.005698256279
1.19,-0.01539048628,0.006613483794
1.2,-0.01477999075,0.007492666919
1.21,-0.01412263921,0.008333153167
1.22,-0.01342060881,0.009132402466
1.23,-0.01267622046,0.009887995817
1.24,-0.01189193175,0.01059764356
1.25,-0.0110703294,0.0112591932
1.26,-0.01021412136,0.0118706368
1.27,-0.009326128409,0.01243011786
1.28,-0.0084092754,0.01293593773
1.29,-0.007466582183,0.01338656151
1.3,-0.006501154178,0.01378062338
1.31,-0.005516172668,0.0141169314
1.32,-0.004514884837,0.01439447173
1.33,-0.003500593583,0.01461241228
1.34,-0.00247664714,0.01477010579
1.35,-0.001446428548,0.01486709223
1.36,-0.0004133449995,0.01490310067
1.37,0.0006191828993,0.01487805053
1.38,0.001647731917,0.01479205216
1.39,0.002668887002,0.01464540688
1.4,0.003679252066,0.0144386063
1.41,0.004675460717,0.01417233113
1.42,0.005654186895,0.01384744933
1.43,0.006612155392,0.01346501365
1.44,0.007546152208,0.01302625861
1.45,0.008453034719,0.01253259686
1.46,0.00932974162,0.01198561498
1.47,0.01017330261,0.01138706877
1.48,0.0109808478,0.0107388779
1.49,0.01174961678,0.01004312015
1.5,0.01247696737,0.009302025061
1.51,0.013160384,0.008517967135
1.52,0.01379748563,0.007693458594
1.53,0.01438603335,0.006831141669
1.54,0.01492393742,0.005933780495
1.55,0.01540926392,0.00500425262
1.56,0.01584024087,0.004045540153
1.57,0.01621526388,0.003060720588
1.58,0.01653290119,0.002052957324
1.59,0.01679189828,0.001025489923
1.6,0.01699118181,-1.837587199E-05
1.61,0.0171298631,-0.001075278328
1.62,0.01720724094,-0.002141810076
1.63,0.01722280387,-0.003214528613
1.64,0.01717623184,-0.004289966901
1.65,0.0170673973,-0.005364644051
1.66,0.01689636563,-0.006435076026
1.67,0.01666339508,-0.007497786371
1.68,0.01636893596,-0.008549316893
1.69,0.01601362939,-0.009586238291
1.7,0.01559830534,-0.01060516068
1.71,0.01512398015,-0.01160274401
1.72,0.01459185346,-0.01257570826
1.73,0.01400330456,-0.01352084354
1.74,0.01335988822,-0.01443501988
1.75,0.01266332996,-0.01531519677
1.76,0.01191552078,-0.01615843251
1.77,0.01111851144,-0.01696189309
1.78,0.01027450619,-0.0177228609
1.79,0.00938585612,-0.01843874292
1.8,0.008455051942,-0.01910707864
1.81,0.007484716481,-0.0197255475
1.82,0.006477596686,-0.02029197588
1.83,0.005436555306,-0.02080434368
1.84,0.004364562214,-0.02126079042
1.85,0.003264685411,-0.02165962078
1.86,0.002140081754,-0.0219993097
1.87,0.0009939874126,-0.02227850692
1.88,-0.0001702918917,-0.02249604098
1.89,-0.001349390848,-0.0226509227
1.9,-0.002539894684,-0.02274234805
1.91,-0.003738349427,-0.0227697005
1.92,-0.004941272268,-0.02273255275
1.93,-0.006145161998,-0.02263066794
1.94,-0.007346509476,-0.02246400026
1.95,-0.008541808109,-0.02223269492
1.96,-0.0097275643,-0.02193708765
1.97,-0.01090030784,-0.02157770353
1.98,-0.01205660222,-0.02115525534
1.99,-0.0131930548,-0.02067064123
2,-0.01430632681,-0.02012494196
2.01,-0.01539314327,-0.01951941751
2.02,-0.01645030254,-0.01885550322
2.03,-0.01747468575,-0.01813480533
2.04,-0.01846326592,-0.01735909612
2.05,-0.01941311678,-0.01653030847
2.06,-0.02032142129,-0.01565053001
2.07,-0.02118547976,-0.01472199679
2.08,-0.02200271767,-0.01374708653
2.09,-0.02277069307,-0.0127283115
2.1,-0.02348710351,-0.01166831093
2.11,-0.02414979263,-0.01056984314
2.12,-0.02475675625,-0.009435777311
2.13,-0.02530614797,-0.008269084923
2.14,-0.02579628433,-0.00707283095
2.15,-0.02622564945,-0.00585016478
2.16,-0.02659289912,-0.004604310905
2.17,-0.02689686448,-0.003338559433
2.18,-0.02713655504,-0.002056256416
2.19,-0.02731116124,-0.0007607940484
2.2,-0.02742005645,0.0005443992416
2.21,-0.02746279842,0.001855868779
2.22,-0.02743913018,0.003170143676
2.23,-0.02734898039,0.004483746881
2.24,-0.02719246313,0.005793205214
2.25,-0.02696987718,0.007095059358
2.26,-0.02668170471,0.008385873777
2.27,-0.0263286095,0.009662246527
2.28,-0.02591143453,0.01092081894
2.29,-0.02543119917,0.01215828514
2.3,-0.02488909577,0.01337140139
2.31,-0.0242864858,0.01455699519
2.32,-0.02362489551,0.01571197414
2.33,-0.02290601109,0.01683333458
2.34,-0.02213167341,0.01791816989
2.35,-0.02130387234,0.01896367847
2.36,-0.0204247406,0.01996717143
2.37,-0.01949654727,0.02092607987
2.38,-0.01852169092,0.0218379618
2.39,-0.01750269236,0.02270050869
2.4,-0.0164421871,0.02351155155
2.41,-0.01534291749,0.02426906661
2.42,-0.01420772456,0.02497118057
2.43,-0.01303953967,0.02561617534
2.44,-0.01184137585,0.02620249237
2.45,-0.01061631904,0.02672873642
2.46,-0.009367519053,0.02719367895
2.47,-0.008098180455,0.02759626088
2.48,-0.006811553331,0.02793559494
2.49,-0.005510923938,0.02821096751
2.5,-0.0041996053,0.02842183986
2.51,-0.002880927779,0.028567849
2.52,-0.00155822964,0.02864880792
2.53,-0.0002348476284,0.02866470537
2.54,0.001085892387,0.0286157051
2.55,0.002400684707,0.02850214468
2.56,0.00370625298,0.02832453368
2.57,0.004999359257,0.02808355151
2.58,0.006276812883,0.02778004468
2.59,0.007535479207,0.02741502365
2.6,0.008772288094,0.02698965919
2.61,0.00998424219,0.02650527835
2.62,0.01116842495,0.0259633599
2.63,0.01232200838,0.02536552947
2.64,0.01344226048,0.02471355423
2.65,0.01452655238,0.02400933721
2.66,0.01557236515,0.02325491127
2.67,0.0165772962,0.02245243271
2.68,0.0175390654,0.02160417457
2.69,0.01845552073,0.02071251965
2.7,0.01932464358,0.01977995322
2.71,0.02014455362,0.01880905554
2.72,0.02091351323,0.01780249406
2.73,0.02162993155,0.01676301551
2.74,0.02229236798,0.01569343776
2.75,0.02289953539,0.01459664153
2.76,0.02345030267,0.01347556197
2.77,0.02394369702,0.01233318013
2.78,0.02437890559,0.01117251442
2.79,0.02475527682,0.009996611874
2.8,0.02507232117,0.008808539545
2.81,0.02532971146,0.007611375783
2.82,0.02552728276,0.00640820159
2.83,0.02566503172,0.00520209201
2.84,0.02574311554,0.003996107591
2.85,0.02576185048,0.002793285948
2.86,0.02572170983,0.001596633439
2.87,0.02562332158,0.0004091169949
2.88,0.02546746558,-0.0007663438915
2.89,0.02525507027,-0.001926884983
2.9,0.02498720908,-0.003069704905
2.91,0.02466509639,-0.004192072528
2.92,0.02429008314,-0.005291334091
2.93,0.02386365203,-0.006364920056
2.94,0.02338741246,-0.007410351687
2.95,0.02286309507,-0.008425247306
2.96,0.02229254602,-0.009407328242
2.97,0.02167772093,-0.01035442444
2.98,0.02102067864,-0.01126447973
2.99,0.0203235746,-0.01213555671
3,0.01958865412,-0.01296584126
3.01,0.0188182454,-0.01375364675
3.02,0.01801475234,-0.01449741768
3.03,0.0171806472,-0.01519573313
3.04,0.01631846314,-0.01584730964
3.05,0.01543078662,-0.01645100375
3.06,0.01452024969,-0.01700581411
3.07,0.01358952225,-0.01751088317
3.08,0.01264130422,-0.01796549844
3.09,0.01167831768,-0.01836909333
3.1,0.01070329904,-0.01872124759
3.11,0.009718991194,-0.01902168729
3.12,0.008728135731,-0.0192702844
3.13,0.007733465201,-0.01946705597
3.14,0.006737695467,-0.01961216288
3.15,0.00574351816,-0.01970590824
3.16,0.004753593257,-0.0197487353
3.17,0.003770541815,-0.01974122507
3.18,0.002796938859,-0.0196840935
3.19,0.00183530646,-0.01957818838
3.2,0.0008881070192,-0.01942448577
3.21,-4.226323126E-05,-0.01922408616
3.22,-0.000953480489,-0.01897821035
3.23,-0.001843299386,-0.01868819491
3.24,-0.002709558726,-0.01835548741
3.25,-0.003550186935,-0.01798164136
3.26,-0.004363207221,-0.0175683109
3.27,-0.005146742414,-0.01711724521
3.28,-0.005899019495,-0.01663028268
3.29,-0.006618373788,-0.01610934496
3.3,-0.007303252811,-0.0155564307
3.31,-0.007952219777,-0.0149736092
3.32,-0.00856395674,-0.01436301385
3.33,-0.009137267378,-0.01372683549
3.34,-0.009671079405,-0.01306731562
3.35,-0.01016444661,-0.01238673952
3.36,-0.01061655053,-0.01168742933
3.37,-0.01102670171,-0.01097173698
3.38,-0.01139434066,-0.01024203726
3.39,-0.01171903834,-0.009500720678
3.4,-0.01200049635,-0.008750186477
3.41,-0.01223854665,-0.007992835606
3.42,-0.01243315105,-0.007231063759
3.43,-0.01258440019,-0.006467254477
3.44,-0.01269251225,-0.005703772338
3.45,-0.01275783123,-0.004942956247
3.46,-0.01278082501,-0.004187112851
3.47,-0.01276208288,-0.003438510099
3.48,-0.01270231295,-0.00269937095
3.49,-0.01260233906,-0.001971867262
3.5,-0.01246309751,-0.001258113873
3.51,-0.01228563339,-0.0005601628766
3.52,-0.01207109672,0.0001200018682
3.53,-0.01182073825,0.0007804700018
3.54,-0.01153590501,0.001419409679
3.55,-0.01121803566,0.002035072325
3.56,-0.01086865556,0.002625797115
3.57,-0.01048937163,0.003190015184
3.58,-0.01008186707,0.003726253527
3.59,-0.009647895809,0.004233138615
3.6,-0.009189276871,0.004709399689
3.61,-0.008707888538,0.00515387175
3.62,-0.008205662407,0.005565498212
3.63,-0.007684577332,0.005943333242
3.64,-0.007146653269,0.006286543759
3.65,-0.006593945038,0.006594411097
3.66,-0.006028536037,0.006866332339
3.67,-0.005452531906,0.007101821299
3.68,-0.004868054173,0.007300509175
3.69,-0.004277233889,0.00746214486
3.7,-0.003682205286,0.007586594907
3.71,-0.003085099452,0.007673843171
3.72,-0.002488038064,0.007723990108
3.73,-0.001893127186,0.007737251752
3.74,-0.001302451138,0.007713958363
3.75,-0.0007180664794,0.007654552762
3.76,-0.0001419960933,0.007559588353
3.77,0.0004237765901,0.007429726841
3.78,0.000977313228,0.007265735653
3.79,0.001516726039,0.007068485077
3.8,0.002040183099,0.006838945119
3.81,0.002545913454,0.006578182096
3.82,0.003032212028,0.006287354977
3.83,0.003497444314,0.005967711472
3.84,0.003940050848,0.005620583898
3.85,0.004358551436,0.005247384822
3.86,0.004751549139,0.004849602501
3.87,0.005117734004,0.004428796124
3.88,0.005455886523,0.003986590889
3.89,0.00576488082,0.003524672904
3.9,0.006043687562,0.003044783952
3.91,0.006291376573,0.002548716114
3.92,0.006507119165,0.00203830628
3.93,0.006690190163,0.00151543056
3.94,0.006839969632,0.0009819986057
3.95,0.006955944294,0.0004399478672
3.96,0.007037708647,-0.000108762206
3.97,0.007084965763,-0.0006621559994
3.98,0.007097527782,-0.001218247589
3.99,0.007075316099,-0.001775046601
4,0.007018361239,-0.002330564059
4.01,0.006926802422,-0.002882818204
4.02,0.006800886832,-0.003429840273
4.03,0.006640968576,-0.003969680213
4.04,0.006447507356,-0.004500412326
4.05,0.006221066841,-0.005020140821
4.06,0.005962312761,-0.005527005265
4.07,0.005672010713,-0.006019185909
4.08,0.005351023703,-0.006494908889
4.09,0.005000309421,-0.006952451275
4.1,0.004620917258,-0.007390145962
4.11,0.004213985081,-0.007806386388
4.12,0.003780735767,-0.008199631072
4.13,0.003322473514,-0.00856840795
4.14,0.002840579937,-0.008911318507
4.15,0.002336509956,-0.009227041695
4.16,0.001811787496,-0.009514337614
4.17,0.001268001008,-0.00977205097
4.18,0.0007067988184,-0.009999114279
4.19,0.0001298843324,-0.01019455082
4.2,-0.0004609889107,-0.01035747734
4.21,-0.001064022302,-0.01048710645
4.22,-0.001677377344,-0.01058274884
4.23,-0.002299180923,-0.0106438151
4.24,-0.002927530674,-0.01066981737
4.25,-0.003560500405,-0.01066037062
4.26,-0.004196145581,-0.0106151937
4.27,-0.004832508839,-0.01053411006
4.28,-0.005467625539,-0.01041704826
4.29,-0.006099529309,-0.01026404205
4.3,-0.006726257596,-0.01007523031
4.31,-0.00734585719,-0.009850856609
4.32,-0.00795638971,-0.009591268491
4.33,-0.008555937045,-0.009296916518
4.34,-0.009142606726,-0.008968352992
4.35,-0.009714537221,-0.008606230411
4.36,-0.01026990314,-0.008211299663
4.37,-0.01080692031,-0.007784407949
4.38,-0.01132385078,-0.007326496442
4.39,-0.01181900764,-0.006838597704
4.4,-0.01229075973,-0.006321832845
4.41,-0.01273753615,-0.005777408461
4.42,-0.01315783067,-0.005206613328
4.43,-0.01355020586,-0.004610814887
4.44,-0.01391329717,-0.003991455522
4.45,-0.01424581662,-0.003350048628
4.46,-0.01454655646,-0.002688174504
4.47,-0.0148143925,-0.002007476065
4.48,-0.01504828725,-0.001309654383
4.49,-0.0152472928,-0.0005964640891
4.5,-0.0154105535,0.0001302913779
4.51,-0.01553730833,0.0008687646403
4.52,-0.01562689304,0.001617069369
4.53,-0.01567874208,0.00237328537
4.54,-0.01569239015,0.003135463758
4.55,-0.01566747359,0.003901632201
4.56,-0.01560373144,0.004669800228
4.57,-0.01550100622,0.005437964578
4.58,-0.01535924448,0.006204114579
4.59,-0.01517849698,0.006966237547
4.6,-0.01495891874,0.007722324182
4.61,-0.01470076862,0.008470373956
4.62,-0.01440440883,0.009208400475
4.63,-0.01407030396,0.009934436791
4.64,-0.01369901991,0.01064654068
4.65,-0.01329122247,0.01134279981
4.66,-0.0128476756,0.01202133689
4.67,-0.01236923955,0.01268031468
4.68,-0.01185686862,0.01331794086
4.69,-0.01131160877,0.01393247288
4.7,-0.01073459491,0.01452222258
4.71,-0.01012704797,0.01508556069
4.72,-0.009490271792,0.01562092121
4.73,-0.008825649763,0.01612680556
4.74,-0.008134641224,0.01660178659
4.75,-0.007418777719,0.01704451242
4.76,-0.006679659033,0.01745371001
4.77,-0.005918949057,0.01782818857
4.78,-0.005138371478,0.01816684278
4.79,-0.004339705325,0.01846865569
4.8,-0.003524780361,0.01873270148
4.81,-0.002695472345,0.01895814793
4.82,-0.001853698178,0.01914425865
4.83,-0.001001410939,0.01929039509
4.84,-0.000140594829,0.0193960182
4.85,0.0007267399647,0.01946068996
4.86,0.001598562473,0.01948407454
4.87,0.002472826199,0.01946593923
4.88,0.003347474412,0.01940615508
4.89,0.004220445467,0.01930469732
4.9,0.005089678137,0.01916164543
4.91,0.005953116935,0.01897718299
4.92,0.006808717425,0.01875159726
4.93,0.007654451504,0.01848527842
4.94,0.00848831263,0.01817871866
4.95,0.009308320997,0.01783251087
4.96,0.01011252864,0.01744734717
4.97,0.01089902445,0.01702401712
4.98,0.01166593908,0.01656340572
4.99,0.01241144977,0.0160664911
5,0.01313378502,0.01553434205
5.01,0.01383122912,0.01496811525
5.02,0.01450212655,0.01436905228
5.03,0.01514488624,0.01373847643
5.04,0.01575798561,0.01307778929
5.05,0.01633997443,0.01238846715
5.06,0.01688947856,0.01167205717
5.07,0.01740520341,0.01093017339
5.08,0.01788593723,0.0101644926
5.09,0.01833055412,0.009376749959
5.1,0.01873801695,0.008568734597
5.11,0.01910737988,0.007742284944
5.12,0.01943779075,0.006899284022
5.13,0.01972849316,0.006041654591
5.14,0.01997882839,0.005171354202
5.15,0.02018823692,0.004290370164
5.16,0.02035625982,0.003400714434
5.17,0.02048253979,0.002504418452
5.18,0.020566822,0.001603527925
5.19,0.02060895459,0.0007000975874
5.2,0.02060888896,-0.0002038140663
5.21,0.02056667975,-0.001106150047
5.22,0.02048248457,-0.002004860126
5.23,0.02035656347,-0.002897906073
5.24,0.02018927809,-0.003783266844
5.25,0.01998109059,-0.004658943731
5.26,0.01973256236,-0.005522965439
5.27,0.01944435233,-0.00637339308
5.28,0.01911721518,-0.007208325091
5.29,0.01875199922,-0.008025902025
5.3,0.01834964404,-0.008824311247
5.31,0.01791117792,-0.009601791478
5.32,0.01743771502,-0.01035663722
5.33,0.01693045235,-0.011087203
5.34,0.01639066651,-0.01179190748
5.35,0.01581971026,-0.01246923736
5.36,0.01521900884,-0.01311775113
5.37,0.01459005616,-0.0137360826
5.38,0.01393441079,-0.01432294419
5.39,0.01325369176,-0.01487713013
5.4,0.01254957429,-0.01539751929
5.41,0.01182378527,-0.01588307787
5.42,0.01107809871,-0.01633286182
5.43,0.01031433101,-0.01674601906
5.44,0.009534336137,-0.01712179137
5.45,0.008740000767,-0.01745951612
5.46,0.007933239267,-0.01775862768
5.47,0.00711598867,-0.01801865859
5.48,0.006290203584,-0.01823924048
5.49,0.005457851069,-0.01842010469
5.5,0.004620905486,-0.01856108266
5.51,0.003781343343,-0.01866210603
5.52,0.00294113815,-0.01872320647
5.53,0.002102255287,-0.01874451529
5.54,0.001266646912,-0.01872626269
5.55,0.0004362469147,-0.01866877686
5.56,-0.0003870340713,-0.01857248272
5.57,-0.001201313575,-0.01843790049
5.58,-0.002004742113,-0.01826564394
5.59,-0.002795507908,-0.01805641844
5.6,-0.0035718415,-0.01781101873
5.61,-0.004332020223,-0.01753032651
5.62,-0.005074372554,-0.01721530773
5.63,-0.005797282302,-0.01686700974
5.64,-0.006499192646,-0.01648655817
5.65,-0.007178609993,-0.01607515363
5.66,-0.00783410766,-0.01563406821
5.67,-0.008464329363,-0.0151646418
5.68,-0.009067992505,-0.01466827827
5.69,-0.009643891254,-0.01414644142
5.7,-0.01019089941,-0.01360065083
5.71,-0.01070797303,-0.01303247757
5.72,-0.01119415285,-0.01244353977
5.73,-0.01164856645,-0.01183549804
5.74,-0.01207043016,-0.0112100509
5.75,-0.01245905077,-0.01056893
5.76,-0.01281382693,-0.009913895291
5.77,-0.01313425033,-0.009246730229
5.78,-0.01341990663,-0.008569236796
5.79,-0.01367047606,-0.007883230577
5.8,-0.01388573389,-0.00719053578
5.81,-0.01406555049,-0.006492980263
5.82,-0.01420989124,-0.005792390557
5.83,-0.01431881613,-0.005090586916
5.84,-0.0143924791,-0.004389378402
5.85,-0.01443112713,-0.003690558015
5.86,-0.01443509912,-0.00299589788
5.87,-0.01440482443,-0.002307144521
5.88,-0.01434082127,-0.001626014207
5.89,-0.01424369476,-0.0009541884097
5.9,-0.01411413485,-0.0002933093659
5.91,-0.01395291395,0.0003550242293
5.92,-0.01376088434,0.0009892613984
5.93,-0.0135389754,0.001607902908
5.94,-0.01328819061,0.002209505134
5.95,-0.01300960438,0.002792683767
5.96,-0.01270435867,0.003356117325
5.97,-0.01237365941,0.003898550495
5.98,-0.01201877286,0.004418797261
5.99,-0.01164102165,0.004915743841
6,-0.01124178087,0.005388351402
