"Freq [GHz]","re(S(Tx_p1,Tx_p1)) []","im(S(Tx_p1,Tx_p1)) []"
1,-0.02717700409,-0.03673179703
1.01,-0.02848395359,-0.03492101002
1.02,-0.02969752607,-0.03305642035
1.03,-0.03081471064,-0.03114266566
1.04,-0.03183275599,-0.02918457648
1.05,-0.03274918127,-0.02718716001
1.06,-0.03356178607,-0.02515558327
1.07,-0.03426865944,-0.02309515593
1.08,-0.03486818776,-0.02101131268
1.09,-0.03535906173,-0.01890959526
1.1,-0.03574028221,-0.0167956342
1.11,-0.03601116504,-0.01467513039
1.12,-0.03617134481,-0.01255383638
1.13,-0.03622077755,-0.01043753761
1.14,-0.0361597423,-0.008332033572
1.15,-0.03598884172,-0.006243118973
1.16,-0.03570900148,-0.004176564906
1.17,-0.03532146875,-0.002138100167
1.18,-0.03482780951,-0.0001333927108
1.19,-0.03422990489,0.001831968667
1.2,-0.03352994647,0.003752492383
1.21,-0.03273043056,0.005622801792
1.22,-0.03183415153,0.007437652532
1.23,-0.03084419414,0.009191949444
1.24,-0.02976392496,0.01088076301
1.25,-0.02859698291,0.01249934525
1.26,-0.02734726883,0.01404314507
1.27,-0.02601893438,0.01550782296
1.28,-0.02461636996,0.01688926503
1.29,-0.02314419199,0.01818359636
1.3,-0.02160722942,0.01938719355
1.31,-0.02001050959,0.02049669659
1.32,-0.01835924343,0.02150901979
1.33,-0.01665881006,0.02242136191
1.34,-0.01491474093,0.02323121546
1.35,-0.01313270339,0.023936375
1.36,-0.01131848388,0.02453494458
1.37,-0.009477970665,0.02502534419
1.38,-0.007617136367,0.02540631526
1.39,-0.005742020086,0.02567692516
1.4,-0.003858709382,0.02583657069
1.41,-0.00197332207,0.02588498062
1.42,-9.198790296E-05,0.02582221714
1.43,0.001779169789,0.02564867631
1.44,0.003634052463,0.02536508757
1.45,0.005466604668,0.0249725121
1.46,0.007270832221,0.0244723403
1.47,0.009040820258,0.02386628816
1.48,0.01077075098,0.02315639275
1.49,0.01245492119,0.02234500665
1.5,0.01408775949,0.02143479143
1.51,0.01566384305,0.02042871028
1.52,0.01717791399,0.01933001959
1.53,0.01862489528,0.0181422598
1.54,0.01999990605,0.01686924522
1.55,0.02129827641,0.01551505319
1.56,0.02251556159,0.01408401234
1.57,0.02364755544,0.0125806901
1.58,0.02469030322,0.01100987953
1.59,0.02564011364,0.009376585482
1.6,0.02649357018,0.007686010024
1.61,0.02724754153,0.00594353739
1.62,0.02789919121,0.004154718312
1.63,0.02844598638,0.002325253865
1.64,0.02888570568,0.000460978862
1.65,0.02921644617,-0.001432155159
1.66,0.0294366294,-0.003348097298
1.67,0.02954500645,-0.005280714964
1.68,0.02954066202,-0.007223811785
1.69,0.02942301757,-0.009171145728
1.7,0.02919183345,-0.01111644735
1.71,0.02884721006,-0.01305343812
1.72,0.02838958796,-0.01497584886
1.73,0.02781974704,-0.01687743803
1.74,0.02713880471,-0.01875201004
1.75,0.026348213,-0.02059343342
1.76,0.02544975484,-0.02239565881
1.77,0.02444553922,-0.02415273664
1.78,0.02333799552,-0.02585883467
1.79,0.02212986681,-0.02750825506
1.8,0.02082420233,-0.02909545111
1.81,0.01942434899,-0.03061504362
1.82,0.01793394207,-0.03206183664
1.83,0.01635689505,-0.03343083281
1.84,0.01469738864,-0.03471724809
1.85,0.01295985907,-0.03591652585
1.86,0.01114898552,-0.03702435035
1.87,0.009269677033,-0.0380366595
1.88,0.007327058595,-0.03894965688
1.89,0.005326456684,-0.03975982305
1.9,0.003273384202,-0.04046392602
1.91,0.001173524885,-0.04105903089
1.92,-0.0009672827928,-0.04154250866
1.93,-0.003143062153,-0.04191204418
1.94,-0.005347715246,-0.04216564315
1.95,-0.007575040133,-0.04230163826
1.96,-0.009818748469,-0.04231869435
1.97,-0.01207248333,-0.04221581262
1.98,-0.01432983724,-0.04199233394
1.99,-0.01658437033,-0.04164794111
2,-0.01882962864,-0.04118266023
2.01,-0.02105916238,-0.04059686099
2.02,-0.02326654422,-0.03989125608
2.03,-0.02544538757,-0.03906689956
2.04,-0.02758936464,-0.03812518433
2.05,-0.02969222439,-0.03706783852
2.06,-0.03174781027,-0.0358969211
2.07,-0.03375007769,-0.03461481635
2.08,-0.03569311111,-0.03322422762
2.09,-0.03757114085,-0.03172817001
2.1,-0.03937855945,-0.03012996229
2.11,-0.04110993752,-0.02843321791
2.12,-0.04276003918,-0.02664183518
2.13,-0.04432383689,-0.02475998669
2.14,-0.04579652569,-0.0227921079
2.15,-0.04717353685,-0.02074288503
2.16,-0.04845055078,-0.01861724228
2.17,-0.04962350936,-0.01642032827
2.18,-0.0506886274,-0.01415750203
2.19,-0.0516424034,-0.01183431822
2.2,-0.05248162952,-0.009456511934
2.21,-0.0532034007,-0.00702998296
2.22,-0.05380512293,-0.004560779579
2.23,-0.05428452066,-0.002055081965
2.24,-0.05463964333,0.0004808147806
2.25,-0.05486887094,0.003040517902
2.26,-0.05497091876,0.005617554536
2.27,-0.05494484106,0.008205389471
2.28,-0.05479003391,0.01079744307
2.29,-0.05450623703,0.0133871093
2.3,-0.05409353469,0.01596777385
2.31,-0.0535523556,0.01853283225
2.32,-0.05288347195,0.02107570793
2.33,-0.05208799739,0.02358987021
2.34,-0.05116738412,0.02606885219
2.35,-0.05012341903,0.02850626838
2.36,-0.04895821894,0.03089583213
2.37,-0.04767422486,0.0332313728
2.38,-0.04627419547,0.03550685255
2.39,-0.04476119961,0.03771638277
2.4,-0.043138608,0.03985424011
2.41,-0.04141008408,0.04191488199
2.42,-0.0395795741,0.04389296166
2.43,-0.03765129642,0.04578334265
2.44,-0.03562973002,0.04758111266
2.45,-0.03351960238,0.04928159684
2.46,-0.03132587663,0.05088037034
2.47,-0.0290537381,0.05237327024
2.48,-0.02670858023,0.05375640668
2.49,-0.02429598997,0.05502617327
2.5,-0.02182173263,0.0561792567
2.51,-0.01929173626,0.05721264552
2.52,-0.01671207562,0.05812363811
2.53,-0.01408895571,0.05890984977
2.54,-0.01142869504,0.05956921894
2.55,-0.00873770854,0.06010001251
2.56,-0.006022490267,0.06050083028
2.57,-0.003289595888,0.0607706084
2.58,-0.0005456250308,0.06090862199
2.59,0.002202796467,0.06091448678
2.6,0.004949034361,0.0607881598
2.61,0.007686463797,0.06052993914
2.62,0.01040848707,0.06014046282
2.63,0.01310855127,0.05962070671
2.64,0.01578016581,0.05897198145
2.65,0.01841691969,0.0581959286
2.66,0.02101249863,0.05729451578
2.67,0.0235607018,0.05627003095
2.68,0.0260554583,0.05512507587
2.69,0.02849084319,0.05386255864
2.7,0.03086109316,0.05248568548
2.71,0.03316062171,0.05099795164
2.72,0.03538403377,0.04940313159
2.73,0.03752613986,0.04770526845
2.74,0.03958196964,0.04590866267
2.75,0.04154678475,0.04401786008
2.76,0.04341609116,0.04203763923
2.77,0.04518565065,0.03997299817
2.78,0.0468514917,0.0378291406
2.79,0.0484099196,0.03561146153
2.8,0.04985752572,0.03332553242
2.81,0.05119119609,0.03097708586
2.82,0.05240811904,0.02857199983
2.83,0.05350579211,0.02611628164
2.84,0.054482028,0.02361605148
2.85,0.05533495974,0.02107752573
2.86,0.05606304486,0.01850700004
2.87,0.05666506881,0.01591083222
2.88,0.0571401473,0.01329542501
2.89,0.05748772789,0.01066720869
2.9,0.05770759056,0.008032623765
2.91,0.05779984741,0.005398103583
2.92,0.05776494145,0.002770057006
2.93,0.05760364447,0.0001548512246
2.94,0.05731705401,-0.002441205305
2.95,0.05690658946,-0.005011879714
2.96,0.05637398728,-0.007551031331
2.97,0.05572129531,-0.010052628
2.98,0.05495086633,-0.01251076209
2.99,0.0540653507,-0.01491966604
3,0.05306768824,-0.01727372762
3.01,0.05196109937,-0.0195675046
3.02,0.05074907539,-0.02179573898
3.03,0.04943536816,-0.02395337068
3.04,0.04802397898,-0.02603555063
3.05,0.04651914689,-0.02803765324
3.06,0.04492533626,-0.02995528827
3.07,0.04324722386,-0.03178431195
3.08,0.04148968535,-0.03352083744
3.09,0.03965778119,-0.03516124455
3.1,0.03775674219,-0.03670218869
3.11,0.03579195453,-0.038140609
3.12,0.0337689444,-0.03947373573
3.13,0.03169336234,-0.04069909678
3.14,0.02957096719,-0.04181452331
3.15,0.02740760988,-0.04281815467
3.16,0.0252092169,-0.04370844226
3.17,0.02298177369,-0.04448415264
3.18,0.02073130784,-0.04514436974
3.19,0.01846387228,-0.04568849609
3.2,0.01618552836,-0.0461162533
3.21,0.01390232903,-0.04642768151
3.22,0.01162030205,-0.04662313802
3.23,0.009345433305,-0.04670329504
3.24,0.007083650296,-0.04666913654
3.25,0.004840805839,-0.04652195422
3.26,0.002622662005,-0.04626334266
3.27,0.0004348743634,-0.04589519362
3.28,-0.001717023435,-0.04541968952
3.29,-0.003827634694,-0.04483929608
3.3,-0.005891714278,-0.04415675425
3.31,-0.007904182762,-0.04337507132
3.32,-0.009860140064,-0.04249751135
3.33,-0.01175487855,-0.04152758486
3.34,-0.01358389554,-0.04046903786
3.35,-0.01534290524,-0.03932584028
3.36,-0.01702784996,-0.03810217373
3.37,-0.01863491075,-0.03680241871
3.38,-0.02016051725,-0.03543114133
3.39,-0.02160135682,-0.03399307951
3.4,-0.02295438298,-0.03249312867
3.41,-0.02421682296,-0.03093632711
3.42,-0.02538618458,-0.02932784094
3.43,-0.02646026217,-0.0276729487
3.44,-0.02743714178,-0.02597702573
3.45,-0.02831520548,-0.02424552826
3.46,-0.0290931348,-0.02248397734
3.47,-0.02976991333,-0.02069794257
3.48,-0.03034482841,-0.01889302582
3.49,-0.030817472,-0.01707484478
3.5,-0.03118774062,-0.01524901663
3.51,-0.0314558344,-0.01342114163
3.52,-0.03162225536,-0.0115967869
3.53,-0.03168780467,-0.009781470244
3.54,-0.03165357919,-0.007980644234
3.55,-0.03152096709,-0.006199680445
3.56,-0.03129164265,-0.004443854014
3.57,-0.03096756022,-0.002718328486
3.58,-0.03055094748,-0.001028141026
3.59,-0.03004429775,0.0006218119807
3.6,-0.02945036174,0.002226788873
3.61,-0.0287721384,0.003782216194
3.62,-0.02801286516,0.00528370165
3.63,-0.02717600749,0.006727046506
3.64,-0.02626524777,0.008108257409
3.65,-0.0252844736,0.009423557573
3.66,-0.0242377655,0.01066939732
3.67,-0.02312938408,0.01184246393
3.68,-0.02196375671,0.0129396908
3.69,-0.02074546371,0.01395826581
3.7,-0.01947922413,0.014895639
3.71,-0.01816988117,0.01574952944
3.72,-0.0168223872,0.01651793125
3.73,-0.01544178852,0.01719911886
3.74,-0.01403320992,0.01779165145
3.75,-0.01260183891,0.01829437644
3.76,-0.01115290989,0.01870643229
3.77,-0.009691688198,0.01902725026
3.78,-0.008223454024,0.01925655545
3.79,-0.006753486374,0.01939436689
3.8,-0.005287047021,0.01944099676
3.81,-0.003829364535,0.0193970488
3.82,-0.002385618438,0.01926341584
3.83,-0.0009609235158,0.01904127639
3.84,0.0004396856575,0.01873209055
3.85,0.001811269938,0.01833759492
3.86,0.003149000534,0.01785979685
3.87,0.004448173584,0.01730096777
3.88,0.00570422435,0.01666363578
3.89,0.006912740984,0.01595057755
3.9,0.008069477829,0.01516480937
3.91,0.009170368213,0.01430957762
3.92,0.0102115367,0.01338834843
3.93,0.01118931078,0.01240479684
3.94,0.01210023189,0.01136279521
3.95,0.01294106588,0.01026640112
3.96,0.01370881275,0.009119844743
3.97,0.01440071564,0.007927515642
3.98,0.01501426922,0.006693949162
3.99,0.01554722717,0.005423812355
4,0.01599760901,0.004121889534
4.01,0.01636370608,0.002793067471
4.02,0.01664408668,0.001442320306
4.03,0.01683760047,7.469418751E-05
4.04,0.01694338191,-0.001304708297
4.05,0.01696085298,-0.002690743855
4.06,0.0168897249,-0.00407824434
4.07,0.01672999911,-0.005462032688
4.08,0.01648196732,-0.006836938868
4.09,0.0161462107,-0.008197815822
4.1,0.01572359819,-0.009539555334
4.11,0.01521528402,-0.01085710378
4.12,0.01462270425,-0.01214547775
4.13,0.01394757261,-0.01339977938
4.14,0.01319187541,-0.01461521157
4.15,0.01235786565,-0.01578709277
4.16,0.01144805638,-0.0169108715
4.17,0.01046521322,-0.01798214049
4.18,0.009412346151,-0.01899665035
4.19,0.008292700567,-0.01995032281
4.2,0.007109747624,-0.02083926348
4.21,0.005867173901,-0.02165977401
4.22,0.004568870415,-0.02240836368
4.23,0.003218921015,-0.02308176046
4.24,0.001821590199,-0.02367692131
4.25,0.0003813103745,-0.02419104191
4.26,-0.001097331385,-0.02462156557
4.27,-0.00260960706,-0.02496619154
4.28,-0.004150661836,-0.02522288246
4.29,-0.005715528643,-0.02538987109
4.3,-0.007299143046,-0.02546566619
4.31,-0.008896358439,-0.02544905769
4.32,-0.01050196149,-0.02533912085
4.33,-0.01211068784,-0.02513521978
4.34,-0.01371723787,-0.02483700996
4.35,-0.01531629275,-0.02444443993
4.36,-0.01690253039,-0.02395775214
4.37,-0.01847064156,-0.02337748292
4.38,-0.02001534588,-0.02270446156
4.39,-0.02153140784,-0.02193980854
4.4,-0.02301365265,-0.02108493285
4.41,-0.02445698188,-0.02014152853
4.42,-0.02585638907,-0.01911157028
4.43,-0.02720697485,-0.01799730832
4.44,-0.02850396196,-0.0168012623
4.45,-0.02974270983,-0.01552621457
4.46,-0.03091872878,-0.01417520253
4.47,-0.03202769384,-0.01275151028
4.48,-0.03306545806,-0.0112586595
4.49,-0.03402806529,-0.009700399661
4.5,-0.03491176252,-0.008080697516
4.51,-0.0357130115,-0.006403725933
4.52,-0.03642849985,-0.004673852128
4.53,-0.03705515148,-0.0028956253
4.54,-0.03759013632,-0.001073763709
4.55,-0.03803087934,0.0007868587509
4.56,-0.0383750689,0.002681226463
4.57,-0.03862066421,0.004604196427
4.58,-0.03876590215,0.006550512996
4.59,-0.03880930316,0.008514822963
4.6,-0.0387496764,0.01049169095
4.61,-0.03858612402,0.01247561508
4.62,-0.03831804463,0.0144610428
4.63,-0.0379451358,0.016442387
4.64,-0.03746739584,0.01841404208
4.65,-0.0368851246,0.02037040027
4.66,-0.03619892338,0.02230586784
4.67,-0.03540969408,0.02421488139
4.68,-0.03451863735,0.026091924
4.69,-0.03352724989,0.02793154128
4.7,-0.03243732096,0.02972835733
4.71,-0.03125092795,0.03147709037
4.72,-0.02997043116,0.03317256825
4.73,-0.02859846771,0.03480974351
4.74,-0.02713794469,0.03638370826
4.75,-0.02559203148,0.03788970852
4.76,-0.02396415131,0.03932315828
4.77,-0.02225797209,0.04067965292
4.78,-0.0204773965,0.0419549823
4.79,-0.01862655142,0.04314514314
4.8,-0.01670977665,0.04424635096
4.81,-0.01473161309,0.04525505126
4.82,-0.01269679022,0.04616793016
4.83,-0.0106102131,0.04698192431
4.84,-0.008476948846,0.04769423008
4.85,-0.006302212583,0.04830231203
4.86,-0.004091353006,0.04880391059
4.87,-0.001849837523,0.04919704899
4.88,0.0004167629591,0.04948003935
4.89,0.002702789542,0.04965148795
4.9,0.005002511125,0.04971029969
4.91,0.007310140395,0.04965568165
4.92,0.009619850005,0.04948714579
4.93,0.01192578887,0.04920451083
4.94,0.01422209853,0.0488079032
4.95,0.01650292956,0.04829775712
4.96,0.01876245797,0.0476748138
4.97,0.0209949015,0.04694011977
4.98,0.02319453583,0.04609502433
4.99,0.02535571066,0.04514117614
5,0.02747286552,0.04408051894
5.01,0.02954054535,0.04291528642
5.02,0.03155341584,0.04164799628
5.03,0.03350627834,0.04028144349
5.04,0.03539408444,0.03881869271
5.05,0.03721195009,0.03726306999
5.06,0.03895516932,0.0356181537
5.07,0.04061922733,0.03388776472
5.08,0.04219981319,0.032075956
5.09,0.0436928318,0.03018700139
5.1,0.04509441537,0.0282253839
5.11,0.04640093413,0.02619578334
5.12,0.04760900649,0.02410306337
5.13,0.04871550836,0.02195225812
5.14,0.04971758182,0.01974855824
5.15,0.05061264302,0.01749729656
5.16,0.05139838924,0.01520393333
5.17,0.05207280524,0.01287404112
5.18,0.05263416868,0.0105132894
5.19,0.05308105482,0.008127428856
5.2,0.05341234028,0.005722275502
5.21,0.05362720597,0.003303694578
5.22,0.05372513917,0.0008775843608
5.23,0.05370593475,-0.001550140123
5.24,0.05356969543,-0.003973563417
5.25,0.05331683128,-0.006386785938
5.26,0.05294805827,-0.008783940217
5.27,0.052464396,-0.01115920704
5.28,0.05186716449,-0.01350683141
5.29,0.05115798025,-0.01582113834
5.3,0.05033875141,-0.01809654841
5.31,0.04941167204,-0.02032759293
5.32,0.0483792157,-0.02250892892
5.33,0.04724412819,-0.02463535363
5.34,0.04600941956,-0.0267018186
5.35,0.04467835529,-0.02870344336
5.36,0.0432544469,-0.03063552855
5.37,0.04174144177,-0.03249356854
5.38,0.04014331233,-0.0342732635
5.39,0.03846424464,-0.03597053079
5.4,0.03670862641,-0.03758151581
5.41,0.03488103438,-0.03910260209
5.42,0.03298622133,-0.04053042073
5.43,0.03102910244,-0.04186185915
5.44,0.02901474136,-0.04309406901
5.45,0.02694833582,-0.04422447343
5.46,0.02483520292,-0.04525077339
5.47,0.02268076402,-0.04617095335
5.48,0.02049052954,-0.04698328602
5.49,0.01827008335,-0.0476863363
5.5,0.01602506714,-0.04827896441
5.51,0.01376116456,-0.04876032815
5.52,0.01148408534,-0.0491298843
5.53,0.009199549338,-0.04938738916
5.54,0.006913270613,-0.04953289825
5.55,0.004630941577,-0.04956676516
5.56,0.002358217211,-0.04948963952
5.57,0.0001006994596,-0.04930246418
5.58,-0.002136078192,-0.04900647148
5.59,-0.004346665897,-0.0486031788
5.6,-0.006525712351,-0.04809438324
5.61,-0.008667979358,-0.04748215553
5.62,-0.01076835604,-0.04676883316
5.63,-0.01282187264,-0.04595701282
5.64,-0.01482371388,-0.04504954205
5.65,-0.01676923178,-0.04404951025
5.66,-0.01865395811,-0.04296023896
5.67,-0.02047361605,-0.04178527162
5.68,-0.02222413151,-0.04052836256
5.69,-0.02390164364,-0.03919346558
5.7,-0.0255025148,-0.03778472188
5.71,-0.0270233398,-0.03630644756
5.72,-0.02846095447,-0.03476312062
5.73,-0.02981244349,-0.03315936754
5.74,-0.03107514748,-0.03149994952
5.75,-0.03224666933,-0.0297897483
5.76,-0.03332487972,-0.02803375178
5.77,-0.03430792191,-0.02623703927
5.78,-0.03519421563,-0.02440476668
5.79,-0.03598246028,-0.02254215138
5.8,-0.03667163716,-0.02065445702
5.81,-0.03726101103,-0.01874697831
5.82,-0.03775013069,-0.01682502568
5.83,-0.03813882885,-0.01489391003
5.84,-0.03842722114,-0.01295892746
5.85,-0.03861570425,-0.01102534418
5.86,-0.03870495336,-0.009098381492
5.87,-0.03869591865,-0.007183201044
5.88,-0.03858982112,-0.005284890237
5.89,-0.03838814763,-0.003408447952
5.9,-0.03809264507,-0.001558770578
5.91,-0.03770531395,0.0002593616049
5.92,-0.0372284012,0.002041297639
5.93,-0.03666439224,0.003782528682
5.94,-0.03601600244,0.005478700327
5.95,-0.03528616797,0.007125624416
5.96,-0.03447803592,0.008719290322
5.97,-0.033594954,0.01025587566
5.98,-0.03264045954,0.01173175641
5.99,-0.03161826809,0.01314351641
6,-0.03053226153,0.01448795615
