"Freq [GHz]","re(S(Tx_p1,Tx_p1)) []","im(S(Tx_p1,Tx_p1)) []"
1,-0.0003844206194,-0.1049462855
1.01,-0.003753410184,-0.1039893577
1.02,-0.007078038128,-0.1029182509
1.03,-0.01035297401,-0.1017343649
1.04,-0.0135729736,-0.100439421
1.05,-0.01673289632,-0.09903545259
1.06,-0.01982772203,-0.09752479525
1.07,-0.02285256709,-0.09591007644
1.08,-0.02580269972,-0.09419420423
1.09,-0.02867355465,-0.09238035557
1.1,-0.03146074696,-0.09047196398
1.11,-0.03416008516,-0.08847270673
1.12,-0.03676758344,-0.08638649138
1.13,-0.0392794732,-0.08421744206
1.14,-0.04169221359,-0.08196988516
1.15,-0.04400250132,-0.07964833469
1.16,-0.04620727959,-0.07725747732
1.17,-0.04830374608,-0.07480215705
1.18,-0.05028936015,-0.07228735966
1.19,-0.05216184907,-0.06971819695
1.2,-0.05391921342,-0.06709989076
1.21,-0.05555973154,-0.06443775688
1.22,-0.05708196314,-0.06173718888
1.23,-0.05848475193,-0.05900364185
1.24,-0.05976722748,-0.05624261623
1.25,-0.06092880605,-0.05345964154
1.26,-0.06196919066,-0.05066026038
1.27,-0.06288837025,-0.04785001235
1.28,-0.06368661794,-0.04503441835
1.29,-0.06436448852,-0.04221896493
1.3,-0.06492281507,-0.03940908899
1.31,-0.0653627048,-0.03661016276
1.32,-0.06568553406,-0.03382747908
1.33,-0.06589294265,-0.0310662371
1.34,-0.06598682734,-0.02833152836
1.35,-0.0659693347,-0.02562832334
1.36,-0.06584285324,-0.0229614585
1.37,-0.06561000486,-0.02033562377
1.38,-0.06527363579,-0.01775535067
1.39,-0.06483680676,-0.01522500097
1.4,-0.0643027828,-0.01274875594
1.41,-0.06367502237,-0.01033060622
1.42,-0.06295716607,-0.007974342407
1.43,-0.06215302495,-0.005683546245
1.44,-0.06126656827,-0.00346158254
1.45,-0.06030191108,-0.001311591785
1.46,-0.05926330129,0.0007635164892
1.47,-0.05815510655,0.002761069621
1.48,-0.0569818009,0.004678636978
1.49,-0.05574795114,0.006514034353
1.5,-0.05445820311,0.00826532759
1.51,-0.0531172678,0.009930835448
1.52,-0.0517299074,0.01150913168
1.53,-0.05030092133,0.01299904635
1.54,-0.04883513225,0.01439966637
1.55,-0.04733737214,0.01571033527
1.56,-0.04581246844,0.01693065222
1.57,-0.04426523037,0.01806047031
1.58,-0.04270043538,0.01909989403
1.59,-0.04112281578,0.02004927612
1.6,-0.03953704573,0.02090921364
1.61,-0.0379477284,0.02168054338
1.62,-0.03635938348,0.02236433656
1.63,-0.0347764351,0.02296189291
1.64,-0.03320320007,0.02347473414
1.65,-0.03164387657,0.02390459675
1.66,-0.03010253334,0.02425342429
1.67,-0.02858309924,0.02452335908
1.68,-0.02708935344,0.02471673341
1.69,-0.02562491608,0.02483606019
1.7,-0.02419323946,0.02488402324
1.71,-0.02279759993,0.02486346708
1.72,-0.02144109023,0.02477738632
1.73,-0.02012661258,0.02462891479
1.74,-0.0188568723,0.02442131421
1.75,-0.01763437218,0.02415796271
1.76,-0.01646140745,0.02384234298
1.77,-0.01534006141,0.02347803033
1.78,-0.01427220181,0.02306868045
1.79,-0.01325947784,0.02261801717
1.8,-0.01230331789,0.02212982001
1.81,-0.0114049279,0.02160791176
1.82,-0.01056529051,0.02105614597
1.83,-0.009785164827,0.02047839451
1.84,-0.009065086914,0.01987853518
1.85,-0.008405370922,0.01926043936
1.86,-0.007806110929,0.0186279599
1.87,-0.007267183418,0.01798491906
1.88,-0.006788250397,0.01733509675
1.89,-0.006368763168,0.01668221891
1.9,-0.00600796669,0.01602994627
1.91,-0.005704904561,0.01538186332
1.92,-0.005458424559,0.01474146765
1.93,-0.005267184751,0.0141121597
1.94,-0.005129660129,0.01349723281
1.95,-0.005044149759,0.01289986375
1.96,-0.005008784413,0.01232310372
1.97,-0.005021534648,0.01176986975
1.98,-0.00508021933,0.01124293664
1.99,-0.005182514538,0.01074492942
2,-0.005325962848,0.01027831632
2.01,-0.00550798295,0.009845402293
2.02,-0.005725879568,0.009448323134
2.03,-0.005976853653,0.009089040138
2.04,-0.006258012816,0.008769335379
2.05,-0.006566381959,0.008490807591
2.06,-0.006898914086,0.008254868646
2.07,-0.007252501239,0.008062740663
2.08,-0.00762398554,0.007915453731
2.09,-0.008010170298,0.007813844259
2.1,-0.008407831149,0.00775855395
2.11,-0.008813727185,0.007750029397
2.12,-0.009224612055,0.0077885223
2.13,-0.009637244985,0.007874090299
2.14,-0.01004840169,0.008006598405
2.15,-0.01045488518,0.008185721042
2.16,-0.01085353632,0.008410944669
2.17,-0.01124124429,0.008681570972
2.18,-0.0116149567,0.008996720632
2.19,-0.01197168956,0.00935533762
2.2,-0.01230853685,0.009756194029
2.21,-0.01262267983,0.01019789542
2.22,-0.01291139599,0.01067888664
2.23,-0.01317206766,0.01119745811
2.24,-0.01340219014,0.0117517526
2.25,-0.01359937952,0.01233977233
2.26,-0.01376137995,0.01295938657
2.27,-0.01388607058,0.01360833952
2.28,-0.0139714719,0.01428425861
2.29,-0.01401575166,0.01498466303
2.3,-0.01401723027,0.01570697262
2.31,-0.01397438566,0.01644851697
2.32,-0.01388585764,0.01720654472
2.33,-0.01375045168,0.01797823316
2.34,-0.01356714217,0.01876069783
2.35,-0.01333507513,0.01955100242
2.36,-0.0130535703,0.02034616863
2.37,-0.01272212279,0.0211431862
2.38,-0.01234040402,0.02193902291
2.39,-0.01190826219,0.0227306346
2.4,-0.0114257222,0.02351497521
2.41,-0.01089298494,0.0242890067
2.42,-0.0103104261,0.02504970892
2.43,-0.009678594383,0.02579408933
2.44,-0.008998209265,0.02651919263
2.45,-0.008270158142,0.02722211016
2.46,-0.007495493026,0.02789998912
2.47,-0.006675426729,0.02855004156
2.48,-0.005811328568,0.02916955309
2.49,-0.00490471961,0.02975589139
2.5,-0.003957267465,0.03030651425
2.51,-0.002970780663,0.03081897749
2.52,-0.001947202619,0.03129094236
2.53,-0.0008886052169,0.03172018265
2.54,0.0002028179671,0.03210459137
2.55,0.001324758782,0.03244218709
2.56,0.002474801927,0.03273111976
2.57,0.003650432672,0.03296967617
2.58,0.004849044831,0.03315628488
2.59,0.00606794898,0.0332895208
2.6,0.007304380876,0.03336810913
2.61,0.008555510064,0.033390929
2.62,0.009818448633,0.03335701645
2.63,0.0110902601,0.03326556702
2.64,0.01236796838,0.03311593777
2.65,0.01364856684,0.03290764889
2.66,0.01492902741,0.03264038466
2.67,0.01620630964,0.03231399404
2.68,0.01747736981,0.03192849066
2.69,0.01873916996,0.03148405237
2.7,0.0199886869,0.03098102027
2.71,0.021222921,0.03041989725
2.72,0.02243890503,0.02980134603
2.73,0.02363371269,0.02912618679
2.74,0.02480446704,0.02839539427
2.75,0.02594834876,0.02761009446
2.76,0.02706260411,0.02677156086
2.77,0.02814455267,0.02588121026
2.78,0.02919159488,0.02494059823
2.79,0.03020121914,0.02395141408
2.8,0.03117100879,0.0229154756
2.81,0.03209864859,0.02183472331
2.82,0.03298193098,0.02071121448
2.83,0.03381876187,0.01954711679
2.84,0.03460716619,0.01834470174
2.85,0.03534529289,0.01710633775
2.86,0.03603141967,0.01583448303
2.87,0.03666395722,0.0145316783
2.88,0.03724145305,0.01320053917
2.89,0.03776259493,0.01184374851
2.9,0.03822621382,0.01046404858
2.91,0.03863128642,0.009064233043
2.92,0.03897693723,0.007647138915
2.93,0.03926244015,0.006215638439
2.94,0.03948721971,0.004772630894
2.95,0.0396508517,0.003321034405
2.96,0.03975306352,0.00186377775
2.97,0.03979373393,0.0004037921941
2.98,0.03977289245,-0.001055996608
2.99,0.0396907183,-0.002512676647
3,0.03954753887,-0.003963357475
3.01,0.03934382784,-0.005405178011
3.02,0.0390802028,-0.006835314183
3.03,0.03875742253,-0.008250986409
3.04,0.03837638386,-0.009649466882
3.05,0.03793811816,-0.01102808664
3.06,0.03744378748,-0.01238424243
3.07,0.03689468028,-0.01371540324
3.08,0.03629220691,-0.0150191167
3.09,0.03563789471,-0.01629301505
3.1,0.03493338283,-0.01753482092
3.11,0.03418041676,-0.01874235272
3.12,0.03338084262,-0.01991352973
3.13,0.03253660121,-0.02104637688
3.14,0.03164972175,-0.0221390291
3.15,0.03072231559,-0.02318973535
3.16,0.02975656955,-0.02419686232
3.17,0.02875473921,-0.02515889767
3.18,0.02771914208,-0.0260744529
3.19,0.02665215058,-0.02694226591
3.2,0.02555618497,-0.02776120302
3.21,0.0244337062,-0.02853026073
3.22,0.02328720874,-0.029248567
3.23,0.02211921332,-0.02991538215
3.24,0.02093225975,-0.03053009937
3.25,0.01972889968,-0.03109224478
3.26,0.01851168949,-0.03160147721
3.27,0.0172831831,-0.03205758747
3.28,0.01604592506,-0.03246049728
3.29,0.01480244354,-0.03281025789
3.3,0.01355524361,-0.03310704819
3.31,0.01230680055,-0.0333511726
3.32,0.01105955341,-0.03354305854
3.33,0.009815898646,-0.03368325358
3.34,0.008578184087,-0.03377242224
3.35,0.007348702991,-0.0338113425
3.36,0.006129688415,-0.03380090204
3.37,0.004923307794,-0.03374209413
3.38,0.003731657795,-0.0336360133
3.39,0.002556759434,-0.03348385073
3.4,0.001400553492,-0.03328688942
3.41,0.0002648962114,-0.03304649916
3.42,-0.0008484446816,-0.03276413123
3.43,-0.001937793653,-0.03244131301
3.44,-0.003001570704,-0.03207964233
3.45,-0.004038294384,-0.03168078178
3.46,-0.005046584469,-0.03124645278
3.47,-0.00602516429,-0.03077842966
3.48,-0.006972862725,-0.03027853355
3.49,-0.007888615832,-0.02974862626
3.5,-0.008771468137,-0.02919060411
3.51,-0.009620573575,-0.02860639173
3.52,-0.01043519607,-0.02799793582
3.53,-0.01121470977,-0.02736719899
3.54,-0.01195859896,-0.02671615356
3.55,-0.01266645757,-0.02604677542
3.56,-0.01333798845,-0.02536103806
3.57,-0.01397300219,-0.02466090651
3.58,-0.01457141572,-0.02394833156
3.59,-0.01513325056,-0.02322524395
3.6,-0.0156586307,-0.02249354887
3.61,-0.01614778031,-0.02175512042
3.62,-0.01660102106,-0.02101179642
3.63,-0.01701876918,-0.02026537327
3.64,-0.01740153232,-0.01951760111
3.65,-0.01774990607,-0.01877017912
3.66,-0.01806457031,-0.01802475109
3.67,-0.0183462853,-0.01728290125
3.68,-0.0185958876,-0.01654615023
3.69,-0.01881428575,-0.01581595146
3.7,-0.01900245581,-0.0150936877
3.71,-0.01916143671,-0.01438066787
3.72,-0.01929232549,-0.01367812421
3.73,-0.01939627239,-0.01298720974
3.74,-0.01947447582,-0.01230899589
3.75,-0.01952817727,-0.01164447061
3.76,-0.01955865609,-0.01099453664
3.77,-0.0195672243,-0.01036001019
3.78,-0.01955522125,-0.009741619812
3.79,-0.01952400835,-0.009140005708
3.8,-0.01947496375,-0.008555719251
3.81,-0.01940947702,-0.007989222854
3.82,-0.01932894389,-0.00744089013
3.83,-0.01923476104,-0.00691100636
3.84,-0.01912832089,-0.006399769245
3.85,-0.01901100658,-0.005907289958
3.86,-0.01888418691,-0.005433594477
3.87,-0.0187492115,-0.004978625195
3.88,-0.01860740604,-0.004542242796
3.89,-0.01846006764,-0.0041242284
3.9,-0.01830846039,-0.003724285951
3.91,-0.01815381108,-0.00334204485
3.92,-0.01799730504,-0.002977062818
3.93,-0.01784008225,-0.002628828976
3.94,-0.01768323362,-0.002296767137
3.95,-0.01752779744,-0.001980239287
3.96,-0.01737475616,-0.001678549247
3.97,-0.01722503329,-0.001390946504
3.98,-0.01707949061,-0.0011166302
3.99,-0.01693892557,-0.0008547532487
4,-0.01680406906,-0.0006044265861
4.01,-0.01667558326,-0.0003647235254
4.02,-0.01655405994,-0.0001346842061
4.03,-0.0164400189,8.667987828E-05
4.04,-0.01633390674,0.0003003812912
4.05,-0.01623609588,0.0005074520169
4.06,-0.0161468839,0.0007089387934
4.07,-0.01606649308,0.0009058984314
4.08,-0.01599507027,0.001099393133
4.09,-0.01593268705,0.001290485829
4.1,-0.01587934007,0.001480235544
4.11,-0.0158349518,0.001669692814
4.12,-0.01579937139,0.001859895161
4.13,-0.01577237591,0.002051862652
4.14,-0.01575367178,0.002246593539
4.15,-0.01574289648,0.002445060015
4.16,-0.01573962047,0.002648204082
4.17,-0.01574334934,0.002856933553
4.18,-0.01575352625,0.003072118201
4.19,-0.01576953451,0.00329458606
4.2,-0.01579070036,0.003525119903
4.21,-0.01581629605,0.003764453887
4.22,-0.01584554293,0.004013270397
4.23,-0.01587761491,0.004272197089
4.24,-0.0159116419,0.004541804133
4.25,-0.0159467135,0.00482260168
4.26,-0.01598188283,0.005115037552
4.27,-0.0160161704,0.005419495155
4.28,-0.01604856817,0.00573629164
4.29,-0.01607804365,0.006065676293
4.3,-0.01610354413,0.006407829181
4.31,-0.0161240009,0.00676286004
4.32,-0.01613833361,0.007130807418
4.33,-0.01614545459,0.007511638072
4.34,-0.01614427321,0.00790524662
4.35,-0.01613370029,0.008311455445
4.36,-0.01611265248,0.008730014858
4.37,-0.01608005655,0.009160603509
4.38,-0.01603485376,0.009602829055
4.39,-0.01597600408,0.01005622907
4.4,-0.01590249043,0.0105202722
4.41,-0.01581332274,0.01099435957
4.42,-0.01570754204,0.01147782639
4.43,-0.01558422433,0.01196994384
4.44,-0.01544248442,0.01246992114
4.45,-0.01528147959,0.01297690785
4.46,-0.01510041314,0.01348999635
4.47,-0.01489853775,0.01400822457
4.48,-0.01467515872,0.01453057883
4.49,-0.01442963701,0.01505599697
4.5,-0.01416139213,0.01558337152
4.51,-0.01386990477,0.01611155313
4.52,-0.0135547193,0.0166393541
4.53,-0.01321544608,0.01716555202
4.54,-0.01285176342,0.01768889359
4.55,-0.01246341949,0.01820809854
4.56,-0.01205023394,0.01872186357
4.57,-0.01161209919,0.01922886649
4.58,-0.01114898167,0.01972777036
4.59,-0.01066092267,0.02021722765
4.6,-0.01014803904,0.02069588458
4.61,-0.00961052358,0.02116238533
4.62,-0.009048645255,0.02161537637
4.63,-0.008462749111,0.02205351079
4.64,-0.007853255983,0.02247545253
4.65,-0.007220661945,0.02287988071
4.66,-0.00656553753,0.02326549379
4.67,-0.005888526707,0.02363101384
4.68,-0.005190345631,0.02397519057
4.69,-0.004471781161,0.0242968054
4.7,-0.003733689153,0.02459467543
4.71,-0.002976992546,0.02486765723
4.72,-0.00220267922,0.02511465063
4.73,-0.001411799664,0.02533460227
4.74,-0.0006054644408,0.02552650912
4.75,0.0002151585369,0.02568942178
4.76,0.001048846908,0.02582244761
4.77,0.001894326936,0.02592475381
4.78,0.002750276745,0.02599557015
4.79,0.003615329699,0.02603419169
4.8,0.004488077932,0.02603998117
4.81,0.005367075995,0.02601237128
4.82,0.006250844633,0.0259508667
4.83,0.007137874651,0.02585504593
4.84,0.008026630892,0.02572456291
4.85,0.008915556282,0.02555914838
4.86,0.009803075946,0.02535861111
4.87,0.01068760139,0.02512283875
4.88,0.01156753471,0.02485179862
4.89,0.01244127284,0.02454553813
4.9,0.01330721182,0.02420418504
4.91,0.01416375107,0.02382794749
4.92,0.01500929763,0.02341711371
4.93,0.01584227041,0.02297205164
4.94,0.01666110439,0.02249320818
4.95,0.01746425478,0.0219811083
4.96,0.01825020111,0.02143635391
4.97,0.01901745125,0.02085962247
4.98,0.01976454536,0.02025166543
4.99,0.02049005974,0.01961330647
5,0.02119261053,0.01894543946
5.01,0.02187085737,0.0182490263
5.02,0.02252350689,0.01752509455
5.03,0.02314931602,0.01677473485
5.04,0.02374709524,0.01599909819
5.05,0.02431571163,0.015199393
5.06,0.02485409171,0.01437688213
5.07,0.02536122417,0.01353287959
5.08,0.02583616241,0.01266874724
5.09,0.02627802687,0.01178589134
5.1,0.02668600716,0.01088575892
5.11,0.02705936402,0.009969834111
5.12,0.02739743104,0.009039634397
5.13,0.02769961622,0.008096706705
5.14,0.02796540324,0.0071426235
5.15,0.0281943526,0.006178978793
5.16,0.02838610248,0.005207384104
5.17,0.02854036939,0.004229464397
5.18,0.02865694863,0.003246853991
5.19,0.02873571448,0.002261192469
5.2,0.02877662022,0.00127412058
5.21,0.02877969788,0.0002872761675
5.22,0.02874505782,-0.0006977098786
5.23,0.02867288805,-0.001679217631
5.24,0.02856345335,-0.00265564208
5.25,0.02841709422,-0.003625397024
5.26,0.02823422553,-0.004586918889
5.27,0.02801533511,-0.005538670457
5.28,0.02776098201,-0.006479144506
5.29,0.02747179464,-0.007406867333
5.3,0.02714846873,-0.008320402169
5.31,0.02679176509,-0.009218352462
5.32,0.02640250723,-0.01009936503
5.33,0.02598157877,-0.01096213306
5.34,0.02552992079,-0.01180539898
5.35,0.02504852895,-0.01262795712
5.36,0.02453845053,-0.01342865627
5.37,0.02400078132,-0.01420640202
5.38,0.02343666242,-0.01496015894
5.39,0.02284727695,-0.01568895256
5.4,0.02223384662,-0.01639187119
5.41,0.02159762826,-0.0170680675
5.42,0.02093991029,-0.01771675994
5.43,0.02026200912,-0.01833723397
5.44,0.01956526544,-0.01892884305
5.45,0.01885104065,-0.01949100944
5.46,0.01812071303,-0.0200232248
5.47,0.01737567412,-0.0205250506
5.48,0.01661732496,-0.02099611832
5.49,0.01584707238,-0.02143612938
5.5,0.01506632535,-0.02184485501
5.51,0.01427649129,-0.02222213576
5.52,0.01347897252,-0.02256788094
5.53,0.01267516267,-0.02288206781
5.54,0.01186644322,-0.02316474054
5.55,0.01105418007,-0.02341600912
5.56,0.01023972027,-0.02363604793
5.57,0.009424388774,-0.02382509426
5.58,0.008609485299,-0.02398344657
5.59,0.007796281363,-0.02411146269
5.6,0.006986017382,-0.02420955778
5.61,0.006179899928,-0.02427820217
5.62,0.005379099114,-0.02431791911
5.63,0.004584746127,-0.02432928229
5.64,0.00379793091,-0.02431291338
5.65,0.003019700006,-0.02426947931
5.66,0.002251054558,-0.02419968958
5.67,0.001492948477,-0.02410429338
5.68,0.000746286788,-0.02398407669
5.69,1.19241428E-05,-0.02383985928
5.7,-0.000709336486,-0.02367249165
5.71,-0.00141674493,-0.02348285195
5.72,-0.002109604767,-0.02327184281
5.73,-0.002787274085,-0.0230403882
5.74,-0.003449166051,-0.02278943018
5.75,-0.00409474931,-0.02251992579
5.76,-0.00472354819,-0.02223284376
5.77,-0.005335142725,-0.0219291614
5.78,-0.005929168506,-0.02160986138
5.79,-0.006505316345,-0.02127592865
5.8,-0.007063331768,-0.02092834735
5.81,-0.007603014334,-0.02056809773
5.82,-0.008124216792,-0.02019615325
5.83,-0.008626844065,-0.01981347764
5.84,-0.009110852089,-0.0194210221
5.85,-0.009576246485,-0.01901972256
5.86,-0.0100230811,-0.01861049709
5.87,-0.01045145639,-0.01819424332
5.88,-0.0108615177,-0.01777183609
5.89,-0.01125345338,-0.01734412511
5.9,-0.0116274928,-0.01691193283
5.91,-0.01198390427,-0.01647605241
5.92,-0.01232299286,-0.01603724579
5.93,-0.01264509807,-0.015596242
5.94,-0.01295059149,-0.01515373552
5.95,-0.01323987436,-0.01471038482
5.96,-0.01351337504,-0.01426681112
5.97,-0.01377154643,-0.0138235972
5.98,-0.01401486339,-0.01338128645
5.99,-0.01424382007,-0.01294038208
6,-0.01445892723,-0.01250134643
