"Freq [GHz]","re(S(Tx_p1,Tx_p1)) []","im(S(Tx_p1,Tx_p1)) []"
1,-0.02726302579,-0.01847177529
1.01,-0.02802187235,-0.01702553395
1.02,-0.02870747056,-0.0155431829
1.03,-0.02931775943,-0.01402852422
1.04,-0.02985089203,-0.01248548469
1.05,-0.03030524245,-0.01091810298
1.06,-0.0306794119,-0.009330516522
1.07,-0.03097223414,-0.007726948035
1.08,-0.03118278007,-0.006111691837
1.09,-0.03131036158,-0.004489099945
1.1,-0.03135453452,-0.002863568006
1.11,-0.03131510099,-0.001239521109
1.12,-0.03119211067,0.00037860047
1.13,-0.03098586148,0.001986355571
1.14,-0.03069689928,0.003579316428
1.15,-0.03032601694,0.005153082892
1.16,-0.02987425241,0.00670329656
1.17,-0.02934288619,0.008225654751
1.18,-0.02873343784,0.009715924301
1.19,-0.02804766182,0.01116995512
1.2,-0.02728754256,0.01258369349
1.21,-0.02645528879,0.01395319503
1.22,-0.0255533271,0.01527463732
1.23,-0.02458429486,0.01654433214
1.24,-0.02355103245,0.01775873723
1.25,-0.02245657481,0.0189144677
1.26,-0.0213041424,0.02000830678
1.27,-0.02009713159,0.02103721615
1.28,-0.0188391044,0.02199834568
1.29,-0.01753377783,0.02288904253
1.3,-0.01618501259,0.02370685972
1.31,-0.01479680143,0.0244495639
1.32,-0.01337325706,0.02511514263
1.33,-0.01191859967,0.02570181081
1.34,-0.01043714406,0.02620801647
1.35,-0.008933286572,0.02663244584
1.36,-0.007411491681,0.02697402761
1.37,-0.005876278396,0.02723193649
1.38,-0.004332206497,0.02740559598
1.39,-0.002783862622,0.02749468035
1.4,-0.001235846285,0.02749911587
1.41,0.0003072441599,0.02741908118
1.42,0.001840825548,0.02725500699
1.43,0.003360343889,0.02700757489
1.44,0.004861288264,0.02667771544
1.45,0.00633920459,0.02626660545
1.46,0.007789709206,0.02577566451
1.47,0.00920850225,0.02520655081
1.48,0.01059138077,0.02456115613
1.49,0.01193425152,0.0238416002
1.5,0.01323314346,0.02305022427
1.51,0.01448421985,0.02218958409
1.52,0.0156837899,0.02126244213
1.53,0.01682832004,0.02027175927
1.54,0.01791444463,0.01922068575
1.55,0.01893897622,0.01811255167
1.56,0.0198989152,0.01695085684
1.57,0.0207914589,0.01573926019
1.58,0.0216140101,0.01448156858
1.59,0.02236418488,0.01318172531
1.6,0.0230398198,0.01184379809
1.61,0.02363897846,0.01047196667
1.62,0.02415995731,0.009070510162
1.63,0.02460129076,0.007643794012
1.64,0.02496175557,0.00619625675
1.65,0.02524037447,0.0047323965
1.66,0.02543641908,0.003256757322
1.67,0.025549412,0.001773915413
1.68,0.0255791282,0.0002884652219
1.69,0.02552559555,-0.001194994492
1.7,0.02538909472,-0.002671874599
1.71,0.02517015815,-0.004137609515
1.72,0.02486956834,-0.005587671025
1.73,0.02448835539,-0.007017581997
1.74,0.02402779375,-0.00842292993
1.75,0.02348939823,-0.009799380292
1.76,0.0228749193,-0.01114268962
1.77,0.02218633765,-0.01244871835
1.78,0.0214258581,-0.01371344327
1.79,0.02059590276,-0.0149329697
1.8,0.01969910363,-0.01610354316
1.81,0.01873829444,-0.01722156073
1.82,0.01771650202,-0.01828358185
1.83,0.01663693698,-0.01928633865
1.84,0.01550298392,-0.02022674577
1.85,0.01431819102,-0.02110190955
1.86,0.01308625928,-0.02190913675
1.87,0.01181103117,-0.02264594254
1.88,0.01049647893,-0.02331005792
1.89,0.009146692456,-0.02389943644
1.9,0.007765866895,-0.02441226032
1.91,0.00635828984,-0.02484694572
1.92,0.004928328326,-0.02520214749
1.93,0.003480415564,-0.02547676305
1.94,0.002019037493,-0.02566993557
1.95,0.0005487191842,-0.02578105645
1.96,-0.0009259888708,-0.02580976699
1.97,-0.002400524528,-0.02575595933
1.98,-0.003870327792,-0.02561977662
1.99,-0.005330854594,-0.02540161247
2,-0.006777590512,-0.02510210957
2.01,-0.008206064398,-0.02472215763
2.02,-0.009611861851,-0.02426289052
2.03,-0.01099063851,-0.02372568276
2.04,-0.01233813316,-0.02311214515
2.05,-0.01365018049,-0.02242411983
2.06,-0.01492272367,-0.02166367457
2.07,-0.01615182648,-0.02083309639
2.08,-0.01733368514,-0.01993488455
2.09,-0.0184646397,-0.01897174288
2.1,-0.019541185,-0.01794657151
2.11,-0.02055998113,-0.01686245805
2.12,-0.02151786341,-0.01572266812
2.13,-0.02241185184,-0.01453063546
2.14,-0.02323915995,-0.01328995148
2.15,-0.0239972031,-0.01200435435
2.16,-0.02468360614,-0.01067771767
2.17,-0.02529621044,-0.009314038755
2.18,-0.02583308028,-0.007917426502
2.19,-0.02629250853,-0.006492089003
2.2,-0.02667302169,-0.005042320824
2.21,-0.02697338415,-0.003572490048
2.22,-0.02719260181,-0.002087025112
2.23,-0.02732992493,-0.0005904014627
2.24,-0.02738485022,0.0009128719073
2.25,-0.02735712227,0.002418266018
2.26,-0.02724673415,0.003921245507
2.27,-0.0270539273,0.005417282247
2.28,-0.02677919069,0.006901868923
2.29,-0.02642325918,0.008370532543
2.3,-0.02598711125,0.00981884783
2.31,-0.02547196589,0.01124245046
2.32,-0.02487927881,0.01263705012
2.33,-0.024210738,0.01399844328
2.34,-0.02346825851,0.01532252582
2.35,-0.02265397661,0.01660530515
2.36,-0.02177024327,0.0178429122
2.37,-0.02081961702,0.01903161289
2.38,-0.01980485616,0.02016781922
2.39,-0.01872891044,0.02124809992
2.4,-0.01759491209,0.02226919066
2.41,-0.01640616642,0.02322800366
2.42,-0.01516614177,0.02412163687
2.43,-0.01387845912,0.0249473825
2.44,-0.01254688116,0.02570273501
2.45,-0.011175301,0.0263853985
2.46,-0.009767730434,0.02699329339
2.47,-0.00832828795,0.02752456255
2.48,-0.006861186341,0.02797757669
2.49,-0.005370720105,0.02835093911
2.5,-0.003861252585,0.02864348969
2.51,-0.00233720292,0.02885430824
2.52,-0.0008030328426,0.02898271706
2.53,0.0007367666473,0.02902828288
2.54,0.002277688676,0.02899081793
2.55,0.003815223933,0.02887038037
2.56,0.005344874098,0.02866727398
2.57,0.006862165228,0.02838204709
2.58,0.008362661063,0.02801549078
2.59,0.009841976199,0.02756863635
2.6,0.01129578911,0.02704275213
2.61,0.01271985494,0.02643933955
2.62,0.01411001813,0.02576012847
2.63,0.01546222466,0.02500707189
2.64,0.01677253405,0.02418234003
2.65,0.018037131,0.02328831367
2.66,0.01925233667,0.02232757695
2.67,0.02041461944,0.02130290953
2.68,0.02152060539,0.02021727816
2.69,0.02256708812,0.01907382778
2.7,0.02355103823,0.01787587199
2.71,0.02446961211,0.01662688307
2.72,0.02532016029,0.01533048157
2.73,0.02610023514,0.01399042543
2.74,0.02680759797,0.01261059868
2.75,0.0274402255,0.01119499981
2.76,0.02799631573,0.009747729818
2.77,0.02847429304,0.00827297991
2.78,0.02887281273,0.006775018997
2.79,0.02919076476,0.005258180937
2.8,0.0294272769,0.003726851611
2.81,0.02958171701,0.002185455847
2.82,0.0296536948,0.0006384442424
2.83,0.0296430627,-0.0009097200763
2.84,0.02954991606,-0.002454574722
2.85,0.02937459268,-0.003991671302
2.86,0.02911767151,-0.005516588615
2.87,0.02877997075,-0.007024945758
2.88,0.02836254513,-0.008512415103
2.89,0.02786668254,-0.009974735094
2.9,0.02729389999,-0.01140772285
2.91,0.02664593882,-0.01280728649
2.92,0.02592475933,-0.01416943723
2.93,0.02513253466,-0.01549030109
2.94,0.02427164413,-0.01676613032
2.95,0.02334466594,-0.01799331436
2.96,0.02235436924,-0.01916839045
2.97,0.02130370572,-0.02028805377
2.98,0.02019580058,-0.02134916702
2.99,0.01903394305,-0.02234876966
3,0.01782157639,-0.0232840864
3.01,0.01656228746,-0.02415253531
3.02,0.01525979587,-0.02495173523
3.03,0.01391794273,-0.02567951264
3.04,0.01254067904,-0.02633390783
3.05,0.01113205381,-0.02691318051
3.06,0.009696201865,-0.02741581468
3.07,0.008237331365,-0.02784052286
3.08,0.006759711207,-0.02818624965
3.09,0.005267658186,-0.02845217451
3.1,0.003765524057,-0.02863771397
3.11,0.002257682499,-0.02874252296
3.12,0.0007485160261,-0.02876649557
3.13,-0.0007575971144,-0.028709765
3.14,-0.002256296014,-0.02857270284
3.15,-0.003743250112,-0.02835591761
3.16,-0.005214172101,-0.02806025257
3.17,-0.006664830682,-0.02768678291
3.18,-0.008091063146,-0.02723681214
3.19,-0.009488787728,-0.02671186787
3.2,-0.01085401571,-0.02611369689
3.21,-0.01218286323,-0.02544425961
3.22,-0.01347156274,-0.02470572383
3.23,-0.01471647418,-0.02390045798
3.24,-0.0159140956,-0.02303102363
3.25,-0.01706107357,-0.02210016755
3.26,-0.0181542129,-0.02111081312
3.27,-0.01919048607,-0.02006605132
3.28,-0.02016704199,-0.01896913114
3.29,-0.02108121435,-0.01782344954
3.3,-0.02193052928,-0.01663254103
3.31,-0.02271271251,-0.01540006676
3.32,-0.02342569589,-0.01412980332
3.33,-0.02406762325,-0.01282563115
3.34,-0.02463685566,-0.01149152267
3.35,-0.025131976,-0.01013153014
3.36,-0.02555179286,-0.008749773302
3.37,-0.02589534373,-0.007350426826
3.38,-0.02616189754,-0.005937707601
3.39,-0.02635095647,-0.004515861909
3.4,-0.02646225703,-0.003089152542
3.41,-0.02649577044,-0.001661845865
3.42,-0.02645170233,-0.0002381988928
3.43,-0.02633049171,0.001177553588
3.44,-0.02613280918,0.002581211821
3.45,-0.02585955454,0.003968623755
3.46,-0.02551185359,0.005335697564
3.47,-0.02509105437,0.006678413962
3.48,-0.02459872261,0.007992838291
3.49,-0.0240366366,0.00927513233
3.5,-0.02340678143,0.0105215658
3.51,-0.02271134248,0.01172852753
3.52,-0.0219526985,0.01289253624
3.53,-0.02113341395,0.01401025091
3.54,-0.02025623085,0.01507848072
3.55,-0.01932406011,0.01609419453
3.56,-0.01833997227,0.01705452982
3.57,-0.01730718792,0.01795680117
3.58,-0.01622906749,0.0187985081
3.59,-0.01510910076,0.01957734242
3.6,-0.01395089593,0.02029119495
3.61,-0.01275816832,0.02093816158
3.62,-0.01153472884,0.02151654879
3.63,-0.01028447207,0.02202487843
3.64,-0.009011364177,0.02246189185
3.65,-0.007719430599,0.02282655342
3.66,-0.006412743559,0.02311805327
3.67,-0.005095409459,0.02333580937
3.68,-0.003771556175,0.02347946895
3.69,-0.002445320307,0.02354890914
3.7,-0.001120834414,0.02354423694
3.71,0.0001977857241,0.02346578851
3.72,0.001506453776,0.02331412767
3.73,0.002801125425,0.02309004383
3.74,0.004077810795,0.02279454908
3.75,0.005332586686,0.02242887472
3.76,0.006561608596,0.02199446705
3.77,0.007761122488,0.02149298253
3.78,0.008927476261,0.02092628227
3.79,0.01005713089,0.02029642591
3.8,0.01114667123,0.01960566493
3.81,0.01219281637,0.01885643528
3.82,0.01319242962,0.01805134958
3.83,0.014142528,0.01719318863
3.84,0.01504029129,0.01628489255
3.85,0.01588307051,0.01532955134
3.86,0.01666839586,0.01433039501
3.87,0.0173939842,0.01329078335
3.88,0.01805774577,0.01221419519
3.89,0.01865779049,0.0111042174
3.9,0.01919243349,0.009964533528
3.91,0.01966020004,0.008798912161
3.92,0.02005982988,0.00761119501
3.93,0.0203902808,0.006405284806
3.94,0.02065073159,0.005185133014
3.95,0.02084058426,0.003954727397
3.96,0.02095946559,0.002718079487
3.97,0.02100722802,0.001479211995
3.98,0.02098394971,0.0002421461929
3.99,0.02088993405,-0.0009891106808
4,0.02072570836,-0.002210577966
4.01,0.02049202196,-0.00341831403
4.02,0.02018984349,-0.004608428579
4.03,0.01982035761,-0.005777094803
4.04,0.01938496097,-0.006920561312
4.05,0.01888525759,-0.008035163823
4.06,0.01832305353,-0.009117336566
4.07,0.01770035098,-0.01016362338
4.08,0.01701934172,-0.01117068843
4.09,0.0162824,-0.01213532658
4.1,0.01549207487,-0.01305447334
4.11,0.01465108194,-0.01392521431
4.12,0.01376229464,-0.01474479423
4.13,0.01282873504,-0.01551062547
4.14,0.01185356409,-0.01622029601
4.15,0.01084007162,-0.01687157685
4.16,0.009791665724,-0.01746242888
4.17,0.008711861992,-0.01799100909
4.18,0.00760427226,-0.01845567621
4.19,0.006472593149,-0.01885499568
4.2,0.005320594319,-0.01918774402
4.21,0.004152106506,-0.0194529125
4.22,0.002971009378,-0.0196497101
4.23,0.001781219248,-0.01977756586
4.24,0.0005866766768,-0.01983613049
4.25,-0.0006086659883,-0.01982527733
4.26,-0.001800857107,-0.01974510253
4.27,-0.002985958224,-0.01959592461
4.28,-0.004160056503,-0.01937828329
4.29,-0.005319277069,-0.01909293766
4.3,-0.006459795223,-0.01874086357
4.31,-0.007577848497,-0.0183232505
4.32,-0.008669748501,-0.01784149759
4.33,-0.009731892531,-0.01729720915
4.34,-0.01076077491,-0.01669218943
4.35,-0.011752998,-0.01602843688
4.36,-0.0127052829,-0.01530813765
4.37,-0.01361447972,-0.01453365866
4.38,-0.01447757749,-0.01370754003
4.39,-0.01529171361,-0.01283248692
4.4,-0.01605418283,-0.01191136101
4.41,-0.0167624457,-0.01094717132
4.42,-0.01741413658,-0.009943064697
4.43,-0.018007071,-0.008902315821
4.44,-0.01853925253,-0.007828316819
4.45,-0.01900887899,-0.006724566528
4.46,-0.01941434813,-0.005594659419
4.47,-0.01975426257,-0.004442274235
4.48,-0.02002743421,-0.003271162359
4.49,-0.02023288791,-0.002085135975
4.5,-0.02036986452,-0.0008880560238
4.51,-0.02043782323,0.0003161799674
4.52,-0.02043644323,0.00152365018
4.53,-0.02036562472,0.002730420863
4.54,-0.02022548916,0.003932558725
4.55,-0.02001637889,0.005126143322
4.56,-0.01973885599,0.006307279392
4.57,-0.01939370054,0.00747210912
4.58,-0.01898190813,0.008616824263
4.59,-0.01850468671,0.009737678131
4.6,-0.01796345278,0.01083099736
4.61,-0.01735982698,0.01189319345
4.62,-0.01669562893,0.01292077404
4.63,-0.01597287157,0.0139103539
4.64,-0.0151937548,0.01485866551
4.65,-0.01436065863,0.01576256935
4.66,-0.01347613568,0.01661906373
4.67,-0.01254290322,0.01742529425
4.68,-0.01156383463,0.01817856271
4.69,-0.01054195043,0.01887633557
4.7,-0.009480408842,0.01951625192
4.71,-0.008382495901,0.02009613089
4.72,-0.007251615193,0.02061397844
4.73,-0.006091277227,0.02106799367
4.74,-0.004905088476,0.02145657443
4.75,-0.003696740121,0.02177832234
4.76,-0.002469996539,0.02203204723
4.77,-0.001228683565,0.02221677081
4.78,2.332343277E-05,0.02233172979
4.79,0.001282111625,0.02237637828
4.8,0.002543742906,0.02235038949
4.81,0.003804266157,0.02225365682
4.82,0.005059729532,0.02208629418
4.83,0.006306192757,0.02184863568
4.84,0.007539739377,0.02154123461
4.85,0.008756488924,0.02116486176
4.86,0.009952608973,0.02072050304
4.87,0.01112432704,0.02020935647
4.88,0.0122679423,0.01963282844
4.89,0.01337983703,0.01899252942
4.9,0.01445648788,0.01829026896
4.91,0.01549447674,0.01752805014
4.92,0.01649050137,0.01670806335
4.93,0.01744138556,0.01583267954
4.94,0.01834408905,0.01490444296
4.95,0.01919571682,0.01392606321
4.96,0.01999352813,0.01290040698
4.97,0.02073494493,0.01183048917
4.98,0.02141755982,0.01071946359
4.99,0.02203914348,0.009570613274
5,0.02259765155,0.008387340341
5.01,0.02309123091,0.007173155548
5.02,0.02351822535,0.005931667476
5.03,0.02387718072,0.004666571437
5.04,0.02416684932,0.003381638117
5.05,0.02438619375,0.002080701995
5.06,0.02453439011,0.0007676495695
5.07,0.02461083044,-0.0005535925631
5.08,0.02461512461,-0.00187906975
5.09,0.02454710146,-0.003204811398
5.1,0.02440680931,-0.00452684313
5.11,0.02419451578,-0.00584119895
5.12,0.02391070691,-0.007143933362
5.13,0.02355608564,-0.008431133428
5.14,0.02313156963,-0.009698930709
5.15,0.02263828836,-0.01094351306
5.16,0.0220775797,-0.01216113626
5.17,0.0214509857,-0.01334813538
5.18,0.02076024788,-0.01450093595
5.19,0.02000730182,-0.0156160648
5.2,0.01919427122,-0.01669016061
5.21,0.01832346137,-0.01771998408
5.22,0.01739735205,-0.01870242772
5.23,0.01641858994,-0.01963452526
5.24,0.01538998048,-0.02051346059
5.25,0.0143144793,-0.02133657621
5.26,0.01319518317,-0.02210138124
5.27,0.01203532053,-0.02280555885
5.28,0.01083824161,-0.02344697322
5.29,0.009607408271,-0.0240236759
5.3,0.00834638338,-0.02453391154
5.31,0.007058820013,-0.02497612314
5.32,0.005748450326,-0.0253489566
5.33,0.004419074217,-0.02565126464
5.34,0.0030745478,-0.02588211017
5.35,0.001718771709,-0.02604076891
5.36,0.000355679292,-0.02612673143
5.37,-0.001010775288,-0.0261397045
5.38,-0.002376628995,-0.02607961178
5.39,-0.003737921873,-0.0259465939
5.4,-0.005090708981,-0.02574100775
5.41,-0.006431072255,-0.0254634253
5.42,-0.00775513228,-0.02511463159
5.43,-0.00905905993,-0.02469562216
5.44,-0.01033908782,-0.02420759987
5.45,-0.0115915216,-0.02365197103
5.46,-0.01281275092,-0.02303034095
5.47,-0.01399926025,-0.02234450887
5.48,-0.01514763927,-0.02159646235
5.49,-0.01625459302,-0.02078837107
5.5,-0.01731695162,-0.01992258008
5.51,-0.01833167962,-0.01900160254
5.52,-0.01929588497,-0.01802811196
5.53,-0.02020682742,-0.01700493395
5.54,-0.02106192659,-0.01593503759
5.55,-0.02185876945,-0.01482152626
5.56,-0.02259511729,-0.01366762819
5.57,-0.02326891218,-0.01247668662
5.58,-0.02387828286,-0.01125214956
5.59,-0.02442155005,-0.009997559353
5.6,-0.02489723112,-0.008716541913
5.61,-0.0253040443,-0.007412795731
5.62,-0.02564091207,-0.006090080702
5.63,-0.02590696413,-0.004752206778
5.64,-0.02610153956,-0.003403022487
5.65,-0.0262241885,-0.002046403368
5.66,-0.02627467306,-0.000686240336
5.67,-0.02625296764,0.000673571966
5.68,-0.02615925866,0.00202914681
5.69,-0.02599394356,0.003376616974
5.7,-0.02575762919,0.004712146254
5.71,-0.02545112962,0.006031940852
5.72,-0.02507546327,0.007332260619
5.73,-0.02463184948,0.008609430107
5.74,-0.02412170441,0.009859849405
5.75,-0.02354663645,0.01108000472
5.76,-0.02290844096,0.01226647867
5.77,-0.02220909456,0.01341596029
5.78,-0.02145074878,0.01452525466
5.79,-0.02063572328,0.01559129215
5.8,-0.01976649857,0.01661113736
5.81,-0.01884570818,0.01758199748
5.82,-0.01787613052,0.01850123036
5.83,-0.01686068019,0.01936635199
5.84,-0.01580239901,0.02017504353
5.85,-0.01470444659,0.02092515786
5.86,-0.01357009069,0.02161472551
5.87,-0.01240269712,0.02224196015
5.88,-0.01120571952,0.02280526338
5.89,-0.009982688816,0.02330322909
5.9,-0.008737202484,0.02373464712
5.91,-0.007472913655,0.02409850637
5.92,-0.00619352007,0.0243939973
5.93,-0.004902752937,0.02462051377
5.94,-0.003604365701,0.02477765436
5.95,-0.002302122796,0.02486522296
5.96,-0.0009997883794,0.02488322882
5.97,0.0002988848995,0.02483188596
5.98,0.001590167063,0.02471161191
5.99,0.002870361875,0.02452302597
6,0.004135817776,0.02426694671
