"Freq [GHz]","re(S(Tx_p1,Tx_p1)) []","im(S(Tx_p1,Tx_p1)) []"
1,-0.00106457038,-0.08396042502
1.01,-0.003582511895,-0.0822688241
1.02,-0.006007047823,-0.08049736841
1.03,-0.008333986646,-0.07865004323
1.04,-0.01055936047,-0.0767311336
1.05,-0.01267944273,-0.07474520723
1.06,-0.01469076478,-0.07269709672
1.07,-0.01659013137,-0.07059188111
1.08,-0.01837463487,-0.06843486684
1.09,-0.0200416684,-0.06623156811
1.1,-0.02158893771,-0.06398768673
1.11,-0.02301447182,-0.06170909161
1.12,-0.02431663245,-0.05940179771
1.13,-0.02549412218,-0.05707194481
1.14,-0.02654599137,-0.05472577589
1.15,-0.02747164379,-0.05236961541
1.16,-0.02827084101,-0.0500098473
1.17,-0.02894370547,-0.04765289302
1.18,-0.02949072235,-0.04530518952
1.19,-0.02991274016,-0.0429731672
1.2,-0.03021097,-0.04066322809
1.21,-0.03038698371,-0.0383817241
1.22,-0.03044271072,-0.03613493553
1.23,-0.03038043365,-0.0339290499
1.24,-0.03020278285,-0.03177014109
1.25,-0.02991272966,-0.02966414892
1.26,-0.02951357859,-0.02761685918
1.27,-0.0290089584,-0.02563388423
1.28,-0.02840281209,-0.02372064412
1.29,-0.02769938586,-0.02188234844
1.3,-0.02690321707,-0.02012397872
1.31,-0.0260191213,-0.01845027173
1.32,-0.02505217837,-0.01686570348
1.33,-0.02400771765,-0.01537447401
1.34,-0.02289130243,-0.0139804932
1.35,-0.0217087136,-0.01268736732
1.36,-0.02046593258,-0.01149838671
1.37,-0.01916912358,-0.01041651427
1.38,-0.0178246153,-0.009444375159
1.39,-0.01643888205,-0.00858424738
1.4,-0.01501852438,-0.00783805354
1.41,-0.01357024931,-0.007207353677
1.42,-0.01210085015,-0.006693339206
1.43,-0.01061718607,-0.006296828
1.44,-0.009126161384,-0.006018260626
1.45,-0.007634704668,-0.005857697729
1.46,-0.006149747769,-0.005814818584
1.47,-0.004678204759,-0.005888920818
1.48,-0.003226950897,-0.006078921285
1.49,-0.00180280167,-0.006383358124
1.5,-0.0004124919699,-0.006800393947
1.51,0.0009373445293,-0.007327820194
1.52,0.002240195731,-0.007963062603
1.53,0.003489691156,-0.008703187801
1.54,0.004679621593,-0.009544910981
1.55,0.005803958319,-0.01048460466
1.56,0.006856871812,-0.01151830848
1.57,0.007832749916,-0.01264173998
1.58,0.008726215399,-0.01385030645
1.59,0.009532142848,-0.0151391176
1.6,0.01024567487,-0.01650299925
1.61,0.01086223749,-0.01793650784
1.62,0.01137755486,-0.01943394575
1.63,0.01178766295,-0.02098937743
1.64,0.01208892251,-0.02259664628
1.65,0.01227803106,-0.02424939216
1.66,0.01235203387,-0.02594106955
1.67,0.01230833402,-0.02766496637
1.68,0.0121447014,-0.02941422319
1.69,0.0118592807,-0.03118185302
1.7,0.01145059826,-0.03296076148
1.71,0.01091756793,-0.0347437673
1.72,0.01025949574,-0.03652362314
1.73,0.009476083496,-0.03829303667
1.74,0.008567431209,-0.04004469178
1.75,0.007534038422,-0.04177126991
1.76,0.006376804365,-0.04346547149
1.77,0.005097026986,-0.04512003731
1.78,0.003696400825,-0.04672776984
1.79,0.002177013757,-0.04828155443
1.8,0.0005413426126,-0.04977438033
1.81,-0.001207752326,-0.05119936144
1.82,-0.003067033925,-0.05254975674
1.83,-0.005032895881,-0.0538189904
1.84,-0.007101371466,-0.05500067143
1.85,-0.00926814331,-0.05608861286
1.86,-0.01152855419,-0.05707685037
1.87,-0.01387761881,-0.0579596604
1.88,-0.01631003652,-0.05873157752
1.89,-0.01882020492,-0.0593874112
1.9,-0.02140223441,-0.05992226179
1.91,-0.02404996352,-0.06033153579
1.92,-0.02675697501,-0.06061096021
1.93,-0.0295166128,-0.06075659612
1.94,-0.03232199952,-0.06076485131
1.95,-0.03516605475,-0.06063249199
1.96,-0.03804151385,-0.06035665349
1.97,-0.04094094736,-0.05993485008
1.98,-0.04385678088,-0.05936498358
1.99,-0.04678131539,-0.0586453511
2,-0.04970674793,-0.05777465158
2.01,-0.0526251927,-0.05675199131
2.02,-0.0555287023,-0.05557688832
2.03,-0.05840928929,-0.05424927561
2.04,-0.06125894787,-0.05276950334
2.05,-0.06406967562,-0.05113833983
2.06,-0.06683349531,-0.04935697138
2.07,-0.06954247667,-0.04742700105
2.08,-0.07218875811,-0.04535044623
2.09,-0.07476456822,-0.04312973511
2.1,-0.07726224717,-0.04076770201
2.11,-0.07967426771,-0.03826758164
2.12,-0.08199325602,-0.03563300224
2.13,-0.08421201204,-0.03286797764
2.14,-0.08632352943,-0.02997689828
2.15,-0.08832101509,-0.02696452123
2.16,-0.09019790801,-0.02383595913
2.17,-0.09194789771,-0.02059666825
2.18,-0.09356494185,-0.01725243556
2.19,-0.09504328334,-0.01380936489
2.2,-0.09637746655,-0.01027386226
2.21,-0.09756235288,-0.006652620322
2.22,-0.09859313541,-0.002952602093
2.23,-0.09946535277,0.0008189761221
2.24,-0.100174902,0.004654662466
2.25,-0.1007180508,0.008546787934
2.26,-0.1010914482,0.01248748537
2.27,-0.1012921349,0.016468709
2.28,-0.1013175523,0.0204822545
2.29,-0.1011655504,0.02451977947
2.3,-0.1008343946,0.02857282431
2.31,-0.100322772,0.03263283345
2.32,-0.09962979578,0.0366911768
2.33,-0.09875500885,0.04073917149
2.34,-0.09769838662,0.04476810375
2.35,-0.0964603382,0.04876925084
2.36,-0.09504170677,0.05273390311
2.37,-0.09344376869,0.05665338602
2.38,-0.09166823155,0.06051908202
2.39,-0.08971723102,0.06432245242
2.4,-0.08759332671,0.068055059
2.41,-0.0852994968,0.07170858538
2.42,-0.08283913163,0.07527485812
2.43,-0.0802160263,0.07874586744
2.44,-0.07743437207,0.08211378754
2.45,-0.07449874687,0.08537099648
2.46,-0.07141410473,0.08851009551
2.47,-0.06818576424,0.09152392784
2.48,-0.06481939614,0.09440559686
2.49,-0.0613210099,0.0971484836
2.5,-0.05769693949,0.09974626355
2.51,-0.05395382831,0.1021929227
2.52,-0.0500986133,0.1044827729
2.53,-0.04613850831,0.1066104662
2.54,-0.04208098675,0.1085710083
2.55,-0.03793376361,0.1103597714
2.56,-0.03370477681,0.1119725061
2.57,-0.029402168,0.1134053517
2.58,-0.02503426288,0.1146548463
2.59,-0.02060955101,0.1157179355
2.6,-0.01613666521,0.11659198
2.61,-0.01162436061,0.1172747626
2.62,-0.007081493424,0.1177644933
2.63,-0.002516999401,0.1180598142
2.64,0.002060127839,0.1181598028
2.65,0.006640858653,0.118063974
2.66,0.01121614929,0.1177722818
2.67,0.01577696382,0.1172851191
2.68,0.02031429607,0.1166033165
2.69,0.02481919138,0.1157281404
2.7,0.02928276835,0.1146612898
2.71,0.03369624022,0.1134048917
2.72,0.03805093616,0.1119614957
2.73,0.0423383221,0.1103340679
2.74,0.0465500213,0.1085259828
2.75,0.05067783442,0.1065410152
2.76,0.05471375922,0.1043833305
2.77,0.05865000963,0.1020574739
2.78,0.06247903429,0.09956835931
2.79,0.06619353454,0.09692125674
2.8,0.06978648163,0.09412177899
2.81,0.07325113332,0.09117586759
2.82,0.07658104969,0.08808977779
2.83,0.07977010813,0.08487006288
2.84,0.08281251762,0.0815235577
2.85,0.08570283199,0.07805736153
2.86,0.08843596241,0.07447882032
2.87,0.0910071889,0.07079550826
2.88,0.09341217089,0.06701520892
2.89,0.09564695682,0.06314589579
2.9,0.09770799271,0.05919571247
2.91,0.0995921297,0.05517295235
2.92,0.1012966306,0.05108603806
2.93,0.1028191754,0.04694350058
2.94,0.1041578654,0.04275395812
2.95,0.1053112269,0.03852609481
2.96,0.1062782131,0.03426863933
2.97,0.1070582055,0.02999034341
2.98,0.1076510137,0.02569996033
2.99,0.1080568744,0.02140622349
3,0.1082764494,0.01711782507
3.01,0.1083108222,0.01284339483
3.02,0.1081614939,0.008591479165
3.03,0.1078303777,0.004370520353
3.04,0.1073197925,0.0001888361985
3.05,0.1066324559,-0.003945400001
3.06,0.105771475,-0.008024179053
3.07,0.1047403378,-0.01203967499
3.08,0.1035429025,-0.01598426368
3.09,0.1021833862,-0.01985054086
3.1,0.1006663531,-0.02363133954
3.11,0.09899670106,-0.02731974679
3.12,0.09717964791,-0.03090911977
3.13,0.09522071701,-0.03439310105
3.14,0.09312572174,-0.03776563317
3.15,0.09090074943,-0.04102097231
3.16,0.08855214469,-0.04415370118
3.17,0.08608649204,-0.047158741
3.18,0.08351059798,-0.05003136255
3.19,0.08083147259,-0.05276719627
3.2,0.07805631059,-0.05536224145
3.21,0.07519247203,-0.05781287439
3.22,0.07224746259,-0.0601158555
3.23,0.06922891353,-0.06226833551
3.24,0.06614456145,-0.06426786049
3.25,0.06300222775,-0.0661123759
3.26,0.05980979802,-0.06780022958
3.27,0.05657520126,-0.06933017365
3.28,0.05330638907,-0.07070136534
3.29,0.05001131488,-0.07191336673
3.3,0.04669791321,-0.0729661435
3.31,0.04337407906,-0.07386006252
3.32,0.04004764745,-0.07459588845
3.33,0.03672637324,-0.07517477926
3.34,0.03341791119,-0.07559828073
3.35,0.03012979632,-0.07586831995
3.36,0.02686942475,-0.07598719783
3.37,0.02364403486,-0.07595758056
3.38,0.02046068906,-0.07578249025
3.39,0.01732625595,-0.07546529454
3.4,0.01424739317,-0.07500969534
3.41,0.01123053084,-0.07441971675
3.42,0.008281855659,-0.07369969213
3.43,0.005407295698,-0.07285425031
3.44,0.002612505982,-0.07188830119
3.45,-9.71451699E-05,-0.07080702045
3.46,-0.002716588978,-0.06961583375
3.47,-0.005241068177,-0.06832040019
3.48,-0.007666148102,-0.06692659525
3.49,-0.009987726867,-0.06544049314
3.5,-0.0122020446,-0.06386834871
3.51,-0.0143056917,-0.06221657887
3.52,-0.01629561613,-0.06049174372
3.53,-0.01816912969,-0.0587005272
3.54,-0.01992391329,-0.05684971757
3.55,-0.02155802112,-0.05494618763
3.56,-0.02306988389,-0.05299687473
3.57,-0.02445831094,-0.05100876073
3.58,-0.02572249129,-0.04898885177
3.59,-0.02686199366,-0.04694415822
3.6,-0.02787676546,-0.04488167443
3.61,-0.02876713064,-0.04280835882
3.62,-0.02953378659,-0.04073111396
3.63,-0.03017779995,-0.03865676689
3.64,-0.03070060139,-0.03659204979
3.65,-0.03110397942,-0.0345435808
3.66,-0.03139007317,-0.03251784539
3.67,-0.03156136422,-0.030521178
3.68,-0.03162066748,-0.02855974421
3.69,-0.03157112115,-0.02663952346
3.7,-0.03141617576,-0.02476629226
3.71,-0.03115958238,-0.02294560803
3.72,-0.03080538,-0.02118279367
3.73,-0.0303578821,-0.01948292271
3.74,-0.02982166243,-0.01785080526
3.75,-0.02920154018,-0.01629097477
3.76,-0.02850256432,-0.0148076755
3.77,-0.02772999746,-0.01340485095
3.78,-0.02688929899,-0.01208613309
3.79,-0.02598610781,-0.01085483253
3.8,-0.02502622443,-0.009713929629
3.81,-0.02401559273,-0.008666066563
3.82,-0.02296028129,-0.007713540353
3.83,-0.02186646441,-0.00685829693
3.84,-0.02074040274,-0.006101926198
3.85,-0.01958842384,-0.005445658135
3.86,-0.01841690242,-0.004890359941
3.87,-0.01723224054,-0.004436534235
3.88,-0.0160408477,-0.004084318316
3.89,-0.01484912093,-0.003833484475
3.9,-0.01366342493,-0.00368344138
3.91,-0.01249007232,-0.003633236504
3.92,-0.011335304,-0.003681559618
3.93,-0.01020526977,-0.003826747315
3.94,-0.009106009193,-0.004066788567
3.95,-0.008043432768,-0.004399331302
3.96,-0.007023303502,-0.004821689969
3.97,-0.006051218883,-0.005330854087
3.98,-0.005132593335,-0.005923497746
3.99,-0.004272641202,-0.006595990031
4,-0.003476360306,-0.007344406356
4.01,-0.002748516121,-0.008164540653
4.02,-0.002093626623,-0.009051918408
4.03,-0.001515947839,-0.01000181049
4.04,-0.001019460158,-0.01100924773
4.05,-0.0006078554289,-0.01206903625
4.06,-0.0002845248867,-0.01317577345
4.07,-5.254794871E-05,-0.01432386463
4.08,8.531809665E-05,-0.0155075402
4.09,0.0001266474698,-0.01672087341
4.1,6.935432454E-05,-0.01795779866
4.11,-8.829981008E-05,-0.01921213011
4.12,-0.0003476995918,-0.02047758079
4.13,-0.0007098704523,-0.02174778202
4.14,-0.001175474227,-0.02301630304
4.15,-0.001744805838,-0.02427667099
4.16,-0.002417791052,-0.02552239093
4.17,-0.003193985304,-0.02674696607
4.18,-0.004072573611,-0.02794391802
4.19,-0.005052371566,-0.02910680698
4.2,-0.006131827419,-0.03022925202
4.21,-0.007309025232,-0.03130495103
4.22,-0.008581689112,-0.03232770073
4.23,-0.009947188509,-0.03329141625
4.24,-0.01140254456,-0.03419015054
4.25,-0.01294443748,-0.03501811339
4.26,-0.01456921493,-0.03576969009
4.27,-0.01627290148,-0.03643945958
4.28,-0.0180512089,-0.03702221214
4.29,-0.01989954752,-0.03751296653
4.3,-0.02181303844,-0.03790698649
4.31,-0.02378652664,-0.0381997966
4.32,-0.02581459495,-0.03838719747
4.33,-0.0278915788,-0.03846528013
4.34,-0.03001158177,-0.03843043967
4.35,-0.03216849187,-0.03827938805
4.36,-0.03435599844,-0.03800916604
4.37,-0.03656760983,-0.03761715422
4.38,-0.03879667149,-0.0371010831
4.39,-0.04103638477,-0.03645904225
4.4,-0.04327982607,-0.0356894884
4.41,-0.04551996656,-0.0347912526
4.42,-0.04774969212,-0.03376354621
4.43,-0.04996182381,-0.03260596596
4.44,-0.05214913842,-0.03131849781
4.45,-0.05430438932,-0.02990151982
4.46,-0.05642032753,-0.02835580381
4.47,-0.05848972271,-0.02668251596
4.48,-0.0605053844,-0.0248832163
4.49,-0.06246018305,-0.02295985703
4.5,-0.0643470711,-0.02091477975
4.51,-0.06615910384,-0.01875071159
4.52,-0.06788946012,-0.01647076016
4.53,-0.06953146277,-0.01407840748
4.54,-0.07107859871,-0.01157750276
4.55,-0.07252453871,-0.00897225418
4.56,-0.07386315667,-0.006267219535
4.57,-0.07508854847,-0.003467295933
4.58,-0.07619505021,-0.0005777084427
4.59,-0.07717725597,0.002396002212
4.6,-0.07803003475,0.005447992902
4.61,-0.07874854693,0.008572132245
4.62,-0.07932825978,0.01176201564
4.63,-0.07976496234,0.0150109811
4.64,-0.08005477936,0.01831212594
4.65,-0.08019418445,0.02165832412
4.66,-0.08018001225,0.02504224435
4.67,-0.08000946967,0.02845636885
4.68,-0.07968014619,0.03189301264
4.69,-0.07919002305,0.03534434347
4.7,-0.0785374815,0.03880240218
4.71,-0.07772130989,0.04225912351
4.72,-0.07674070973,0.04570635731
4.73,-0.07559530061,0.04913589009
4.74,-0.07428512396,0.05253946674
4.75,-0.07281064573,0.05590881261
4.76,-0.07117275784,0.0592356556
4.77,-0.06937277854,0.06251174839
4.78,-0.06741245154,0.0657288907
4.79,-0.06529394398,0.06887895149
4.8,-0.06301984332,0.07195389108
4.81,-0.06059315289,0.07494578308
4.82,-0.05801728649,0.07784683614
4.83,-0.0552960617,0.08064941535
4.84,-0.05243369213,0.08334606338
4.85,-0.04943477857,0.0859295211
4.86,-0.04630429899,0.08839274791
4.87,-0.04304759759,0.09072894134
4.88,-0.03967037266,0.09293155628
4.89,-0.03617866363,0.09499432342
4.9,-0.03257883697,0.09691126708
4.91,-0.02887757125,0.09867672233
4.92,-0.02508184132,0.1002853513
4.93,-0.02119890158,0.1017321585
4.94,-0.01723626846,0.1030125059
4.95,-0.01320170219,0.1041221258
4.96,-0.009103187735,0.1050571343
4.97,-0.004948915225,0.1058140429
4.98,-0.0007472596348,0.1063897689
4.99,0.003493240012,0.1067816452
5,0.007763901972,0.106987429
5.01,0.01205592354,0.1070053091
5.02,0.0163604032,0.1068339123
5.03,0.02066836309,0.1064723084
5.04,0.02497077174,0.1059200143
5.05,0.029258567,0.1051769968
5.06,0.03352267914,0.1042436741
5.07,0.03775405395,0.1031209165
5.08,0.04194367592,0.1018100449
5.09,0.04608259136,0.1003128294
5.1,0.05016193138,0.09863148611
5.11,0.05417293469,0.0967686721
5.12,0.05810697018,0.09472748041
5.13,0.06195555917,0.09251143296
5.14,0.06571039736,0.09012447268
5.15,0.06936337621,0.08757095446
5.16,0.07290660401,0.0848556349
5.17,0.07633242629,0.08198366108
5.18,0.07963344565,0.07896055821
5.19,0.08280254096,0.07579221627
5.2,0.08583288581,0.07248487567
5.21,0.08871796626,0.06904511193
5.22,0.0914515977,0.0654798195
5.23,0.09402794093,0.06179619468
5.24,0.09644151727,0.0580017177
5.25,0.09868722276,0.05410413408
5.26,0.1007603414,0.05011143522
5.27,0.1026565572,0.04603183835
5.28,0.1043719657,0.04187376587
5.29,0.1059030833,0.03764582409
5.3,0.107246857,0.03335678152
5.31,0.1084006717,0.02901554668
5.32,0.1093623567,0.02463114556
5.33,0.1101301915,0.02021269875
5.34,0.1107029101,0.0157693983
5.35,0.1110797034,0.0113104844
5.36,0.1112602218,0.00684522194
5.37,0.1112445752,0.00238287698
5.38,0.1110333325,-0.00206730674
5.39,0.1106275201,-0.006496131262
5.4,0.1100286182,-0.01089446773
5.41,0.1092385569,-0.01525327949
5.42,0.1082597108,-0.01956364501
5.43,0.1070948918,-0.02381678034
5.44,0.1057473419,-0.02800406137
5.45,0.1042207236,-0.03211704547
5.46,0.1025191103,-0.03614749274
5.47,0.1006469747,-0.04008738667
5.48,0.09860917673,-0.04392895413
5.49,0.09641095035,-0.0476646848
5.5,0.09405788899,-0.05128734971
5.51,0.09155593054,-0.05479001919
5.52,0.08891134113,-0.0581660798
5.53,0.08613069814,-0.06140925055
5.54,0.0832208724,-0.06451359811
5.55,0.08018900963,-0.06747355106
5.56,0.07704251109,-0.07028391318
5.57,0.07378901372,-0.0729398757
5.58,0.0704363695,-0.07543702844
5.59,0.06699262444,-0.07777136988
5.6,0.06346599695,-0.07993931613
5.61,0.05986485584,-0.08193770871
5.62,0.05619769797,-0.08376382114
5.63,0.05247312559,-0.08541536444
5.64,0.04869982339,-0.0868904913
5.65,0.04488653547,-0.08818779915
5.66,0.04104204212,-0.08930633193
5.67,0.0371751366,-0.09024558068
5.68,0.03329460194,-0.09100548292
5.69,0.02940918778,-0.09158642074
5.7,0.02552758745,-0.09198921778
5.71,0.02165841515,-0.09221513489
5.72,0.01781018352,-0.09226586472
5.73,0.01399128145,-0.09214352506
5.74,0.01020995239,-0.09185065102
5.75,0.006474273033,-0.09139018618
5.76,0.002792132595,-0.09076547249
5.77,-0.0008287873843,-0.08998023924
5.78,-0.004381032572,-0.0890385909
5.79,-0.007857394692,-0.087944994
5.8,-0.01125092963,-0.08670426301
5.81,-0.01455497476,-0.08532154536
5.82,-0.01776316541,-0.08380230551
5.83,-0.02086945046,-0.08215230824
5.84,-0.02386810703,-0.08037760113
5.85,-0.02675375414,-0.0784844963
5.86,-0.02952136546,-0.07647955151
5.87,-0.03216628093,-0.0743695506
5.88,-0.03468421735,-0.07216148336
5.89,-0.03707127791,-0.06986252494
5.9,-0.03932396055,-0.06748001475
5.91,-0.04143916516,-0.06502143497
5.92,-0.0434141997,-0.06249438881
5.93,-0.04524678504,-0.05990657844
5.94,-0.04693505872,-0.0572657827
5.95,-0.0484775774,-0.05457983474
5.96,-0.0498733182,-0.05185659956
5.97,-0.05112167881,-0.0491039515
5.98,-0.05222247637,-0.04632975185
5.99,-0.0531759452,-0.04354182657
6,-0.05398273331,-0.04074794411
