"Freq [GHz]","re(S(Tx_p1,Tx_p1)) []","im(S(Tx_p1,Tx_p1)) []"
1,0.03820173467,-0.1354524281
1.01,0.03405170655,-0.1338733381
1.02,0.03001845132,-0.1321778066
1.03,0.02610670047,-0.1303707066
1.04,0.02232095191,-0.1284572312
1.05,0.01866545004,-0.1264428773
1.06,0.01514416692,-0.1243334272
1.07,0.01176078463,-0.1221349302
1.08,0.008518678736,-0.1198536833
1.09,0.005420903081,-0.1174962106
1.1,0.002470175718,-0.115069243
1.11,-0.0003311338299,-0.1125796966
1.12,-0.002981016012,-0.1100346506
1.13,-0.005477831379,-0.107441325
1.14,-0.00782031935,-0.1048070576
1.15,-0.01000760562,-0.1021392807
1.16,-0.01203920816,-0.09944549777
1.17,-0.01391504187,-0.09673325948
1.18,-0.01563542178,-0.09401013982
1.19,-0.01720106481,-0.09128371216
1.2,-0.01861309022,-0.08856152521
1.21,-0.01987301855,-0.0858510791
1.22,-0.02098276923,-0.08315980165
1.23,-0.02194465671,-0.08049502482
1.24,-0.02276138531,-0.07786396145
1.25,-0.02343604271,-0.07527368246
1.26,-0.02397209199,-0.0727310944
1.27,-0.02437336256,-0.07024291764
1.28,-0.02464403967,-0.06781566507
1.29,-0.02478865277,-0.06545562154
1.3,-0.02481206269,-0.06316882398
1.31,-0.02471944764,-0.06096104235
1.32,-0.02451628816,-0.0588377615
1.33,-0.02420835107,-0.0568041639
1.34,-0.02380167233,-0.05486511335
1.35,-0.02330253916,-0.05302513979
1.36,-0.02271747115,-0.05128842513
1.37,-0.0220532007,-0.04965879022
1.38,-0.0213166527,-0.04813968305
1.39,-0.02051492358,-0.04673416808
1.4,-0.0196552598,-0.04544491684
1.41,-0.01874503583,-0.04427419982
1.42,-0.01779173176,-0.04322387958
1.43,-0.01680291052,-0.04229540528
1.44,-0.01578619484,-0.0414898084
1.45,-0.01474924409,-0.04080769989
1.46,-0.01369973098,-0.04024926858
1.47,-0.01264531819,-0.03981428099
1.48,-0.01159363512,-0.03950208241
1.49,-0.01055225473,-0.03931159929
1.5,-0.009528670601,-0.039241343
1.51,-0.008530274236,-0.0392894148
1.52,-0.007564332766,-0.0394535121
1.53,-0.006637967023,-0.03973093595
1.54,-0.005758130117,-0.04011859973
1.55,-0.004931586564,-0.04061303899
1.56,-0.004164892027,-0.04121042248
1.57,-0.003464373722,-0.04190656416
1.58,-0.002836111567,-0.04269693634
1.59,-0.002285920098,-0.04357668381
1.6,-0.001819331235,-0.04454063889
1.61,-0.001441577917,-0.04558333736
1.62,-0.001157578673,-0.04669903528
1.63,-0.0009719231493,-0.04788172656
1.64,-0.0008888586491,-0.04912516126
1.65,-0.0009122777037,-0.05042286457
1.66,-0.001045706712,-0.05176815639
1.67,-0.001292295674,-0.05315417146
1.68,-0.00165480904,-0.05457387998
1.69,-0.002135617697,-0.05602010863
1.7,-0.002736692106,-0.05748556196
1.71,-0.0034595966,-0.05896284412
1.72,-0.004305484864,-0.06044448071
1.73,-0.005275096585,-0.06192294095
1.74,-0.006368755286,-0.06339065981
1.75,-0.007586367347,-0.0648400603
1.76,-0.008927422189,-0.06626357565
1.77,-0.01039099364,-0.06765367148
1.78,-0.01197574247,-0.0690028678
1.79,-0.01367992002,-0.07030376083
1.8,-0.01550137306,-0.07154904451
1.81,-0.01743754964,-0.07273153177
1.82,-0.01948550614,-0.07384417538
1.83,-0.02164191533,-0.07488008843
1.84,-0.02390307548,-0.07583256425
1.85,-0.0262649205,-0.07669509587
1.86,-0.02872303102,-0.0774613949
1.87,-0.03127264652,-0.07812540979
1.88,-0.03390867827,-0.07868134333
1.89,-0.03662572318,-0.0791236696
1.9,-0.03941807852,-0.07944715
1.91,-0.04227975744,-0.07964684861
1.92,-0.0452045052,-0.07971814662
1.93,-0.04818581617,-0.07965675594
1.94,-0.05121695143,-0.07945873194
1.95,-0.05429095712,-0.07912048515
1.96,-0.05740068316,-0.07863879208
1.97,-0.06053880272,-0.07801080501
1.98,-0.063697832,-0.07723406082
1.99,-0.06687015046,-0.07630648866
2,-0.0700480215,-0.07522641669
2.01,-0.07322361335,-0.07399257766
2.02,-0.07638902026,-0.07260411343
2.03,-0.07953628389,-0.0710605784
2.04,-0.08265741487,-0.06936194178
2.05,-0.08574441439,-0.06750858878
2.06,-0.08878929586,-0.06550132068
2.07,-0.09178410653,-0.06334135376
2.08,-0.09472094906,-0.06103031709
2.09,-0.09759200286,-0.05857024927
2.1,-0.1003895453,-0.05596359396
2.11,-0.1031059728,-0.05321319443
2.12,-0.1057338212,-0.05032228694
2.13,-0.108265786,-0.04729449306
2.14,-0.1106947426,-0.04413381101
2.15,-0.1130137652,-0.0408446059
2.16,-0.1152161457,-0.037431599
2.17,-0.117295412,-0.03389985608
2.18,-0.1192453457,-0.03025477472
2.19,-0.1210599988,-0.02650207082
2.2,-0.1227337097,-0.02264776419
2.21,-0.1242611192,-0.01869816327
2.22,-0.1256371842,-0.01465984919
2.23,-0.1268571921,-0.01053965896
2.24,-0.1279167732,-0.006344668026
2.25,-0.1288119128,-0.002082172203
2.26,-0.1295389617,0.002240331036
2.27,-0.1300946466,0.006615161774
2.28,-0.1304760781,0.01103447736
2.29,-0.1306807595,0.01549029257
2.3,-0.1307065928,0.01997450008
2.31,-0.1305518842,0.02447889131
2.32,-0.1302153492,0.02899517751
2.33,-0.1296961154,0.03351501098
2.34,-0.1289937249,0.03803000651
2.35,-0.1281081355,0.04253176282
2.36,-0.1270397202,0.047011884
2.37,-0.1257892668,0.05146200097
2.38,-0.1243579747,0.05587379272
2.39,-0.1227474519,0.06023900742
2.4,-0.1209597105,0.06454948333
2.41,-0.1189971607,0.06879716931
2.42,-0.1168626045,0.07297414503
2.43,-0.1145592275,0.07707264077
2.44,-0.1120905903,0.08108505674
2.45,-0.1094606188,0.08500398182
2.46,-0.106673593,0.08882221178
2.47,-0.1037341359,0.09253276684
2.48,-0.1006472005,0.09612890856
2.49,-0.09741805625,0.09960415597
2.5,-0.0940522753,0.102952301
2.51,-0.09055571705,0.106167423
2.52,-0.08693451258,0.1092439024
2.53,-0.08319504827,0.1121764338
2.54,-0.07934394875,0.1149600376
2.55,-0.07538805937,0.1175900711
2.56,-0.0713344281,0.1200622385
2.57,-0.067190287,0.1223725998
2.58,-0.06296303332,0.1245175789
2.59,-0.0586602102,0.1264939704
2.6,-0.05428948716,0.1282989459
2.61,-0.04985864033,0.1299300581
2.62,-0.04537553245,0.1313852452
2.63,-0.04084809294,0.1326628336
2.64,-0.0362842977,0.133761539
2.65,-0.0316921491,0.1346804675
2.66,-0.02707965594,0.1354191151
2.67,-0.02245481353,0.1359773657
2.68,-0.01782558403,0.1363554889
2.69,-0.01319987691,0.1365541365
2.7,-0.008585529787,0.1365743376
2.71,-0.003990289555,0.136417493
2.72,0.0005782060895,0.1360853691
2.73,0.005112446676,0.1355800898
2.74,0.00960506651,0.1349041286
2.75,0.01404886169,0.1340602989
2.76,0.01843680654,0.1330517444
2.77,0.02276206947,0.1318819278
2.78,0.0270180281,0.1305546191
2.79,0.03119828377,0.1290738834
2.8,0.03529667529,0.1274440675
2.81,0.03930729192,0.1256697865
2.82,0.04322448557,0.1237559091
2.83,0.04704288219,0.1217075427
2.84,0.0507573923,0.1195300181
2.85,0.05436322069,0.1172288735
2.86,0.05785587515,0.1148098381
2.87,0.06123117439,0.1122788155
2.88,0.06448525502,0.1096418665
2.89,0.06761457751,0.1069051919
2.9,0.07061593135,0.1040751149
2.91,0.07348643915,0.1011580636
2.92,0.07622355984,0.09816055281
2.93,0.07882509089,0.09508916641
2.94,0.0812891696,0.09195053935
2.95,0.08361427343,0.08875133978
2.96,0.08579921935,0.08549825122
2.97,0.08784316231,0.08219795488
2.98,0.08974559278,0.07885711217
2.99,0.09150633329,0.07548234741
3,0.09312553422,0.07208023084
3.01,0.09460366858,0.06865726193
3.02,0.095941526,0.06521985304
3.03,0.09714020586,0.06177431356
3.04,0.09820110967,0.05832683441
3.05,0.09912593253,0.05488347309
3.06,0.09991665403,0.05145013922
3.07,0.1005755283,0.04803258073
3.08,0.1011050732,0.04463637056
3.09,0.1015080595,0.04126689406
3.1,0.1017874985,0.03792933704
3.11,0.10194663,0.03462867455
3.12,0.1019889088,0.03136966036
3.13,0.101917992,0.0281568172
3.14,0.101737724,0.02499442784
3.15,0.1014521233,0.02188652687
3.16,0.1010653666,0.01883689342
3.17,0.1005817749,0.01584904464
3.18,0.1000057974,0.01292623004
3.19,0.09934199617,0.01007142674
3.2,0.09859503073,0.007287335552
3.21,0.09776964187,0.00457637798
3.22,0.09687063588,0.001940694054
3.23,0.09590286866,-0.0006178589011
3.24,0.09487122971,-0.003097706637
3.25,0.09378062636,-0.005497557474
3.26,0.092635968,-0.007816400911
3.27,0.09144215054,-0.01005350538
3.28,0.09020404103,-0.01220841517
3.29,0.08892646258,-0.01428094645
3.3,0.0876141796,-0.01627118258
3.31,0.08627188331,-0.01817946853
3.32,0.08490417772,-0.02000640458
3.33,0.08351556601,-0.02175283923
3.34,0.08211043737,-0.02341986146
3.35,0.0806930544,-0.0250087922
3.36,0.07926754099,-0.02652117523
3.37,0.07783787086,-0.0279587674
3.38,0.07640785662,-0.02932352827
3.39,0.07498113959,-0.03061760921
3.4,0.07356118018,-0.03184334197
3.41,0.07215124907,-0.0330032268
3.42,0.07075441903,-0.03409992007
3.43,0.06937355756,-0.03513622163
3.44,0.06801132022,-0.03611506167
3.45,0.0666701448,-0.03703948738
3.46,0.06535224627,-0.03791264934
3.47,0.06405961247,-0.03873778767
3.48,0.06279400073,-0.03951821806
3.49,0.06155693517,-0.04025731761
3.5,0.06034970496,-0.04095851071
3.51,0.05917336324,-0.04162525481
3.52,0.05802872703,-0.04226102621
3.53,0.05691637779,-0.04286930603
3.54,0.05583666289,-0.04345356612
3.55,0.05478969782,-0.0440172553
3.56,0.05377536919,-0.04456378572
3.57,0.05279333851,-0.04509651941
3.58,0.05184304665,-0.0456187553
3.59,0.05092371914,-0.04613371635
3.6,0.05003437205,-0.04664453721
3.61,0.0491738186,-0.04715425221
3.62,0.04834067646,-0.04766578381
3.63,0.04753337557,-0.04818193152
3.64,0.04675016667,-0.04870536137
3.65,0.04598913029,-0.04923859581
3.66,0.04524818633,-0.04978400432
3.67,0.0445251041,-0.05034379451
3.68,0.04381751282,-0.05092000386
3.69,0.04312291258,-0.05151449212
3.7,0.0424386856,-0.05212893438
3.71,0.04176210789,-0.05276481474
3.72,0.04109036123,-0.0534234208
3.73,0.04042054535,-0.05410583871
3.74,0.03974969038,-0.05481294909
3.75,0.03907476946,-0.05554542352
3.76,0.03839271148,-0.05630372189
3.77,0.03770041397,-0.05708809041
3.78,0.03699475599,-0.05789856036
3.79,0.03627261103,-0.05873494766
3.8,0.03553085998,-0.05959685302
3.81,0.03476640389,-0.06048366298
3.82,0.03397617676,-0.06139455156
3.83,0.03315715813,-0.06232848266
3.84,0.03230638544,-0.0632842132
3.85,0.03142096628,-0.06426029682
3.86,0.03049809029,-0.06525508845
3.87,0.02953504082,-0.06626674934
3.88,0.02852920624,-0.06729325283
3.89,0.0274780909,-0.06833239075
3.9,0.02637932571,-0.06938178034
3.91,0.02523067828,-0.07043887181
3.92,0.02403006264,-0.07150095637
3.93,0.02277554841,-0.07256517488
3.94,0.02146536957,-0.07362852689
3.95,0.02009793265,-0.0746878802
3.96,0.0186718243,-0.07573998082
3.97,0.01718581843,-0.07678146337
3.98,0.01563888265,-0.07780886178
3.99,0.01403018414,-0.0788186204
4,0.01235909486,-0.07980710535
4.01,0.0106251962,-0.08077061615
4.02,0.008828282871,-0.0817053976
4.03,0.006968366221,-0.08260765186
4.04,0.005045676838,-0.0834735506
4.05,0.003060666487,-0.08429924742
4.06,0.001014009365,-0.08508089019
4.07,-0.001093397331,-0.0858146336
4.08,-0.003260433515,-0.08649665155
4.09,-0.005485757011,-0.08712314968
4.1,-0.007767805028,-0.0876903777
4.11,-0.01010479631,-0.08819464171
4.12,-0.01249473397,-0.08863231633
4.13,-0.01493540894,-0.08899985669
4.14,-0.01742440413,-0.0892938102
4.15,-0.01995909914,-0.08951082808
4.16,-0.0225366757,-0.08964767662
4.17,-0.02515412363,-0.0897012481
4.18,-0.02780824737,-0.08966857146
4.19,-0.03049567319,-0.08954682245
4.2,-0.03321285681,-0.08933333356
4.21,-0.03595609166,-0.08902560336
4.22,-0.03872151753,-0.08862130548
4.23,-0.04150512977,-0.08811829709
4.24,-0.04430278892,-0.08751462683
4.25,-0.04711023071,-0.0868085423
4.26,-0.04992307654,-0.08599849689
4.27,-0.05273684419,-0.08508315611
4.28,-0.05554695898,-0.08406140333
4.29,-0.05834876515,-0.0829323449
4.3,-0.06113753748,-0.08169531464
4.31,-0.06390849322,-0.08034987772
4.32,-0.06665680412,-0.07889583387
4.33,-0.06937760868,-0.07733322
4.34,-0.07206602445,-0.07566231206
4.35,-0.07471716048,-0.07388362637
4.36,-0.0773261298,-0.07199792016
4.37,-0.07988806185,-0.07000619152
4.38,-0.08239811498,-0.06790967866
4.39,-0.08485148881,-0.06570985852
4.4,-0.08724343654,-0.06340844471
4.41,-0.08956927707,-0.06100738482
4.42,-0.09182440704,-0.05850885708
4.43,-0.09400431258,-0.05591526638
4.44,-0.09610458087,-0.05322923973
4.45,-0.09812091143,-0.05045362103
4.46,-0.1000491271,-0.04759146532
4.47,-0.1018851847,-0.0446460325
4.48,-0.1036251852,-0.04162078039
4.49,-0.105265384,-0.03851935738
4.5,-0.1068021999,-0.0353455945
4.51,-0.1082322245,-0.0321034971
4.52,-0.1095522308,-0.02879723596
4.53,-0.1107591809,-0.02543113812
4.54,-0.1118502343,-0.02200967718
4.55,-0.1128227542,-0.01853746331
4.56,-0.1136743146,-0.01501923293
4.57,-0.1144027058,-0.01145983804
4.58,-0.1150059403,-0.007864235313
4.59,-0.1154822572,-0.004237474914
4.6,-0.1158301266,-0.0005846891452
4.61,-0.1160482529,0.003088919111
4.62,-0.1161355785,0.006778088083
4.63,-0.1160912853,0.01047750891
4.64,-0.1159147971,0.01418183752
4.65,-0.1156057806,0.01788570656
4.66,-0.1151641457,0.02158373733
4.67,-0.1145900457,0.02527055165
4.68,-0.1138838764,0.0289407838
4.69,-0.113046275,0.0325890922
4.7,-0.1120781181,0.03621017113
4.71,-0.1109805191,0.03979876216
4.72,-0.1097548255,0.04334966556
4.73,-0.1084026148,0.04685775134
4.74,-0.1069256908,0.05031797017
4.75,-0.1053260787,0.05372536398
4.76,-0.1036060198,0.05707507628
4.77,-0.101767966,0.0603623622
4.78,-0.09981457361,0.06358259814
4.79,-0.09774869646,0.06673129109
4.8,-0.09557337912,0.06980408756
4.81,-0.09329184928,0.0727967821
4.82,-0.09090750995,0.07570532543
4.83,-0.08842393114,0.0785258321
4.84,-0.08584484136,0.08125458767
4.85,-0.08317411872,0.08388805551
4.86,-0.08041578172,0.08642288304
4.87,-0.07757397986,0.08885590748
4.88,-0.07465298394,0.09118416115
4.89,-0.07165717621,0.0934048762
4.9,-0.06859104028,0.09551548886
4.91,-0.06545915095,0.09751364312
4.92,-0.06226616385,0.09939719396
4.93,-0.05901680502,0.1011642099
4.94,-0.05571586044,0.1028129753
4.95,-0.05236816544,0.1043419918
4.96,-0.04897859421,0.1057499791
4.97,-0.04555204922,0.1070358762
4.98,-0.04209345074,0.1081988406
4.99,-0.03860772642,0.1092382483
5,-0.03509980094,0.1101536925
5.01,-0.03157458578,0.1109449821
5.02,-0.02803696917,0.1116121398
5.03,-0.02449180618,0.1121553993
5.04,-0.02094390897,0.1125752025
5.05,-0.01739803731,0.112872196
5.06,-0.01385888933,0.1130472271
5.07,-0.01033109245,0.1131013395
5.08,-0.006819194704,0.1130357686
5.09,-0.003327656255,0.1128519362
5.1,0.0001391587027,0.1125514451
5.11,0.003576989746,0.1121360731
5.12,0.006981687666,0.1116077664
5.13,0.01034922155,0.1109686339
5.14,0.01367568547,0.1102209394
5.15,0.01695730481,0.1093670947
5.16,0.02019044216,0.1084096524
5.17,0.0233716028,0.1073512981
5.18,0.0264974398,0.1061948423
5.19,0.02956475858,0.1049432123
5.2,0.03257052118,0.1035994445
5.21,0.03551184997,0.1021666751
5.22,0.03838603092,0.1006481323
5.23,0.0411905165,0.09904712733
5.24,0.04392292797,0.09736704569
5.25,0.04658105741,0.09561133855
5.26,0.04916286909,0.09378351389
5.27,0.05166650053,0.09188712766
5.28,0.05409026303,0.08992577505
5.29,0.05643264179,0.08790308174
5.3,0.05869229554,0.08582269526
5.31,0.06086805577,0.08368827637
5.32,0.06295892555,0.08150349061
5.33,0.06496407784,0.07927199998
5.34,0.06688285346,0.07699745479
5.35,0.06871475866,0.0746834856
5.36,0.07045946226,0.07233369547
5.37,0.07211679245,0.06995165234
5.38,0.07368673318,0.06754088173
5.39,0.07516942027,0.06510485957
5.4,0.07656513711,0.06264700543
5.41,0.07787431013,0.06017067594
5.42,0.0790975039,0.05767915854
5.43,0.08023541598,0.05517566558
5.44,0.08128887153,0.05266332868
5.45,0.0822588176,0.05014519347
5.46,0.08314631732,0.04762421467
5.47,0.08395254381,0.04510325152
5.48,0.08467877386,0.04258506358
5.49,0.08532638162,0.04007230693
5.5,0.08589683194,0.03756753065
5.51,0.0863916738,0.03507317385
5.52,0.08681253345,0.03259156291
5.53,0.08716110765,0.03012490922
5.54,0.08743915674,0.02767530729
5.55,0.08764849775,0.0252447332
5.56,0.08779099746,0.02283504351
5.57,0.08786856549,0.02044797447
5.58,0.08788314743,0.0180851417
5.59,0.087836718,0.01574804017
5.6,0.08773127434,0.0134380446
5.61,0.08756882933,0.01115641017
5.62,0.08735140504,0.008904273656
5.63,0.08708102638,0.006682654819
5.64,0.08675971476,0.004492458215
5.65,0.08638948207,0.002334475264
5.66,0.08597232474,0.0002093866617
5.67,0.08551021802,-0.001882234925
5.68,0.08500511053,-0.003939921872
5.69,0.08445891892,-0.00596330835
5.7,0.08387352291,-0.007952126812
5.71,0.08325076047,-0.009906204253
5.72,0.08259242329,-0.01182545824
5.73,0.08190025258,-0.01370989273
5.74,0.08117593506,-0.01555959373
5.75,0.08042109932,-0.01737472473
5.76,0.07963731239,-0.01915552203
5.77,0.07882607671,-0.02090228993
5.78,0.07798882733,-0.02261539574
5.79,0.07712692944,-0.02429526476
5.8,0.07624167623,-0.02594237518
5.81,0.07533428703,-0.02755725281
5.82,0.07440590581,-0.02914046593
5.83,0.07345759995,-0.03069261993
5.84,0.07249035934,-0.0322143521
5.85,0.07150509581,-0.03370632629
5.86,0.07050264281,-0.03516922774
5.87,0.06948375548,-0.03660375775
5.88,0.06844911095,-0.03801062863
5.89,0.06739930892,-0.03939055855
5.9,0.0663348726,-0.04074426655
5.91,0.0652562499,-0.04207246766
5.92,0.0641638148,-0.04337586808
5.93,0.06305786915,-0.04465516057
5.94,0.06193864457,-0.0459110199
5.95,0.06080630467,-0.04714409855
5.96,0.05966094751,-0.04835502245
5.97,0.05850260822,-0.04954438704
5.98,0.05733126186,-0.05071275341
5.99,0.05614682653,-0.05186064472
6,0.05494916656,-0.05298854273
