"Freq [GHz]","re(S(Tx_p1,Tx_p1)) []","im(S(Tx_p1,Tx_p1)) []"
1,-0.002298241101,-0.0996717822
1.01,-0.00546423616,-0.09863395011
1.02,-0.008579851926,-0.0974898179
1.03,-0.01164011526,-0.09624123329
1.04,-0.01464016754,-0.09489034623
1.05,-0.01757528113,-0.09343959816
1.06,-0.02044087506,-0.09189171066
1.07,-0.02323252993,-0.09024967344
1.08,-0.02594600202,-0.08851673174
1.09,-0.02857723659,-0.0866963732
1.1,-0.03112238029,-0.0847923143
1.11,-0.03357779276,-0.08280848619
1.12,-0.03594005735,-0.08074902022
1.13,-0.03820599091,-0.07861823302
1.14,-0.04037265275,-0.07642061123
1.15,-0.04243735261,-0.07416079603
1.16,-0.04439765779,-0.07184356726
1.17,-0.04625139934,-0.06947382746
1.18,-0.04799667724,-0.06705658567
1.19,-0.04963186479,-0.06459694118
1.2,-0.05115561196,-0.06210006712
1.21,-0.05256684788,-0.0595711941
1.22,-0.0538647824,-0.05701559384
1.23,-0.0550489067,-0.05443856285
1.24,-0.05611899305,-0.05184540625
1.25,-0.05707509367,-0.04924142174
1.26,-0.05791753868,-0.04663188373
1.27,-0.05864693325,-0.04402202776
1.28,-0.05926415384,-0.04141703521
1.29,-0.05977034372,-0.03882201828
1.3,-0.06016690755,-0.03624200539
1.31,-0.06045550537,-0.03368192697
1.32,-0.06063804567,-0.03114660169
1.33,-0.06071667787,-0.02864072318
1.34,-0.06069378403,-0.02616884722
1.35,-0.06057196998,-0.02373537958
1.36,-0.0603540558,-0.0213445643
1.37,-0.06004306564,-0.01900047269
1.38,-0.05964221715,-0.01670699295
1.39,-0.05915491025,-0.01446782035
1.4,-0.0585847155,-0.01228644825
1.41,-0.05793536202,-0.0101661597
1.42,-0.05721072506,-0.008110019789
1.43,-0.05641481312,-0.006120868819
1.44,-0.05555175487,-0.004201316109
1.45,-0.05462578576,-0.002353734647
1.46,-0.05364123438,-0.000580256498
1.47,-0.0526025087,0.001117231009
1.48,-0.05151408214,0.002737088302
1.49,-0.05038047954,0.004277925791
1.5,-0.04920626313,0.005738605305
1.51,-0.04799601844,0.007118240738
1.52,-0.04675434032,0.008416197909
1.53,-0.04548581895,0.009632093641
1.54,-0.04419502606,0.01076579407
1.55,-0.04288650131,0.0118174122
1.56,-0.04156473879,0.01278730471
1.57,-0.04023417391,0.013676068
1.58,-0.03889917044,0.0144845336
1.59,-0.03756400796,0.01521376279
1.6,-0.03623286965,0.01586504065
1.61,-0.03490983048,0.01643986933
1.62,-0.0335988458,0.01693996086
1.63,-0.03230374043,0.01736722921
1.64,-0.03102819825,0.0177237819
1.65,-0.02977575224,0.01801191097
1.66,-0.02854977519,0.01823408354
1.67,-0.02735347086,0.01839293184
1.68,-0.02618986581,0.01849124281
1.69,-0.02506180184,0.01853194728
1.7,-0.02397192905,0.01851810882
1.71,-0.0229226996,0.01845291227
1.72,-0.02191636204,0.01833965187
1.73,-0.02095495646,0.01818171927
1.74,-0.02004031024,0.01798259125
1.75,-0.01917403451,0.01774581729
1.76,-0.01835752138,0.01747500696
1.77,-0.01759194182,0.01717381727
1.78,-0.0168782443,0.01684593995
1.79,-0.01621715411,0.01649508869
1.8,-0.01560917341,0.0161249864
1.81,-0.01505458204,0.01573935258
1.82,-0.01455343892,0.01534189073
1.83,-0.01410558425,0.01493627596
1.84,-0.01371064236,0.01452614273
1.85,-0.0133680252,0.01411507281
1.86,-0.01307693653,0.01370658356
1.87,-0.01283637672,0.01330411636
1.88,-0.0126451482,0.01291102551
1.89,-0.01250186146,0.01253056739
1.9,-0.0124049417,0.01216589003
1.91,-0.01235263594,0.0118200231
1.92,-0.0123430208,0.01149586834
1.93,-0.01237401058,0.01119619048
1.94,-0.01244336605,0.01092360862
1.95,-0.01254870347,0.01068058817
1.96,-0.01268750415,0.01046943334
1.97,-0.01285712439,0.01029228014
1.98,-0.01305480569,0.01015109002
1.99,-0.01327768533,0.0100476441
2,-0.01352280726,0.009983538006
2.01,-0.01378713316,0.009960177333
2.02,-0.01406755374,0.009978773768
2.03,-0.01436090026,0.01004034185
2.04,-0.01466395611,0.01014569637
2.05,-0.01497346854,0.0102954505
2.06,-0.01528616041,0.01049001448
2.07,-0.01559874205,0.01072959505
2.08,-0.01590792296,0.01101419557
2.09,-0.01621042364,0.01134361668
2.1,-0.01650298717,0.01171745778
2.11,-0.01678239079,0.012135119
2.12,-0.01704545723,0.01259580392
2.13,-0.01728906593,0.0130985229
2.14,-0.017510164,0.01364209695
2.15,-0.01770577686,0.01422516234
2.16,-0.01787301871,0.01484617564
2.17,-0.01800910254,0.01550341945
2.18,-0.01811134994,0.0161950086
2.19,-0.01817720036,0.01691889692
2.2,-0.0182042201,0.01767288448
2.21,-0.01819011077,0.01845462533
2.22,-0.01813271734,0.01926163568
2.23,-0.01803003569,0.0200913025
2.24,-0.01788021965,0.02094089253
2.25,-0.01768158749,0.02180756163
2.26,-0.01743262791,0.02268836452
2.27,-0.01713200546,0.02358026474
2.28,-0.01677856533,0.02448014496
2.29,-0.01637133761,0.0253848175
2.3,-0.01590954093,0.02629103505
2.31,-0.01539258544,0.02719550155
2.32,-0.01482007529,0.02809488325
2.33,-0.01419181034,0.02898581981
2.34,-0.01350778734,0.02986493556
2.35,-0.01276820045,0.03072885068
2.36,-0.01197344115,0.03157419245
2.37,-0.01112409745,0.03239760647
2.38,-0.0102209526,0.03319576775
2.39,-0.009264983073,0.03396539176
2.4,-0.00825735598,0.03470324527
2.41,-0.007199425895,0.03540615709
2.42,-0.006092731078,0.03607102856
2.43,-0.004938989121,0.03669484379
2.44,-0.003740092043,0.03727467968
2.45,-0.00249810083,0.03780771559
2.46,-0.001215239459,0.03829124274
2.47,0.0001061115878,0.03872267316
2.48,0.001463422297,0.03909954837
2.49,0.002854020553,0.03941954756
2.5,0.004275100013,0.0396804954
2.51,0.005723728383,0.03988036934
2.52,0.0071968561,0.04001730648
2.53,0.00869132535,0.04008960992
2.54,0.01020387943,0.04009575457
2.55,0.01173117243,0.04003439249
2.56,0.01326977911,0.03990435764
2.57,0.01481620514,0.03970467002
2.58,0.01636689744,0.03943453939
2.59,0.01791825473,0.03909336821
2.6,0.01946663825,0.03868075416
2.61,0.02100838258,0.03819649196
2.62,0.02253980648,0.03764057462
2.63,0.02405722386,0.03701319412
2.64,0.02555695472,0.0363147414
2.65,0.02703533605,0.03554580585
2.66,0.0284887327,0.03470717412
2.67,0.02991354817,0.03379982837
2.68,0.03130623524,0.03282494395
2.69,0.03266330649,0.03178388644
2.7,0.03398134457,0.03067820816
2.71,0.03525701238,0.02950964415
2.72,0.03648706283,0.02828010751
2.73,0.0376683485,0.02699168433
2.74,0.03879783086,0.02564662803
2.75,0.03987258922,0.02424735317
2.76,0.04088982933,0.02279642891
2.77,0.0418468916,0.0212965719
2.78,0.04274125884,0.01975063876
2.79,0.0435705637,0.0181616182
2.8,0.04433259553,0.01653262272
2.81,0.04502530684,0.01486687991
2.82,0.04564681929,0.01316772353
2.83,0.04619542911,0.01143858416
2.84,0.04666961202,0.009682979647
2.85,0.04706802769,0.007904505301
2.86,0.04738952351,0.006106823854
2.87,0.04763313796,0.004293655246
2.88,0.04779810328,0.002468766245
2.89,0.04788384765,0.0006359599622
2.9,0.04788999676,-0.001200934745
2.91,0.04781637485,-0.003038073916
2.92,0.04766300504,-0.004871609159
2.93,0.04743010924,-0.006697698326
2.94,0.04711810736,-0.008512516144
2.95,0.046727616,-0.01031226478
2.96,0.04625944652,-0.01209318432
2.97,0.04571460263,-0.01385156307
2.98,0.04509427734,-0.01558374777
2.99,0.04439984937,-0.01728615357
3,0.04363287911,-0.01895527377
3.01,0.04279510395,-0.02058768934
3.02,0.04188843318,-0.02218007819
3.03,0.04091494236,-0.02372922405
3.04,0.03987686727,-0.02523202511
3.05,0.03877659735,-0.02668550226
3.06,0.03761666872,-0.02808680696
3.07,0.03639975686,-0.02943322869
3.08,0.03512866879,-0.03072220204
3.09,0.03380633501,-0.03195131326
3.1,0.03243580101,-0.03311830646
3.11,0.0310202185,-0.03422108922
3.12,0.02956283641,-0.03525773781
3.13,0.02806699152,-0.03622650185
3.14,0.026536099,-0.03712580842
3.15,0.02497364264,-0.03795426572
3.16,0.02338316499,-0.03871066614
3.17,0.02176825732,-0.03939398874
3.18,0.02013254946,-0.04000340131
3.19,0.01847969965,-0.04053826171
3.2,0.01681338422,-0.04099811877
3.21,0.01513728734,-0.04138271258
3.22,0.0134550908,-0.04169197422
3.23,0.01177046376,-0.04192602494
3.24,0.01008705262,-0.0420851748
3.25,0.008408471047,-0.04216992073
3.26,0.006738290029,-0.04218094408
3.27,0.005080028196,-0.04211910762
3.28,0.003437142283,-0.04198545205
3.29,0.001813017835,-0.04178119194
3.3,0.0002109601562,-0.04150771126
3.31,-0.001365814463,-0.04116655837
3.32,-0.002914187214,-0.04075944055
3.33,-0.004431144914,-0.04028821813
3.34,-0.0059137878,-0.03975489815
3.35,-0.007359336949,-0.03916162765
3.36,-0.008765141304,-0.03851068652
3.37,-0.01012868429,-0.03780448011
3.38,-0.01144758998,-0.03704553133
3.39,-0.01271962887,-0.0362364726
3.4,-0.0139427231,-0.03538003745
3.41,-0.01511495125,-0.0344790518
3.42,-0.01623455268,-0.03353642517
3.43,-0.01729993126,-0.03255514147
3.44,-0.01830965869,-0.03153824983
3.45,-0.01926247727,-0.03048885513
3.46,-0.02015730211,-0.02941010846
3.47,-0.02099322281,-0.02830519755
3.48,-0.02176950468,-0.02717733703
3.49,-0.02248558934,-0.02602975876
3.5,-0.02314109478,-0.02486570212
3.51,-0.02373581498,-0.02368840431
3.52,-0.02426971889,-0.02250109075
3.53,-0.02474294893,-0.02130696558
3.54,-0.02515581898,-0.02010920219
3.55,-0.02550881185,-0.01891093401
3.56,-0.02580257623,-0.01771524542
3.57,-0.02603792315,-0.01652516284
3.58,-0.02621582203,-0.01534364608
3.59,-0.02633739612,-0.01417357996
3.6,-0.02640391767,-0.01301776618
3.61,-0.02641680252,-0.01187891548
3.62,-0.02637760436,-0.01075964016
3.63,-0.02628800856,-0.00966244695
3.64,-0.02614982565,-0.008589730206
3.65,-0.02596498443,-0.00754376555
3.66,-0.02573552475,-0.006526703871
3.67,-0.02546358997,-0.005540565779
3.68,-0.02515141924,-0.004587236481
3.69,-0.02480133932,-0.003668461125
3.7,-0.02441575639,-0.0027858406
3.71,-0.02399714754,-0.00194082782
3.72,-0.02354805206,-0.001134724494
3.73,-0.02307106266,-0.000368678392
3.74,-0.02256881655,0.0003563188833
3.75,-0.02204398638,0.00103943362
3.76,-0.02149927114,0.001679991207
3.77,-0.0209373871,0.00227747683
3.78,-0.02036105859,0.002831535652
3.79,-0.01977300897,0.003341972484
3.8,-0.01917595152,0.003808750946
3.81,-0.0185725805,0.004231992115
3.82,-0.01796556225,0.004611972682
3.83,-0.01735752649,0.004949122611
3.84,-0.01675105771,0.005244022316
3.85,-0.01614868683,0.005497399372
3.86,-0.01555288298,0.005710124747
3.87,-0.01496604563,0.005883208611
3.88,-0.0143904969,0.006017795691
3.89,-0.01382847419,0.006115160221
3.9,-0.01328212309,0.00617670049
3.91,-0.01275349071,0.006203933007
3.92,-0.01224451921,0.006198486308
3.93,-0.0117570399,0.006162094419
3.94,-0.01129276751,0.006096590004
3.95,-0.01085329507,0.006003897214
3.96,-0.01044008906,0.005886024266
3.97,-0.01005448509,0.00574505577
3.98,-0.009697683964,0.005583144842
3.99,-0.009370748251,0.005402505007
4,-0.009074599312,0.005205401943
4.01,-0.008810014793,0.004994145075
4.02,-0.008577626611,0.004771079056
4.03,-0.008377919434,0.00453857515
4.04,-0.00821122965,0.004299022571
4.05,-0.00807774483,0.004054819769
4.06,-0.007977503696,0.003808365722
4.07,-0.007910396573,0.00356205125
4.08,-0.007876166344,0.003318250375
4.09,-0.007874409888,0.003079311762
4.1,-0.007904580005,0.002847550263
4.11,-0.007965987813,0.002625238592
4.12,-0.008057805617,0.002414599167
4.13,-0.008179070234,0.002217796121
4.14,-0.008328686762,0.002036927537
4.15,-0.008505432784,0.001874017911
4.16,-0.008707962991,0.001731010871
4.17,-0.008934814209,0.001609762181
4.18,-0.00918441081,0.001512033045
4.19,-0.009455070495,0.001439483738
4.2,-0.009745010424,0.001393667579
4.21,-0.01005235368,0.001376025264
4.22,-0.01037513602,0.001387879586
4.23,-0.01071131298,0.001430430547
4.24,-0.01105876712,0.001504750884
4.25,-0.01141531563,0.00161178202
4.26,-0.01177871811,0.001752330454
4.27,-0.0121466845,0.001927064602
4.28,-0.01251688322,0.002136512097
4.29,-0.01288694944,0.002381057553
4.3,-0.01325449345,0.002660940806
4.31,-0.01361710913,0.002976255641
4.32,-0.01397238243,0.003326948987
4.33,-0.01431789999,0.003712820612
4.34,-0.01465125761,0.004133523299
4.35,-0.01497006882,0.004588563503
4.36,-0.01527197336,0.005077302498
4.37,-0.01555464553,0.005598958
4.38,-0.01581580255,0.006152606258
4.39,-0.01605321263,0.006737184627
4.4,-0.01626470305,0.007351494577
4.41,-0.01644816791,0.007994205175
4.42,-0.01660157578,0.008663856983
4.43,-0.01672297706,0.009358866394
4.44,-0.01681051111,0.01007753038
4.45,-0.01686241307,0.01081803161
4.46,-0.01687702041,0.01157844401
4.47,-0.01685277915,0.01235673858
4.48,-0.01678824977,0.01315078971
4.49,-0.01668211267,0.01395838161
4.5,-0.01653317338,0.01477721526
4.51,-0.01634036725,0.01560491549
4.52,-0.01610276385,0.01643903839
4.53,-0.01581957088,0.01727707893
4.54,-0.01549013761,0.01811647878
4.55,-0.01511395801,0.01895463436
4.56,-0.01469067328,0.01978890501
4.57,-0.01422007398,0.02061662132
4.58,-0.01370210174,0.02143509353
4.59,-0.01313685037,0.0222416201
4.6,-0.01252456665,0.02303349623
4.61,-0.01186565046,0.02380802249
4.62,-0.01116065463,0.02456251341
4.63,-0.01041028411,0.02529430605
4.64,-0.009615394814,0.02600076855
4.65,-0.008776991913,0.02667930859
4.66,-0.00789622767,0.0273273817
4.67,-0.006974398822,0.02794249952
4.68,-0.006012943506,0.02852223782
4.69,-0.005013437732,0.02906424444
4.7,-0.003977591428,0.02956624691
4.71,-0.002907244057,0.03002605997
4.72,-0.001804359831,0.03044159268
4.73,-0.000671022525,0.03081085543
4.74,0.0004905700827,0.03113196653
4.75,0.001678112137,0.03140315853
4.76,0.00288919597,0.0316227842
4.77,0.004121318695,0.03178932215
4.78,0.005371889096,0.03190138213
4.79,0.006638234808,0.03195770982
4.8,0.007917609757,0.03195719137
4.81,0.00920720183,0.0318988574
4.82,0.01050414077,0.03178188667
4.83,0.01180550625,0.03160560922
4.84,0.01310833613,0.03136950912
4.85,0.01440963484,0.03107322678
4.86,0.01570638187,0.03071656069
4.87,0.01699554036,0.03029946887
4.88,0.0182740658,0.02982206962
4.89,0.01953891464,0.02928464202
4.9,0.02078705306,0.02868762579
4.91,0.02201546563,0.02803162073
4.92,0.02322116394,0.02731738572
4.93,0.02440119518,0.02654583718
4.94,0.02555265064,0.02571804713
4.95,0.02667267404,0.02483524071
4.96,0.02775846978,0.02389879334
4.97,0.02880731093,0.02291022736
4.98,0.02981654714,0.02187120828
4.99,0.03078361223,0.02078354056
5,0.03170603162,0.01964916306
5.01,0.03258142942,0.01847014402
5.02,0.03340753531,0.01724867568
5.03,0.03418219107,0.01598706854
5.04,0.0349033568,0.01468774532
5.05,0.03556911683,0.01335323447
5.06,0.03617768517,0.01198616353
5.07,0.03672741072,0.01058925205
5.08,0.03721678202,0.009165304379
5.09,0.03764443158,0.007717202085
5.1,0.0380091398,0.006247896257
5.11,0.03830983854,0.004760399539
5.12,0.03854561414,0.003257778024
5.13,0.03871571005,0.001743142981
5.14,0.03881952904,0.0002196424661
5.15,0.03885663487,-0.001309547171
5.16,0.03882675357,-0.00284122986
5.17,0.03872977422,-0.004372198421
5.18,0.03856574924,-0.005899243213
5.19,0.0383348943,-0.007419160771
5.2,0.03803758764,-0.008928762422
5.21,0.037674369,-0.01042488284
5.22,0.03724593813,-0.01190438854
5.23,0.03675315273,-0.01336418623
5.24,0.03619702605,-0.01480123111
5.25,0.03557872397,-0.01621253492
5.26,0.03489956174,-0.0175951739
5.27,0.03416100018,-0.01894629651
5.28,0.03336464162,-0.02026313092
5.29,0.03251222528,-0.02154299229
5.3,0.03160562243,-0.02278328975
5.31,0.03064683109,-0.02398153315
5.32,0.02963797037,-0.02513533944
5.33,0.02858127456,-0.02624243877
5.34,0.02747908686,-0.02730068027
5.35,0.02633385277,-0.02830803743
5.36,0.02514811334,-0.02926261311
5.37,0.02392449801,-0.03016264424
5.38,0.02266571733,-0.03100650605
5.39,0.02137455545,-0.0317927159
5.4,0.0200538624,-0.03251993676
5.41,0.01870654621,-0.03318698016
5.42,0.01733556493,-0.0337928088
5.43,0.01594391852,-0.03433653867
5.44,0.0145346406,-0.03481744076
5.45,0.01311079023,-0.03523494226
5.46,0.01167544355,-0.03558862739
5.47,0.01023168549,-0.03587823774
5.48,0.008782601438,-0.03610367214
5.49,0.007331268959,-0.03626498612
5.5,0.005880749565,-0.03636239093
5.51,0.004434080572,-0.03639625204
5.52,0.002994267069,-0.03636708734
5.53,0.001564274004,-0.03627556479
5.54,0.0001470184298,-0.03612249971
5.55,-0.001254638075,-0.03590885166
5.56,-0.002637896793,-0.03563572094
5.57,-0.004000029036,-0.03530434461
5.58,-0.005338383072,-0.03491609229
5.59,-0.006650390802,-0.03447246146
5.6,-0.007933574153,-0.03397507249
5.61,-0.009185551182,-0.03342566337
5.62,-0.01040404187,-0.03282608401
5.63,-0.01158687359,-0.03217829041
5.64,-0.01273198622,-0.03148433844
5.65,-0.01383743694,-0.03074637741
5.66,-0.01490140461,-0.02996664339
5.67,-0.0159221938,-0.02914745234
5.68,-0.01689823843,-0.02829119307
5.69,-0.01782810503,-0.02740031993
5.7,-0.01871049553,-0.02647734552
5.71,-0.0195442497,-0.02552483309
5.72,-0.02032834717,-0.02454538902
5.73,-0.02106190899,-0.02354165508
5.74,-0.02174419881,-0.0225163007
5.75,-0.02237462358,-0.02147201523
5.76,-0.0229527339,-0.02041150016
5.77,-0.02347822388,-0.01933746133
5.78,-0.02395093061,-0.01825260128
5.79,-0.0243708332,-0.01715961152
5.8,-0.02473805142,-0.01606116504
5.81,-0.02505284393,-0.01495990879
5.82,-0.02531560612,-0.01385845636
5.83,-0.02552686752,-0.01275938086
5.84,-0.02568728888,-0.01166520781
5.85,-0.02579765885,-0.01057840843
5.86,-0.02585889032,-0.00950139297
5.87,-0.02587201642,-0.008436504351
5.88,-0.02583818614,-0.007386012056
5.89,-0.02575865972,-0.006352106258
5.9,-0.02563480366,-0.005336892247
5.91,-0.02546808548,-0.004342385149
5.92,-0.02526006825,-0.003370504958
5.93,-0.02501240479,-0.002423071891
5.94,-0.02472683175,-0.001501802084
5.95,-0.02440516336,-0.0006083036337
5.96,-0.02404928508,0.0002559270042
5.97,-0.02366114707,0.001089508245
5.98,-0.02324275746,0.001891176233
5.99,-0.02279617559,0.002659787317
6,-0.02232350501,0.003394320135
