"Freq [GHz]","re(S(Tx_p1,Tx_p1)) []","im(S(Tx_p1,Tx_p1)) []"
1,-0.02273593035,-0.02065376259
1.01,-0.02358851569,-0.01952639864
1.02,-0.02438695463,-0.01835982954
1.03,-0.0251291563,-0.01715676276
1.04,-0.02581318069,-0.01592002464
1.05,-0.02643724503,-0.01465255115
1.06,-0.02699972948,-0.01335737857
1.07,-0.02749918237,-0.01203763375
1.08,-0.02793432488,-0.01069652421
1.09,-0.02830405508,-0.00933732799
1.1,-0.02860745143,-0.007963383399
1.11,-0.02884377571,-0.006578078543
1.12,-0.02901247532,-0.005184840787
1.13,-0.02911318499,-0.003787126136
1.14,-0.02914572788,-0.002388408559
1.15,-0.02911011614,-0.0009921693084
1.16,-0.02900655078,0.0003981137408
1.17,-0.02883542103,0.001778976705
1.18,-0.02859730306,0.00314698022
1.19,-0.0282929581,0.004498719848
1.2,-0.02792333008,0.00583083635
1.21,-0.0274895426,0.007140025768
1.22,-0.02699289539,0.008423049308
1.23,-0.02643486026,0.009676742984
1.24,-0.02581707649,0.01089802699
1.25,-0.02514134573,0.01208391481
1.26,-0.02440962642,0.01323152194
1.27,-0.02362402768,0.01433807434
1.28,-0.02278680287,0.01540091649
1.29,-0.02190034264,0.01641751902
1.3,-0.02096716755,0.01738548598
1.31,-0.01998992043,0.01830256163
1.32,-0.01897135827,0.0191666368
1.33,-0.01791434385,0.01997575478
1.34,-0.01682183706,0.0207281167
1.35,-0.01569688593,0.02142208642
1.36,-0.01454261746,0.0220561949
1.37,-0.01336222821,0.02262914408
1.38,-0.01215897468,0.02313981015
1.39,-0.01093616364,0.02358724633
1.4,-0.009697142221,0.0239706851
1.41,-0.00844528801,0.02428953982
1.42,-0.007183999024,0.02454340589
1.43,-0.005916683702,0.02473206123
1.44,-0.004646750887,0.02485546631
1.45,-0.003377599836,0.02491376356
1.46,-0.002112610314,0.02490727624
1.47,-0.0008551327772,0.02483650678
1.48,0.0003915213188,0.02470213456
1.49,0.001624089045,0.02450501321
1.5,0.002839365344,0.0242461673
1.51,0.004034212161,0.02392678861
1.52,0.005205567326,0.02354823188
1.53,0.006350453178,0.02311201007
1.54,0.007465984889,0.02261978919
1.55,0.008549378469,0.02207338263
1.56,0.009597958431,0.02147474515
1.57,0.01060916509,0.0208259664
1.58,0.0115805615,0.02012926409
1.59,0.01250983991,0.01938697682
1.6,0.01339482793,0.01860155652
1.61,0.01423349413,0.01777556066
1.62,0.01502395323,0.0169116441
1.63,0.01576447086,0.01601255076
1.64,0.01645346778,0.01508110497
1.65,0.01708952362,0.01412020273
1.66,0.01767138016,0.01313280271
1.67,0.01819794407,0.01212191714
1.68,0.01866828909,0.01109060255
1.69,0.01908165781,0.01004195054
1.7,0.01943746278,0.00897907831
1.71,0.01973528722,0.007905119324
1.72,0.01997488513,0.006823213893
1.73,0.02015618095,0.005736499814
1.74,0.02027926862,0.004648103063
1.75,0.02034441016,0.003561128579
1.76,0.02035203383,0.002478651167
1.77,0.02030273164,0.001403706544
1.78,0.02019725649,0.0003392825503
1.79,0.02003651882,-0.0007116894293
1.8,0.01982158277,-0.001746342831
1.81,0.01955366187,-0.002761884027
1.82,0.0192341144,-0.003755600161
1.83,0.01886443821,-0.004724866702
1.84,0.01844626527,-0.005667154673
1.85,0.01798135571,-0.006580037538
1.86,0.01747159162,-0.007461197743
1.87,0.01691897049,-0.008308432876
1.88,0.01632559824,-0.009119661431
1.89,0.01569368214,-0.009892928171
1.9,0.01502552327,-0.01062640906
1.91,0.01432350892,-0.01131841578
1.92,0.01359010463,-0.01196739975
1.93,0.01282784614,-0.01257195578
1.94,0.01203933112,-0.01313082515
1.95,0.01122721081,-0.0136428983
1.96,0.01039418149,-0.01410721699
1.97,0.009542975949,-0.01452297603
1.98,0.008676354817,-0.01488952447
1.99,0.00779709794,-0.01520636634
2,0.006907995711,-0.01547316089
2.01,0.006011840452,-0.01568972238
2.02,0.005111417834,-0.01585601931
2.03,0.004209498395,-0.01597217329
2.04,0.003308829149,-0.01603845735
2.05,0.002412125341,-0.01605529384
2.06,0.001522062355,-0.01602325187
2.07,0.0006412677963,-0.01594304427
2.08,-0.0002276862028,-0.01581552424
2.09,-0.001082290465,-0.01564168143
2.1,-0.001920105987,-0.01542263776
2.11,-0.002738770898,-0.01515964275
2.12,-0.003536007113,-0.01485406861
2.13,-0.004309626681,-0.01450740481
2.14,-0.005057537811,-0.01412125252
2.15,-0.005777750536,-0.01369731857
2.16,-0.006468382027,-0.01323740925
2.17,-0.007127661528,-0.01274342373
2.18,-0.0077539349,-0.01221734737
2.19,-0.008345668766,-0.01166124468
2.2,-0.008901454239,-0.01107725221
2.21,-0.009420010236,-0.01046757109
2.22,-0.009900186363,-0.009834459673
2.23,-0.01034096536,-0.00918022579
2.24,-0.0107414651,-0.008507219109
2.25,-0.01110094019,-0.007817823313
2.26,-0.01141878303,-0.007114448273
2.27,-0.01169452455,-0.006399522179
2.28,-0.01192783441,-0.005675483688
2.29,-0.01211852079,-0.004944774091
2.3,-0.01226652974,-0.00420982954
2.31,-0.0123719441,-0.003473073343
2.32,-0.01243498198,-0.002736908371
2.33,-0.01245599486,-0.002003709578
2.34,-0.0124354652,-0.001275816681
2.35,-0.01237400374,-0.0005555269984
2.36,-0.01227234636,0.0001549115096
2.37,-0.01213135055,0.0008533069938
2.38,-0.0119519916,0.001537530234
2.39,-0.01173535833,0.002205520903
2.4,-0.01148264858,0.002855293566
2.41,-0.01119516434,0.00348494338
2.42,-0.01087430659,0.004092651503
2.43,-0.01052156987,0.004676690174
2.44,-0.01013853663,0.005235427462
2.45,-0.009726871226,0.005767331668
2.46,-0.009288313839,0.006270975369
2.47,-0.008824674107,0.006745039096
2.48,-0.008337824614,0.007188314624
2.49,-0.007829694225,0.007599707889
2.5,-0.007302261289,0.007978241501
2.51,-0.006757546737,0.008323056867
2.52,-0.006197607098,0.008633415904
2.53,-0.005624527456,0.008908702354
2.54,-0.005040414362,0.009148422688
2.55,-0.004447388745,0.009352206605
2.56,-0.003847578826,0.009519807126
2.57,-0.003243113065,0.009651100286
2.58,-0.002636113159,0.009746084425
2.59,-0.002028687133,0.009804879088
2.6,-0.00142292251,0.009827723534
2.61,-0.0008208796174,0.00981497487
2.62,-0.0002245850316,0.009767105812
2.63,0.0003639748187,0.009684702083
2.64,0.000942859862,0.009568459464
2.65,0.001510182395,0.009419180504
2.66,0.002064112872,0.009237770912
2.67,0.002602885461,0.00902523563
2.68,0.003124803342,0.008782674613
2.69,0.003628243739,0.008511278335
2.7,0.004111662668,0.008212323024
2.71,0.004573599387,0.007887165657
2.72,0.005012680538,0.007537238725
2.73,0.005427623969,0.007164044793
2.74,0.005817242216,0.006769150863
2.75,0.00618044566,0.006354182579
2.76,0.006516245321,0.005920818273
2.77,0.006823755304,0.005470782888
2.78,0.007102194882,0.005005841793
2.79,0.007350890219,0.004527794509
2.8,0.007569275712,0.004038468373
2.81,0.007756894983,0.003539712158
2.82,0.007913401476,0.003033389666
2.83,0.008038558707,0.002521373329
2.84,0.008132240128,0.002005537824
2.85,0.008194428636,0.001487753726
2.86,0.008225215717,0.0009698812326
2.87,0.008224800233,0.0004537639632
2.88,0.008193486861,-5.877713739E-05
2.89,0.008131684192,-0.0005659497727
2.9,0.008039902495,-0.001065996129
2.91,0.007918751154,-0.001557198548
2.92,0.007768935799,-0.002037885027
2.93,0.007591255131,-0.002506434521
2.94,0.007386597462,-0.002961282037
2.95,0.007155936975,-0.003400923498
2.96,0.006900329733,-0.003823920376
2.97,0.006620909428,-0.004228904061
2.98,0.006318882914,-0.004614579965
2.99,0.005995525519,-0.004979731353
3,0.005652176165,-0.005323222877
3.01,0.005290232304,-0.005644003816
3.02,0.004911144701,-0.005941110998
3.03,0.004516412067,-0.006213671422
3.04,0.004107575576,-0.00646090454
3.05,0.003686213274,-0.006682124219
3.06,0.003253934404,-0.006876740375
3.07,0.002812373669,-0.007044260258
3.08,0.002363185443,-0.007184289412
3.09,0.001908037968,-0.007296532287
3.1,0.00144860753,-0.00738079252
3.11,0.0009865726639,-0.007436972866
3.12,0.0005236083782,-0.007465074812
3.13,6.138044206E-05,-0.00746519784
3.14,-0.0003984602623,-0.007437538381
3.15,-0.0008542832963,-0.00738238843
3.16,-0.001304484113,-0.007300133862
3.17,-0.001747489381,-0.007191252434
3.18,-0.002181762166,-0.007056311485
3.19,-0.002605806952,-0.006895965358
3.2,-0.00301817449,-0.006710952531
3.21,-0.003417466452,-0.006502092497
3.22,-0.003802339888,-0.006270282374
3.23,-0.004171511458,-0.006016493282
3.24,-0.004523761436,-0.005741766497
3.25,-0.004857937469,-0.005447209379
3.26,-0.005172958085,-0.005133991117
3.27,-0.005467815932,-0.004803338276
3.28,-0.005741580747,-0.004456530195
3.29,-0.00599340204,-0.004094894221
3.3,-0.00622251149,-0.003719800815
3.31,-0.006428225047,-0.003332658551
3.32,-0.006609944726,-0.002934909004
3.33,-0.006767160105,-0.002528021568
3.34,-0.006899449509,-0.00211348821
3.35,-0.007006480884,-0.00169281818
3.36,-0.007088012359,-0.001267532695
3.37,-0.0071438925,-0.0008391596198
3.38,-0.007174060248,-0.0004092281543
3.39,-0.007178544553,2.073644662E-05
3.4,-0.007157463701,0.0004492181081
3.41,-0.007111024339,0.0008747151057
3.42,-0.007039520207,0.001295745154
3.43,-0.006943330574,0.001710850398
3.44,-0.006822918398,0.002118602286
3.45,-0.006678828208,0.002517606319
3.46,-0.006511683717,0.002906506649
3.47,-0.006322185186,0.003283990515
3.48,-0.006111106535,0.003648792509
3.49,-0.00587929222,0.003999698654
3.5,-0.005627653895,0.004335550275
3.51,-0.005357166853,0.00465524766
3.52,-0.00506886628,0.004957753503
3.53,-0.004763843321,0.005242096102
3.54,-0.004443240977,0.005507372318
3.55,-0.004108249857,0.005752750281
3.56,-0.00376010378,0.005977471837
3.57,-0.003400075265,0.006180854725
3.58,-0.003029470911,0.006362294477
3.59,-0.002649626685,0.006521266053
3.6,-0.002261903146,0.006657325175
3.61,-0.001867680601,0.006770109395
3.62,-0.00146835423,0.00685933886
3.63,-0.001065329187,0.006924816799
3.64,-0.0006600156928,0.00696642972
3.65,-0.0002538241401,0.006984147314
3.66,0.0001518397707,0.006978022083
3.67,0.000555579855,0.006948188677
3.68,0.0009560142051,0.006894862961
3.69,0.001351779875,0.0068183408
3.7,0.001741537474,0.006718996582
3.71,0.00212397565,0.006597281478
3.72,0.002497815456,0.006453721448
3.73,0.002861814574,0.006288914998
3.74,0.003214771393,0.006103530707
3.75,0.003555528924,0.005898304522
3.76,0.003882978535,0.005674036838
3.77,0.004196063503,0.005431589374
3.78,0.004493782368,0.005171881851
3.79,0.004775192072,0.0048958885
3.8,0.005039410884,0.004604634387
3.81,0.005285621098,0.004299191599
3.82,0.005513071493,0.003980675276
3.83,0.005721079549,0.003650239527
3.84,0.005909033421,0.003309073232
3.85,0.00607639365,0.002958395742
3.86,0.006222694621,0.002599452509
3.87,0.006347545756,0.002233510637
3.88,0.006450632443,0.001861854399
3.89,0.006531716698,0.001485780701
3.9,0.006590637556,0.001106594547
3.91,0.006627311201,0.0007256044857
3.92,0.006641730825,0.0003441180793
3.93,0.006633966221,-3.656260398E-05
3.94,0.006604163119,-0.0004151454511
3.95,0.006552542257,-0.0007903527077
3.96,0.006479398207,-0.001160925307
3.97,0.006385097946,-0.001525627113
3.98,0.006270079186,-0.001883249055
3.99,0.006134848471,-0.002232613157
4,0.005979979049,-0.002572576425
4.01,0.005806108517,-0.002902034602
4.02,0.005613936269,-0.003219925764
4.03,0.005404220732,-0.003525233754
4.04,0.005177776423,-0.003816991433
4.05,0.004935470821,-0.004094283751
4.06,0.004678221081,-0.004356250616
4.07,0.004406990585,-0.004602089563
4.08,0.00412278536,-0.004831058203
4.09,0.003826650363,-0.005042476458
4.1,0.003519665653,-0.005235728558
4.11,0.003202942465,-0.005410264822
4.12,0.002877619193,-0.005565603182
4.13,0.002544857303,-0.005701330478
4.14,0.002205837188,-0.005817103501
4.15,0.001861753981,-0.005912649793
4.16,0.00151381334,-0.005987768194
4.17,0.001163227213,-0.006042329141
4.18,0.0008112096135,-0.006076274718
4.19,0.0004589724044,-0.006089618456
4.2,0.0001077211158,-0.006082444891
4.21,-0.0002413491947,-0.006054908871
4.22,-0.0005870580221,-0.006007234629
4.23,-0.0009282434231,-0.005939714621
4.24,-0.001263765938,-0.005852708129
4.25,-0.001592512413,-0.005746639645
4.26,-0.001913399716,-0.005621997033
4.27,-0.00222537832,-0.005479329487
4.28,-0.002527435757,-0.005319245277
4.29,-0.002818599925,-0.005142409316
4.3,-0.003097942233,-0.004949540533
4.31,-0.003364580581,-0.004741409074
4.32,-0.003617682165,-0.004518833344
4.33,-0.003856466091,-0.004282676894
4.34,-0.004080205795,-0.004033845172
4.35,-0.004288231271,-0.003773282136
4.36,-0.004479931074,-0.003501966763
4.37,-0.004654754127,-0.003220909451
4.38,-0.004812211293,-0.002931148322
4.39,-0.004951876732,-0.002633745465
4.4,-0.005073389032,-0.0023297831
4.41,-0.005176452102,-0.0020203597
4.42,-0.005260835839,-0.001706586078
4.43,-0.005326376563,-0.001389581447
4.44,-0.005372977215,-0.001070469474
4.45,-0.00540060732,-0.0007503743396
4.46,-0.005409302727,-0.0004304168182
4.47,-0.005399165108,-0.000111710386
4.48,-0.005370361241,0.0002046426208
4.49,-0.005323122062,0.0005175547904
4.5,-0.005257741505,0.000825957348
4.51,-0.005174575119,0.001128803783
4.52,-0.00507403849,0.001425073382
4.53,-0.004956605451,0.001713774648
4.54,-0.004822806103,0.001993948607
4.55,-0.004673224651,0.002264671978
4.56,-0.004508497059,0.002525060205
4.57,-0.004329308541,0.002774270336
4.58,-0.004136390888,0.003011503743
4.59,-0.003930519649,0.003236008672
4.6,-0.003712511176,0.003447082621
4.61,-0.003483219537,0.00364407452
4.62,-0.003243533317,0.003826386739
4.63,-0.002994372312,0.003993476885
4.64,-0.002736684135,0.004144859396
4.65,-0.002471440736,0.004280106942
4.66,-0.002199634863,0.004398851597
4.67,-0.001922276462,0.00450078581
4.68,-0.001640389035,0.004585663155
4.69,-0.001355005978,0.00465329886
4.7,-0.001067166888,0.004703570128
4.71,-0.0007779138855,0.004736416225
4.72,-0.0004882879311,0.004751838363
4.73,-0.0001993251736,0.004749899356
4.74,8.794666828E-05,0.004730723072
4.75,0.0003725118771,0.004694493665
4.76,0.0006533702466,0.004641454605
4.77,0.0009295405201,0.004571907502
4.78,0.001200063745,0.004486210737
4.79,0.00146400653,0.00438477789
4.8,0.0017204642,0.004268075997
4.81,0.001968563834,0.004136623615
4.82,0.002207467168,0.003990988727
4.83,0.002436373376,0.00383178647
4.84,0.002654521692,0.003659676728
4.85,0.002861193888,0.003475361561
4.86,0.003055716583,0.003279582511
4.87,0.00323746339,0.003073117776
4.88,0.003405856878,0.002856779276
4.89,0.003560370364,0.002631409608
4.9,0.003700529505,0.002397878912
4.91,0.003825913711,0.002157081655
4.92,0.003936157349,0.001909933346
4.93,0.004030950761,0.001657367193
4.94,0.004110041068,0.001400330712
4.95,0.004173232779,0.001139782305
4.96,0.004220388191,0.0008766878186
4.97,0.004251427586,0.0006120170838
4.98,0.00426632922,0.0003467404708
4.99,0.004265129112,8.182545028E-05
5,0.004247920628,-0.0001817668154
5.01,0.004214853862,-0.0004430848426
5.02,0.004166134833,-0.0007011901466
5.03,0.004102024471,-0.0009551605
5.04,0.004022837428,-0.001204093118
5.05,0.003928940702,-0.001447107762
5.06,0.00382075208,-0.001683349742
5.07,0.003698738414,-0.001911992827
5.08,0.003563413729,-0.002132242029
5.09,0.003415337175,-0.002343336271
5.1,0.003255110834,-0.002544550918
5.11,0.003083377377,-0.002735200175
5.12,0.002900817598,-0.002914639329
5.13,0.002708147818,-0.003082266839
5.14,0.002506117183,-0.003237526267
5.15,0.002295504856,-0.003379908033
5.16,0.002077117112,-0.003508951007
5.17,0.001851784359,-0.003624243915
5.18,0.001620358081,-0.003725426566
5.19,0.001383707726,-0.003812190894
5.2,0.001142717541,-0.003884281806
5.21,0.000898283373,-0.00394149785
5.22,0.0006513094406,-0.003983691681
5.23,0.0004027050938,-0.004010770336
5.24,0.000153381569,-0.004022695322
5.25,-9.57512479E-05,-0.004019482507
5.26,-0.000343788038,-0.004001201817
5.27,-0.0005898312355,-0.003967976751
5.28,-0.0008329941725,-0.003919983705
5.29,-0.00107240417,-0.003857451114
5.3,-0.001307205568,-0.003780658411
5.31,-0.001536562677,-0.00368993482
5.32,-0.001759662653,-0.003585657969
5.33,-0.001975718272,-0.003468252343
5.34,-0.002183970608,-0.003338187581
5.35,-0.002383691594,-0.003195976618
5.36,-0.002574186465,-0.003042173684
5.37,-0.002754796077,-0.00287737217
5.38,-0.002924899079,-0.002702202357
5.39,-0.003083913959,-0.002517329035
5.4,-0.003231300923,-0.002323449005
5.41,-0.00336656363,-0.002121288481
5.42,-0.003489250766,-0.001911600399
5.43,-0.003598957446,-0.001695161649
5.44,-0.003695326453,-0.001472770225
5.45,-0.003778049299,-0.001245242322
5.46,-0.003846867116,-0.00101340938
5.47,-0.003901571361,-0.000778115082
5.48,-0.003942004344,-0.0005402123303
5.49,-0.003968059579,-0.0003005601965
5.5,-0.003979681948,-6.002086719E-05
5.51,-0.003976867685,0.0001805434096
5.52,-0.00395966418,0.0004202733641
5.53,-0.003928169604,0.0006583157218
5.54,-0.003882532357,0.000893826185
5.55,-0.003822950344,0.001125972371
5.56,-0.003749670076,0.001353936695
5.57,-0.003662985606,0.00157691919
5.58,-0.003563237303,0.001794140248
5.59,-0.003450810473,0.002004843285
5.6,-0.003326133816,0.00220829731
5.61,-0.003189677751,0.002403799388
5.62,-0.003041952594,0.002590677005
5.63,-0.002883506605,0.002768290307
5.64,-0.002714923912,0.002936034215
5.65,-0.002536822316,0.003093340419
5.66,-0.002349850987,0.003239679218
5.67,-0.002154688066,0.003374561233
5.68,-0.001952038164,0.00349753896
5.69,-0.001742629792,0.003608208173
5.7,-0.001527212709,0.003706209173
5.71,-0.00130655521,0.00379122787
5.72,-0.001081441363,0.003862996702
5.73,-0.0008526681954,0.003921295389
5.74,-0.0006210428588,0.003965951519
5.75,-0.0003873797582,0.003996840957
5.76,-0.0001524976763,0.004013888092
5.77,8.278310833E-05,0.004017065909
5.78,0.0003176436954,0.004006395889
5.79,0.0005512694198,0.00398194774
5.8,0.0007828526812,0.003943838967
5.81,0.001011595737,0.003892234268
5.82,0.001236713449,0.003827344769
5.83,0.001457435975,0.003749427108
5.84,0.001673011389,0.003658782352
5.85,0.00188270824,0.003555754773
5.86,0.002085818017,0.003440730474
5.87,0.002281657525,0.003314135874
5.88,0.002469571169,0.003176436059
5.89,0.002648933123,0.003028133012
5.9,0.002819149393,0.002869763709
5.91,0.002979659751,0.002701898112
5.92,0.003129939556,0.002525137051
5.93,0.003269501427,0.002340110008
5.94,0.003397896795,0.002147472812
5.95,0.003514717296,0.001947905249
5.96,0.003619596033,0.001742108603
5.97,0.003712208679,0.00153080313
5.98,0.003792274427,0.001314725475
5.99,0.003859556787,0.001094626053
6,0.003913864226,0.0008712663773
