"Freq [GHz]","re(S(Tx_p1,Tx_p1)) []","im(S(Tx_p1,Tx_p1)) []"
1,-0.01386300459,-0.04061766852
1.01,-0.01513427919,-0.03902344203
1.02,-0.01631848731,-0.0373851038
1.03,-0.01741312844,-0.03570683558
1.04,-0.01841593628,-0.03399299934
1.05,-0.01932488952,-0.03224812171
1.06,-0.02013822162,-0.03047687795
1.07,-0.02085442967,-0.0286840755
1.08,-0.02147228219,-0.02687463716
1.09,-0.02199082592,-0.02505358399
1.1,-0.02240939167,-0.02322601786
1.11,-0.02272759903,-0.0213971039
1.12,-0.0229453601,-0.01957205269
1.13,-0.02306288216,-0.01775610241
1.14,-0.02308066933,-0.01595450087
1.15,-0.02299952313,-0.01417248764
1.16,-0.02282054206,-0.0124152761
1.17,-0.02254512012,-0.01068803576
1.18,-0.02217494433,-0.008995874572
1.19,-0.02171199119,-0.007343821607
1.2,-0.02115852228,-0.005736809904
1.21,-0.02051707872,-0.004179659679
1.22,-0.0197904748,-0.0026770619
1.23,-0.01898179066,-0.001233562282
1.24,-0.01809436402,0.0001464542514
1.25,-0.01713178114,0.001458778585
1.26,-0.0160978668,0.002699391868
1.27,-0.01499667361,0.003864479367
1.28,-0.01383247049,0.004950443664
1.29,-0.01260973041,0.005953917176
1.3,-0.01133311743,0.006871773938
1.31,-0.01000747319,0.007701140638
1.32,-0.008637802637,0.008439406842
1.33,-0.007229259337,0.009084234407
1.34,-0.005787130195,0.009633566033
1.35,-0.004316819741,0.01008563294
1.36,-0.002823833998,0.01043896163
1.37,-0.001313763998,0.01069237975
1.38,0.0002077310276,0.01084502101
1.39,0.001734940692,0.01089632911
1.4,0.003262120715,0.01084606075
1.41,0.004783510326,0.01069428765
1.42,0.00629334976,0.01044139757
1.43,0.007785897792,0.01008809437
1.44,0.009255449257,0.009635397088
1.45,0.0106963525,0.009084638014
1.46,0.01210302669,0.008437459823
1.47,0.01346997899,0.007695811721
1.48,0.01479182144,0.006861944648
1.49,0.0160632876,0.005938405544
1.5,0.01727924884,0.004928030697
1.51,0.01843473027,0.003833938188
1.52,0.01952492617,0.00265951947
1.53,0.02054521505,0.001408430085
1.54,0.02149117404,8.457957081E-05
1.55,0.02235859284,-0.001307879424
1.56,0.02314348697,-0.002764562784
1.57,0.0238421104,-0.004280867296
1.58,0.0244509675,-0.005851983687
1.59,0.02496682419,-0.007472910327
1.6,0.02538671845,-0.009138467512
1.61,0.02570796988,-0.01084331233
1.62,0.02592818859,-0.012581954
1.63,0.02604528311,-0.01434876977
1.64,0.02605746751,-0.01613802107
1.65,0.02596326755,-0.01794387025
1.66,0.02576152604,-0.01976039745
1.67,0.02545140708,-0.02158161784
1.68,0.02503239954,-0.02340149905
1.69,0.02450431946,-0.0252139788
1.7,0.02386731155,-0.02701298258
1.71,0.02312184971,-0.02879244143
1.72,0.02226873655,-0.03054630975
1.73,0.02130910203,-0.03226858302
1.74,0.02024440101,-0.03395331542
1.75,0.01907640995,-0.03559463737
1.76,0.01780722265,-0.03718677277
1.77,0.01643924498,-0.03872405606
1.78,0.01497518882,-0.04020094894
1.79,0.01341806496,-0.04161205675
1.8,0.01177117526,-0.04295214445
1.81,0.01003810387,-0.04421615213
1.82,0.008222707621,-0.04539921007
1.83,0.006329105672,-0.0464966532
1.84,0.004361668348,-0.04750403506
1.85,0.002325005254,-0.04841714106
1.86,0.0002239526868,-0.04923200111
1.87,-0.001936439614,-0.04994490158
1.88,-0.004150922336,-0.0505523965
1.89,-0.006414061049,-0.05105131801
1.9,-0.008720251203,-0.051438786
1.91,-0.01106373361,-0.05171221693
1.92,-0.01343861041,-0.05186933186
1.93,-0.01583886138,-0.05190816351
1.94,-0.01825836065,-0.05182706255
1.95,-0.02069089372,-0.05162470286
1.96,-0.02313017474,-0.05130008599
1.97,-0.02556986392,-0.05085254459
1.98,-0.02800358524,-0.05028174497
1.99,-0.03042494413,-0.04958768866
2,-0.03282754527,-0.04877071307
2.01,-0.03520501041,-0.04783149112
2.02,-0.03755099607,-0.04677103004
2.03,-0.03985921122,-0.04559066908
2.04,-0.04212343476,-0.04429207644
2.05,-0.04433753281,-0.04287724509
2.06,-0.04649547577,-0.04134848788
2.07,-0.04859135505,-0.03970843157
2.08,-0.05061939946,-0.03796001009
2.09,-0.05257399128,-0.03610645691
2.1,-0.05444968173,-0.03415129654
2.11,-0.05624120617,-0.03209833529
2.12,-0.05794349859,-0.02995165117
2.13,-0.05955170563,-0.02771558308
2.14,-0.06106119999,-0.02539471928
2.15,-0.06246759321,-0.02299388515
2.16,-0.0637667477,-0.02051813032
2.17,-0.06495478816,-0.01797271517
2.18,-0.06602811219,-0.01536309676
2.19,-0.06698340016,-0.01269491424
2.2,-0.06781762432,-0.009973973745
2.21,-0.06852805699,-0.007206232879
2.22,-0.06911227802,-0.004397784753
2.23,-0.06956818133,-0.001554841699
2.24,-0.06989398056,0.001316281332
2.25,-0.07008821391,0.004209183643
2.26,-0.07014974797,0.007117395864
2.27,-0.07007778071,0.0100343972
2.28,-0.06987184354,0.0129536328
2.29,-0.06953180245,0.01586853115
2.3,-0.0690578582,0.01877252156
2.31,-0.06845054561,0.02165905155
2.32,-0.06771073196,0.02452160418
2.33,-0.06683961444,0.02735371526
2.34,-0.06583871671,0.03014899038
2.35,-0.06470988457,0.03290112168
2.36,-0.06345528082,0.03560390441
2.37,-0.06207737912,0.03825125311
2.38,-0.06057895719,0.04083721751
2.39,-0.05896308904,0.04335599791
2.4,-0.05723313652,0.04580196022
2.41,-0.05539274004,0.04816965046
2.42,-0.05344580859,0.05045380875
2.43,-0.05139650901,0.05264938272
2.44,-0.04924925465,0.05475154033
2.45,-0.04700869332,0.05675568206
2.46,-0.04467969468,0.05865745244
2.47,-0.04226733707,0.06045275086
2.48,-0.03977689376,0.06213774168
2.49,-0.03721381874,0.06370886357
2.5,-0.03458373209,0.06516283811
2.51,-0.0318924049,0.06649667757
2.52,-0.02914574386,0.06770769186
2.53,-0.02634977549,0.0687934947
2.54,-0.02351063014,0.06975200892
2.55,-0.02063452574,0.07058147087
2.56,-0.0177277514,0.07128043403
2.57,-0.01479665082,0.07184777173
2.58,-0.01184760562,0.07228267894
2.59,-0.008887018714,0.07258467326
2.6,-0.005921297564,0.07275359498
2.61,-0.002956837564,0.07278960629
2.62,-5.494534104E-09,0.07269318964
2.63,0.002942876875,0.07246514517
2.64,0.005865549001,0.0721065874
2.65,0.008761827547,0.07161894095
2.66,0.01162562209,0.07100393557
2.67,0.01445095052,0.0702636003
2.68,0.01723195405,0.06940025681
2.69,0.01996291188,0.06841651207
2.7,0.02263825539,0.06731525019
2.71,0.02525258184,0.06609962363
2.72,0.02780066759,0.06477304363
2.73,0.03027748082,0.06333917007
2.74,0.03267819352,0.06180190066
2.75,0.03499819309,0.06016535956
2.76,0.0372330931,0.05843388537
2.77,0.0393787435,0.05661201875
2.78,0.04143124013,0.05470448935
2.79,0.04338693346,0.05271620251
2.8,0.04524243669,0.05065222533
2.81,0.046994633,0.04851777259
2.82,0.04864068208,0.04631819214
2.83,0.05017802592,0.04405895017
2.84,0.05160439367,0.04174561613
2.85,0.05291780589,0.03938384749
2.86,0.05411657777,0.03697937433
2.87,0.05519932172,0.03453798384
2.88,0.05616494902,0.03206550473
2.89,0.05701267072,0.02956779158
2.9,0.05774199764,0.02705070929
2.91,0.05835273966,0.02452011748
2.92,0.05884500409,0.02198185513
2.93,0.05921919333,0.01944172519
2.94,0.05947600169,0.01690547954
2.95,0.05961641144,0.01437880409
2.96,0.05964168808,0.01186730414
2.97,0.05955337494,0.00937649009
2.98,0.05935328693,0.006911763458
2.99,0.0590435037,0.004478403306
3,0.05862636206,0.002081553056
3.01,0.05810444774,-0.0002737922281
3.02,0.05748058651,-0.002582798076
3.03,0.05675783476,-0.004840802338
3.04,0.05593946941,-0.007043326363
3.05,0.05502897734,-0.009186085607
3.06,0.05403004432,-0.01126499964
3.07,0.05294654338,-0.01327620152
3.08,0.05178252283,-0.01521604656
3.09,0.05054219381,-0.01708112035
3.1,0.0492299175,-0.01886824622
3.11,0.04785019197,-0.02057449182
3.12,0.04640763878,-0.02219717517
3.13,0.04490698927,-0.02373386988
3.14,0.04335307064,-0.02518240959
3.15,0.04175079191,-0.02654089179
3.16,0.04010512968,-0.02780768076
3.17,0.0384211138,-0.02898140982
3.18,0.03670381304,-0.03006098279
3.19,0.03495832063,-0.03104557469
3.2,0.03318973997,-0.03193463171
3.21,0.03140317028,-0.03272787038
3.22,0.02960369242,-0.03342527603
3.23,0.02779635484,-0.03402710045
3.24,0.02598615966,-0.03453385891
3.25,0.02417804907,-0.0349463264
3.26,0.0223768919,-0.03526553315
3.27,0.02058747049,-0.03549275951
3.28,0.01881446793,-0.03562953017
3.29,0.01706245563,-0.03567760764
3.3,0.01533588126,-0.03563898523
3.31,0.01363905719,-0.03551587931
3.32,0.01197614929,-0.03531072105
3.33,0.01035116625,-0.03502614761
3.34,0.008767949491,-0.03466499277
3.35,0.007230163448,-0.03423027707
3.36,0.005741286565,-0.03372519754
3.37,0.004304602792,-0.03315311688
3.38,0.00292319371,-0.03251755233
3.39,0.001599931272,-0.03182216416
3.4,0.0003374711867,-0.03107074376
3.41,-0.0008617530413,-0.03026720151
3.42,-0.001995535409,-0.02941555432
3.43,-0.003061902026,-0.02851991299
3.44,-0.004059115044,-0.02758446931
3.45,-0.004985675882,-0.0266134831
3.46,-0.005840327754,-0.02561126904
3.47,-0.006622057489,-0.02458218346
3.48,-0.007330096644,-0.02353061108
3.49,-0.00796392191,-0.02246095175
3.5,-0.008523254812,-0.02137760723
3.51,-0.009008060708,-0.02028496798
3.52,-0.009418547095,-0.01918740013
3.53,-0.009755161226,-0.01808923253
3.54,-0.01001858705,-0.01699474405
3.55,-0.0102097415,-0.01590815096
3.56,-0.0103297701,-0.01483359472
3.57,-0.01038004196,-0.0137751299
3.58,-0.01036214414,-0.01273671254
3.59,-0.01027787544,-0.01172218872
3.6,-0.01012923956,-0.01073528363
3.61,-0.009918437738,-0.009779590924
3.62,-0.00964786084,-0.008858562629
3.63,-0.009320080946,-0.007975499396
3.64,-0.008937842437,-0.007133541297
3.65,-0.008504052633,-0.006335659114
3.66,-0.008021771998,-0.005584646153
3.67,-0.007494203942,-0.004883110608
3.68,-0.006924684256,-0.004233468493
3.69,-0.0063166702,-0.003637937165
3.7,-0.00567372929,-0.003098529441
3.71,-0.004999527806,-0.002617048338
3.72,-0.004297819059,-0.002195082435
3.73,-0.003572431446,-0.001834001884
3.74,-0.002827256337,-0.001534955054
3.75,-0.002066235822,-0.00129886585
3.76,-0.001293350343,-0.001126431672
3.77,-0.0005126062719,-0.001018122052
3.78,0.0002719765553,-0.0009741779512
3.79,0.001056377304,-0.0009946117231
3.8,0.001836586565,-0.001079207738
3.81,0.002608618718,-0.001227523668
3.82,0.003368524176,-0.001438892428
3.83,0.004112401509,-0.001712424756
3.84,0.004836409376,-0.002047012436
3.85,0.005536778273,-0.002441332143
3.86,0.006209822022,-0.002893849908
3.87,0.006851949012,-0.003402826168
3.88,0.007459673121,-0.003966321416
3.89,0.008029624326,-0.004582202404
3.9,0.008558558946,-0.005248148897
3.91,0.009043369497,-0.005961660956
3.92,0.009481094145,-0.006720066721
3.93,0.009868925711,-0.007520530681
3.94,0.01020422022,-0.008360062397
3.95,0.01048450498,-0.009235525657
3.96,0.0107074861,-0.01014364804
3.97,0.01087105558,-0.01108103087
3.98,0.01097329776,-0.01204415947
3.99,0.01101249525,-0.01302941381
4,0.01098713432,-0.01403307938
4.01,0.0108959096,-0.01505135839
4.02,0.01073772832,-0.01608038108
4.03,0.0105117138,-0.0171162174
4.04,0.0102172084,-0.01815488865
4.05,0.009853775826,-0.01919237946
4.06,0.009421202783,-0.02022464967
4.07,0.008919500029,-0.02124764642
4.08,0.008348902755,-0.0222573162
4.09,0.007709870344,-0.02324961691
4.1,0.007003085491,-0.0242205299
4.11,0.006229452686,-0.02516607189
4.12,0.005390096076,-0.02608230686
4.13,0.0044863567,-0.02696535775
4.14,0.003519789111,-0.02781141801
4.15,0.002492157402,-0.02861676298
4.16,0.001405430631,-0.02937776095
4.17,0.0002617776777,-0.03009088409
4.18,-0.0009364384698,-0.03075271897
4.19,-0.002186666969,-0.03135997683
4.2,-0.00348617591,-0.03190950351
4.21,-0.004832059609,-0.03239828895
4.22,-0.006221246394,-0.03282347632
4.23,-0.007650506853,-0.03318237078
4.24,-0.009116462533,-0.03347244769
4.25,-0.01061559505,-0.03369136043
4.26,-0.01214425561,-0.03383694771
4.27,-0.01369867487,-0.03390724033
4.28,-0.01527497317,-0.03390046751
4.29,-0.01686917106,-0.03381506255
4.3,-0.01847720013,-0.03364966801
4.31,-0.02009491406,-0.03340314034
4.32,-0.02171809994,-0.03307455383
4.33,-0.02334248972,-0.03266320403
4.34,-0.0249637719,-0.03216861059
4.35,-0.02657760332,-0.0315905194
4.36,-0.02817962097,-0.03092890419
4.37,-0.02976545402,-0.0301839675
4.38,-0.03133073574,-0.02935614094
4.39,-0.03287111551,-0.02844608497
4.4,-0.03438227076,-0.02745468794
4.41,-0.03585991886,-0.02638306453
4.42,-0.03729982889,-0.02523255364
4.43,-0.03869783332,-0.02400471556
4.44,-0.04004983954,-0.02270132867
4.45,-0.0413518411,-0.02132438539
4.46,-0.04259992889,-0.01987608771
4.47,-0.04379030191,-0.01835884202
4.48,-0.04491927789,-0.01677525345
4.49,-0.04598330353,-0.01512811966
4.5,-0.04697896438,-0.01342042409
4.51,-0.04790299447,-0.0116553287
4.52,-0.04875228544,-0.009836166293
4.53,-0.04952389532,-0.007966432235
4.54,-0.05021505684,-0.00604977588
4.55,-0.05082318532,-0.004089991472
4.56,-0.05134588604,-0.002091008702
4.57,-0.05178096115,-5.688286959E-05
4.58,-0.05212641605,0.002008215283
4.59,-0.05238046522,0.004100010067
4.6,-0.05254153752,0.006214131623
4.61,-0.05260828095,0.00834612696
4.62,-0.05257956674,0.01049147123
4.63,-0.052454493,0.01264557919
4.64,-0.05223238765,0.01480381686
4.65,-0.0519128108,0.01696151328
4.66,-0.05149555652,0.01911397241
4.67,-0.05098065397,0.0212564851
4.68,-0.05036836796,0.02338434109
4.69,-0.04965919883,0.02549284101
4.7,-0.04885388176,0.02757730843
4.71,-0.04795338545,0.02963310176
4.72,-0.04695891017,0.03165562612
4.73,-0.04587188524,0.03364034513
4.74,-0.04469396586,0.03558279247
4.75,-0.04342702941,0.03747858333
4.76,-0.04207317107,0.03932342561
4.77,-0.04063469902,0.04111313094
4.78,-0.0391141289,0.04284362536
4.79,-0.03751417791,0.04451095977
4.8,-0.03583775823,0.04611132002
4.81,-0.03408797003,0.04764103665
4.82,-0.03226809394,0.0490965943
4.83,-0.03038158308,0.05047464067
4.84,-0.0284320546,0.0517719951
4.85,-0.02642328086,0.05298565666
4.86,-0.02435918013,0.05411281181
4.87,-0.02224380695,0.05515084154
4.88,-0.02008134218,0.05609732809
4.89,-0.01787608261,0.056950061
4.9,-0.01563243039,0.05770704277
4.91,-0.01335488213,0.05836649388
4.92,-0.01104801777,0.05892685727
4.93,-0.008716489213,0.05938680224
4.94,-0.00636500884,0.05974522776
4.95,-0.003998337806,0.06000126521
4.96,-0.001621274253,0.06015428046
4.97,0.0007613585698,0.0602038754
4.98,0.003144724257,0.06014988885
4.99,0.005523985206,0.05999239679
5,0.007894314583,0.05973171209
5.01,0.01025090825,0.05936838354
5.02,0.0125889966,0.05890319431
5.03,0.01490385633,0.05833715976
5.04,0.01719082208,0.05767152473
5.05,0.01944529784,0.05690776017
5.06,0.02166276826,0.05604755923
5.07,0.02383880967,0.05509283273
5.08,0.02596910092,0.05404570416
5.09,0.02804943381,0.05290850404
5.1,0.03007572338,0.0516837638
5.11,0.03204401774,0.05037420918
5.12,0.03395050758,0.04898275305
5.13,0.03579153532,0.04751248783
5.14,0.03756360382,0.04596667744
5.15,0.03926338464,0.04434874882
5.16,0.04088772592,0.04266228301
5.17,0.04243365972,0.04091100589
5.18,0.04389840888,0.03909877853
5.19,0.04527939342,0.03722958724
5.2,0.0465742363,0.03530753329
5.21,0.0477807688,0.03333682236
5.22,0.0488970352,0.03132175372
5.23,0.04992129698,0.02926670925
5.24,0.0508520364,0.0271761422
5.25,0.05168795954,0.02505456585
5.26,0.05242799869,0.02290654196
5.27,0.05307131419,0.02073666926
5.28,0.05361729565,0.01854957171
5.29,0.05406556257,0.01634988685
5.3,0.05441596435,0.01414225408
5.31,0.0546685797,0.01193130302
5.32,0.05482371545,0.009721641848
5.33,0.05488190478,0.007517845812
5.34,0.0548439048,0.005324445824
5.35,0.05471069365,0.003145917209
5.36,0.05448346693,0.0009866686333
5.37,0.0541636336,-0.001148968749
5.38,0.05375281136,-0.003256751913
5.39,0.05325282146,-0.005332536311
5.4,0.05266568296,-0.007372285927
5.41,0.05199360657,-0.009372083005
5.42,0.05123898793,-0.01132813743
5.43,0.05040440041,-0.01323679576
5.44,0.04949258758,-0.01509454979
5.45,0.04850645506,-0.01689804479
5.46,0.04744906219,-0.01864408726
5.47,0.04632361311,-0.0203296522
5.48,0.04513344764,-0.02195188993
5.49,0.04388203178,-0.02350813244
5.5,0.04257294784,-0.02499589914
5.51,0.04120988445,-0.02641290218
5.52,0.03979662615,-0.02775705121
5.53,0.0383370429,-0.02902645749
5.54,0.03683507933,-0.03021943758
5.55,0.03529474385,-0.03133451638
5.56,0.03372009763,-0.03237042959
5.57,0.03211524351,-0.0333261256
5.58,0.0304843148,-0.03420076682
5.59,0.02883146406,-0.0349937304
5.6,0.02716085193,-0.0357046083
5.61,0.02547663588,-0.03633320691
5.62,0.02378295914,-0.03687954595
5.63,0.0220839396,-0.03734385686
5.64,0.02038365894,-0.03772658061
5.65,0.01868615183,-0.03802836492
5.66,0.01699539534,-0.03825006095
5.67,0.01531529857,-0.03839271939
5.68,0.01364969248,-0.03845758611
5.69,0.01200232003,-0.03844609721
5.7,0.01037682656,-0.03835987355
5.71,0.008776750526,-0.03820071491
5.72,0.007205514581,-0.03797059352
5.73,0.005666416986,-0.03767164726
5.74,0.004162623436,-0.03730617238
5.75,0.002697159296,-0.03687661583
5.76,0.001272902264,-0.03638556715
5.77,-0.0001074245197,-0.03583575008
5.78,-0.001441258881,-0.03523001377
5.79,-0.002726205546,-0.03457132371
5.8,-0.003960041574,-0.03386275236
5.81,-0.005140721262,-0.03310746951
5.82,-0.006266380541,-0.03230873245
5.83,-0.007335340817,-0.03146987591
5.84,-0.008346112274,-0.03059430181
5.85,-0.00929739662,-0.02968546894
5.86,-0.01018808927,-0.02874688241
5.87,-0.01101728095,-0.02778208313
5.88,-0.01178425877,-0.02679463721
5.89,-0.01248850668,-0.02578812525
5.9,-0.0131297054,-0.0247661318
5.91,-0.01370773171,-0.02373223472
5.92,-0.01422265728,-0.02268999464
5.93,-0.01467474688,-0.02164294462
5.94,-0.01506445598,-0.02059457977
5.95,-0.01539242796,-0.01954834718
5.96,-0.01565949061,-0.01850763595
5.97,-0.01586665225,-0.01747576747
5.98,-0.01601509725,-0.01645598594
5.99,-0.01610618111,-0.01545144913
6,-0.01614142499,-0.01446521949
