"Freq [GHz]","re(S(Tx_p1,Tx_p1)) []","im(S(Tx_p1,Tx_p1)) []"
1,-0.008662461456,-0.001329867211
1.01,-0.008709023043,-0.0008580901927
1.02,-0.008729905501,-0.0003839841821
1.03,-0.008724942809,9.100724218E-05
1.04,-0.008694054166,0.0005654291191
1.05,-0.008637244579,0.001037820286
1.06,-0.008554605128,0.001506718579
1.07,-0.008446312926,0.001970666028
1.08,-0.008312630771,0.00242821404
1.09,-0.008153906484,0.002877928535
1.1,-0.007970571947,0.003318395038
1.11,-0.007763141837,0.003748223693
1.12,-0.007532212069,0.004166054183
1.13,-0.007278457947,0.004570560555
1.14,-0.007002632034,0.004960455911
1.15,-0.006705561743,0.005334496965
1.16,-0.006388146673,0.005691488444
1.17,-0.006051355685,0.006030287316
1.18,-0.00569622373,0.006349806843
1.19,-0.00532384845,0.006649020422
1.2,-0.004935386558,0.006926965227
1.21,-0.00453205001,0.007182745624
1.22,-0.004115101983,0.007415536343
1.23,-0.003685852677,0.00762458542
1.24,-0.003245654949,0.007809216872
1.25,-0.0027958998,0.007968833107
1.26,-0.002338011735,0.008102917073
1.27,-0.001873443998,0.008211034117
1.28,-0.001403673714,0.008292833567
1.29,-0.000930196947,0.008348050012
1.3,-0.0004545236932,0.008376504309
1.31,2.182717407E-05,0.008378104267
1.32,0.0004973329879,0.008352845057
1.33,0.0009704723844,0.008300809305
1.34,0.001439730394,0.008222166893
1.35,0.00190360351,0.008117174461
1.36,0.002360604715,0.007986174613
1.37,0.002809268452,0.007829594828
1.38,0.003248155522,0.007647946085
1.39,0.003675857883,0.007441821203
1.4,0.004091003354,0.007211892907
1.41,0.004492260182,0.006958911616
1.42,0.004878341477,0.00668370298
1.43,0.005248009498,0.006387165153
1.44,0.005600079756,0.006070265832
1.45,0.005933424953,0.005734039053
1.46,0.006246978708,0.005379581779
1.47,0.006539739093,0.005008050259
1.48,0.006810771935,0.004620656212
1.49,0.007059213895,0.004218662811
1.5,0.00728427531,0.003803380502
1.51,0.007485242778,0.003376162673
1.52,0.007661481491,0.002938401175
1.53,0.007812437301,0.002491521724
1.54,0.007937638515,0.00203697919
1.55,0.008036697415,0.001576252795
1.56,0.008109311491,0.001110841237
1.57,0.008155264391,0.0006422577452
1.58,0.008174426592,0.0001720251031
1.59,0.008166755763,-0.0002983293622
1.6,0.008132296856,-0.0007672787982
1.61,0.008071181895,-0.001233301838
1.62,0.00798362948,-0.001694887586
1.63,0.00786994401,-0.002150540567
1.64,0.007730514609,-0.00259878561
1.65,0.00756581379,-0.003038172671
1.66,0.007376395829,-0.00346728155
1.67,0.00716289488,-0.003884726521
1.68,0.00692602283,-0.004289160829
1.69,0.006666566891,-0.004679281055
1.7,0.006385386957,-0.005053831334
1.71,0.006083412718,-0.005411607413
1.72,0.005761640553,-0.005751460524
1.73,0.005421130204,-0.006072301077
1.74,0.005063001253,-0.006373102147
1.75,0.004688429399,-0.006652902756
1.76,0.00429864256,-0.006910810928
1.77,0.003894916818,-0.007146006511
1.78,0.003478572195,-0.007357743765
1.79,0.003050968311,-0.007545353701
1.8,0.002613499902,-0.007708246155
1.81,0.002167592247,-0.007845911615
1.82,0.001714696487,-0.007957922768
1.83,0.001256284881,-0.008043935785
1.84,0.0007938459882,-0.008103691325
1.85,0.0003288798206,-0.008137015263
1.86,-0.0001371070476,-0.00814381914
1.87,-0.0006026063752,-0.00812410033
1.88,-0.001066113148,-0.008077941926
1.89,-0.001526130452,-0.008005512355
1.9,-0.001981174316,-0.007907064702
1.91,-0.002429778494,-0.007782935774
1.92,-0.002870499191,-0.00763354488
1.93,-0.003301919701,-0.007459392358
1.94,-0.003722654949,-0.00726105783
1.95,-0.004131355921,-0.007039198209
1.96,-0.004526713973,-0.006794545459
1.97,-0.004907464995,-0.006527904114
1.98,-0.005272393421,-0.006240148564
1.99,-0.005620336083,-0.005932220126
2,-0.005950185881,-0.005605123901
2.01,-0.00626089526,-0.005259925427
2.02,-0.006551479499,-0.00489774715
2.03,-0.006821019777,-0.004519764711
2.04,-0.007068666031,-0.004127203076
2.05,-0.007293639581,-0.003721332506
2.06,-0.007495235515,-0.003303464396
2.07,-0.007672824838,-0.002874946988
2.08,-0.00782585637,-0.002437160967
2.09,-0.007953858385,-0.001991514977
2.1,-0.008056439995,-0.001539441035
2.11,-0.008133292267,-0.001082389901
2.12,-0.008184189079,-0.0006218263809
2.13,-0.008208987698,-0.0001592246008
2.14,-0.0082076291,0.0003039367378
2.15,-0.008180138013,0.0007661791103
2.16,-0.008126622691,0.001226028909
2.17,-0.00804727442,0.00168202216
2.18,-0.007942366764,0.002132709193
2.19,-0.007812254536,0.002576659262
2.2,-0.007657372528,0.003012465093
2.21,-0.007478233966,0.003438747344
2.22,-0.00727542874,0.003854158971
2.23,-0.007049621367,0.004257389474
2.24,-0.006801548745,0.004647169024
2.25,-0.006532017655,0.005022272449
2.26,-0.006241902066,0.00538152306
2.27,-0.005932140217,0.005723796331
2.28,-0.005603731504,0.006048023383
2.29,-0.00525773318,0.006353194301
2.3,-0.004895256872,0.006638361241
2.31,-0.004517464939,0.006902641346
2.32,-0.004125566671,0.007145219429
2.33,-0.003720814344,0.007365350456
2.34,-0.003304499154,0.007562361781
2.35,-0.002877947028,0.007735655156
2.36,-0.002442514339,0.007884708495
2.37,-0.001999583527,0.00800907739
2.38,-0.001550558656,0.008108396382
2.39,-0.001096860901,0.008182379968
2.4,-0.0006399239981,0.008230823361
2.41,-0.0001811896596,0.008253602983
2.42,0.000277897021,0.008250676701
2.43,0.0007358921695,0.008222083809
2.44,0.001191357715,0.008167944737
2.45,0.001642865948,0.008088460518
2.46,0.002089004028,0.00798391199
2.47,0.002528378447,0.007854658745
2.48,0.002959619406,0.007701137838
2.49,0.003381385123,0.007523862244
2.5,0.003792366024,0.007323419083
2.51,0.004191288843,0.00710046761
2.52,0.004576920576,0.006855736978
2.53,0.004948072319,0.006590023792
2.54,0.00530360294,0.006304189446
2.55,0.005642422603,0.005999157263
2.56,0.005963496118,0.005675909444
2.57,0.006265846103,0.00533548384
2.58,0.00654855597,0.00497897055
2.59,0.006810772697,0.004607508363
2.6,0.007051709401,0.004222281054
2.61,0.007270647692,0.003824513542
2.62,0.007466939806,0.003415467931
2.63,0.007640010509,0.002996439438
2.64,0.007789358762,0.002568752226
2.65,0.007914559159,0.002133755153
2.66,0.008015263107,0.001692817459
2.67,0.008091199771,0.001247324385
2.68,0.008142176768,0.0007986727651
2.69,0.008168080603,0.0003482665811
2.7,0.008168876866,-0.0001024874906
2.71,0.008144610173,-0.0005521845318
2.72,0.008095403849,-0.0009994258208
2.73,0.008021459377,-0.00144282324
2.74,0.007923055586,-0.00188100364
2.75,0.007800547609,-0.00231261315
2.76,0.007654365588,-0.002736321411
2.77,0.007485013157,-0.003150825731
2.78,0.007293065684,-0.003554855142
2.79,0.0070791683,-0.003947174346
2.8,0.006844033704,-0.00432658754
2.81,0.006588439762,-0.004691942104
2.82,0.006313226903,-0.005042132156
2.83,0.006019295326,-0.005376101933
2.84,0.005707602019,-0.00569284902
2.85,0.005379157607,-0.005991427396
2.86,0.005035023041,-0.006270950298
2.87,0.004676306127,-0.006530592888
2.88,0.004304157918,-0.006769594719
2.89,0.003919768984,-0.006987261991
2.9,0.003524365548,-0.007182969593
2.91,0.003119205537,-0.007356162916
2.92,0.00270557453,-0.007506359451
2.93,0.002284781624,-0.00763315014
2.94,0.00185815525,-0.007736200502
2.95,0.001427038921,-0.007815251516
2.96,0.0009927869494,-0.00787012026
2.97,0.00055676014,-0.007900700316
2.98,0.0001203214697,-0.007906961921
2.99,-0.0003151682284,-0.007888951878
3,-0.0007483545657,-0.00784679323
3.01,-0.001177893867,-0.007780684688
3.02,-0.001602457397,-0.007690899814
3.03,-0.00202073553,-0.007577785984
3.04,-0.002431441847,-0.007441763103
3.05,-0.002833317156,-0.007283322102
3.06,-0.003225133407,-0.007103023209
3.07,-0.00360569751,-0.006901494008
3.08,-0.003973855023,-0.006679427283
3.09,-0.004328493718,-0.006437578664
3.1,-0.004668546998,-0.006176764076
3.11,-0.004992997167,-0.005897857003
3.12,-0.005300878528,-0.00560178558
3.13,-0.00559128032,-0.005289529505
3.14,-0.005863349466,-0.004962116814
3.15,-0.00611629313,-0.004620620487
3.16,-0.006349381086,-0.00426615494
3.17,-0.006561947871,-0.003899872377
3.18,-0.006753394734,-0.003522959039
3.19,-0.006923191364,-0.003136631352
3.2,-0.0070708774,-0.002742131985
3.21,-0.007196063714,-0.002340725838
3.22,-0.00729843346,-0.001933695964
3.23,-0.007377742892,-0.001522339445
3.24,-0.007433821955,-0.001107963232
3.25,-0.007466574626,-0.0006918799668
3.26,-0.007475979029,-0.0002754037905
3.27,-0.007462087307,0.0001401538412
3.28,-0.007425025263,0.0005534883228
3.29,-0.007364991765,0.0009633060334
3.3,-0.007282257914,0.001368328426
3.31,-0.007177165993,0.00176729606
3.32,-0.007050128186,0.002158972558
3.33,-0.006901625072,0.002542148492
3.34,-0.006732203915,0.002915645155
3.35,-0.006542476737,0.003278318245
3.36,-0.006333118189,0.003629061416
3.37,-0.00610486323,0.00396680971
3.38,-0.00585850462,0.004290542834
3.39,-0.005594890225,0.004599288305
3.4,-0.005314920166,0.004892124418
3.41,-0.005019543793,0.005168183051
3.42,-0.004709756523,0.005426652295
3.43,-0.004386596525,0.00566677889
3.44,-0.004051141288,0.005887870473
3.45,-0.003704504059,0.006089297623
3.46,-0.003347830189,0.006270495697
3.47,-0.002982293372,0.006430966462
3.48,-0.002609091812,0.006570279499
3.49,-0.002229444316,0.006688073393
3.5,-0.001844586329,0.006784056697
3.51,-0.001455765933,0.006858008669
3.52,-0.001064239806,0.006909779781
3.53,-0.0006712691707,0.006939291993
3.54,-0.0002781157352,0.006946538805
3.55,0.0001139623575,0.006931585074
3.56,0.0005037145574,0.006894566599
3.57,0.0008899019011,0.006835689488
3.58,0.001271300958,0.006755229289
3.59,0.001646707717,0.006653529913
3.6,0.0020149414,0.006531002325
3.61,0.002374848193,0.006388123035
3.62,0.002725304876,0.006225432375
3.63,0.003065222354,0.00604353258
3.64,0.003393549055,0.005843085663
3.65,0.003709274217,0.00562481112
3.66,0.004011431015,0.005389483442
3.67,0.004299099555,0.005137929461
3.68,0.004571409698,0.004871025534
3.69,0.004827543722,0.004589694575
3.7,0.005066738803,0.004294902943
3.71,0.005288289322,0.003987657197
3.72,0.005491548966,0.003669000735
3.73,0.005675932648,0.003340010316
3.74,0.005840918211,0.003001792489
3.75,0.005986047934,0.002655479928
3.76,0.006110929821,0.002302227703
3.77,0.006215238673,0.001943209479
3.78,0.006298716947,0.001579613665
3.79,0.006361175383,0.001212639535
3.8,0.006402493426,0.0008434933157
3.81,0.006422619403,0.0004733842606
3.82,0.006421570496,0.0001035207334
3.83,0.00639943248,-0.0002648937026
3.84,0.006356359244,-0.0006306641664
3.85,0.006292572092,-0.0009926083023
3.86,0.006208358829,-0.001349560074
3.87,0.006104072632,-0.001700373491
3.88,0.005980130714,-0.002043926268
3.89,0.005837012781,-0.002379123389
3.9,0.005675259294,-0.002704900578
3.91,0.005495469537,-0.00302022766
3.92,0.005298299501,-0.003324111803
3.93,0.005084459589,-0.003615600625
3.94,0.004854712148,-0.003893785171
3.95,0.004609868846,-0.004157802732
3.96,0.004350787888,-0.004406839508
3.97,0.004078371096,-0.004640133111
3.98,0.003793560848,-0.004856974884
3.99,0.003497336904,-0.005056712049
4,0.003190713107,-0.005238749663
4.01,0.002874733994,-0.005402552379
4.02,0.002550471308,-0.005547646014
4.03,0.002219020436,-0.005673618906
4.04,0.001881496781,-0.005780123075
4.05,0.001539032073,-0.005866875162
4.06,0.001192770646,-0.005933657167
4.07,0.0008438656767,-0.005980316961
4.08,0.0004934754088,-0.006006768593
4.09,0.0001427593717,-0.006012992374
4.1,-0.000207125396,-0.005999034747
4.11,-0.0005550281029,-0.005965007947
4.12,-0.0008998079313,-0.00591108944
4.13,-0.00124033772,-0.005837521159
4.14,-0.001575507593,-0.005744608526
4.15,-0.00190422852,-0.00563271928
4.16,-0.002225435802,-0.005502282091
4.17,-0.002538092465,-0.005353784998
4.18,-0.002841192556,-0.005187773639
4.19,-0.003133764324,-0.005004849318
4.2,-0.003414873291,-0.004805666879
4.21,-0.00368362518,-0.004590932426
4.22,-0.003939168716,-0.004361400874
4.23,-0.004180698268,-0.004117873355
4.24,-0.004407456344,-0.00386119447
4.25,-0.004618735917,-0.003592249424
4.26,-0.004813882583,-0.003311961024
4.27,-0.00499229654,-0.003021286567
4.28,-0.005153434385,-0.002721214628
4.29,-0.00529681072,-0.002412761752
4.3,-0.00542199957,-0.002096969068
4.31,-0.005528635596,-0.001774898828
4.32,-0.005616415115,-0.001447630893
4.33,-0.005685096911,-0.001116259169
4.34,-0.005734502844,-0.000781888007
4.35,-0.005764518254,-0.0004456285816
4.36,-0.005775092148,-0.000108595258
4.37,-0.005766237193,0.0002280980422
4.38,-0.005738029491,0.0005633414622
4.39,-0.005690608157,0.0008960328073
4.4,-0.005624174686,0.001225081107
4.41,-0.005538992125,0.001549410129
4.42,-0.005435384048,0.001867961839
4.43,-0.005313733329,0.002179699783
4.44,-0.005174480739,0.002483612399
4.45,-0.005018123347,0.002778716232
4.46,-0.004845212755,0.00306405905
4.47,-0.004656353148,0.00333872285
4.48,-0.004452199191,0.003601826742
4.49,-0.004233453763,0.003852529707
4.5,-0.004000865541,0.004090033214
4.51,-0.003755226444,0.004313583694
4.52,-0.003497368947,0.004522474863
4.53,-0.003228163265,0.004716049875
4.54,-0.002948514431,0.004893703323
4.55,-0.002659359266,0.005054883053
4.56,-0.002361663253,0.005199091813
4.57,-0.002056417332,0.005325888705
4.58,-0.00174463462,0.005434890467
4.59,-0.001427347071,0.005525772546
4.6,-0.001105602081,0.005598269995
4.61,-0.00078045906,0.005652178165
4.62,-0.0004529859674,0.005687353199
4.63,-0.0001242558384,0.005703712333
4.64,0.0002046567011,0.005701233996
4.65,0.0005326789113,0.005679957711
4.66,0.0008587433994,0.005639983804
4.67,0.001181791553,0.005581472907
4.68,0.001500776933,0.00550464528
4.69,0.001814668619,0.005409779938
4.7,0.002122454494,0.005297213584
4.71,0.002423144455,0.005167339371
4.72,0.002715773546,0.005020605479
4.73,0.002999405002,0.004857513519
4.74,0.003273133187,0.004678616772
4.75,0.003536086426,0.004484518266
4.76,0.00378742972,0.004275868699
4.77,0.004026367333,0.004053364214
4.78,0.004252145244,0.003817744035
4.79,0.004464053454,0.003569787976
4.8,0.004661428156,0.003310313819
4.81,0.004843653734,0.003040174585
4.82,0.005010164612,0.002760255696
4.83,0.005160446931,0.002471472049
4.84,0.005294040057,0.002174764993
4.85,0.005410537915,0.00187109924
4.86,0.005509590137,0.001561459709
4.87,0.005590903036,0.001246848313
4.88,0.005654240387,0.0009282807014
4.89,0.00569942403,0.0006067829721
4.9,0.005726334278,0.0002833883576
4.91,0.005734910139,-4.086610022E-05
4.92,0.005725149348,-0.0003649428765
4.93,0.005697108217,-0.0006878072813
4.94,0.005650901286,-0.001008430758
4.95,0.005586700802,-0.001325794148
4.96,0.005504736007,-0.001638890925
4.97,0.005405292246,-0.001946730362
4.98,0.005288709907,-0.002248340653
4.99,0.005155383178,-0.002542771959
5,0.00500575864,-0.002829099367
5.01,0.004840333705,-0.003106425773
5.02,0.004659654883,-0.003373884653
5.03,0.004464315909,-0.003630642742
5.04,0.004254955724,-0.003875902583
5.05,0.004032256314,-0.004108904966
5.06,0.00379694042,-0.004328931232
5.07,0.003549769135,-0.004535305437
5.08,0.003291539369,-0.004727396383
5.09,0.00302308123,-0.004904619487
5.1,0.00274525529,-0.005066438508
5.11,0.00245894977,-0.005212367106
5.12,0.002165077652,-0.00534197024
5.13,0.001864573712,-0.005454865402
5.14,0.001558391504,-0.005550723672
5.15,0.001247500281,-0.005629270611
5.16,0.0009328818917,-0.005690286966
5.17,0.0006155276384,-0.005733609208
5.18,0.0002964351165,-0.005759129882
5.19,-2.339495336E-05,-0.00576679779
5.2,-0.0003429618929,-0.005756617983
5.21,-0.000661268224,-0.005728651585
5.22,-0.0009773228042,-0.005683015432
5.23,-0.001290143933,-0.005619881544
5.24,-0.001598762417,-0.005539476418
5.25,-0.001902224586,-0.005442080155
5.26,-0.002199595247,-0.005328025418
5.27,-0.002489960575,-0.005197696232
5.28,-0.002772430919,-0.00505152662
5.29,-0.003046143532,-0.004889999091
5.3,-0.003310265198,-0.00471364298
5.31,-0.003563994762,-0.00452303264
5.32,-0.003806565545,-0.004318785507
5.33,-0.004037247651,-0.004101560032
5.34,-0.004255350143,-0.003872053488
5.35,-0.00446022309,-0.003630999671
5.36,-0.004651259479,-0.003379166481
5.37,-0.004827896986,-0.00311735342
5.38,-0.004989619602,-0.002846388985
5.39,-0.005135959102,-0.002567127989
5.4,-0.005266496363,-0.002280448801
5.41,-0.005380862526,-0.00198725053
5.42,-0.005478739989,-0.001688450148
5.43,-0.005559863243,-0.001384979565
5.44,-0.005624019536,-0.001077782676
5.45,-0.005671049375,-0.0007678123722
5.46,-0.005700846853,-0.0004560275378
5.47,-0.005713359811,-0.0001433900409
5.48,-0.005708589831,0.0001691382779
5.49,-0.005686592062,0.0004805986045
5.5,-0.005647474874,0.0007900381306
5.51,-0.005591399351,0.001096513003
5.52,-0.005518578623,0.001399091237
5.53,-0.005429277031,0.001696855578
5.54,-0.00532380914,0.001988906309
5.55,-0.005202538598,0.002274363996
5.56,-0.005065876847,0.002552372158
5.57,-0.004914281683,0.002822099851
5.58,-0.004748255685,0.003082744176
5.59,-0.004568344506,0.003333532672
5.6,-0.004375135036,0.003573725627
5.61,-0.004169253439,0.00380261826
5.62,-0.003951363086,0.004019542794
5.63,-0.003722162366,0.004223870411
5.64,-0.003482382405,0.004415013071
5.65,-0.003232784689,0.004592425198
5.66,-0.002974158599,0.004755605234
5.67,-0.002707318868,0.004904097045
5.68,-0.002433102975,0.005037491182
5.69,-0.002152368468,0.00515542599
5.7,-0.00186599024,0.005257588572
5.71,-0.001574857761,0.005343715589
5.72,-0.001279872274,0.005413593908
5.73,-0.0009819439622,0.005467061089
5.74,-0.0006819891011,0.005504005717
5.75,-0.0003809272037,0.005524367571
5.76,-7.9678162E-05,0.005528137631
5.77,0.0002208405992,0.005515357937
5.78,0.0005197169521,0.005486121272
5.79,0.0008160468681,0.005440570708
5.8,0.001108937185,0.005378898985
5.81,0.001397508331,0.005301347743
5.82,0.001680896994,0.005208206602
5.83,0.001958258736,0.005099812105
5.84,0.002228770533,0.004976546505
5.85,0.002491633246,0.004838836433
5.86,0.002746074,0.004687151415
5.87,0.002991348486,0.004522002277
5.88,0.003226743153,0.004343939415
5.89,0.003451577304,0.004153550963
5.9,0.003665205081,0.003951460837
5.91,0.003867017336,0.003738326682
5.92,0.00405644338,0.003514837724
5.93,0.004232952605,0.00328171253
5.94,0.004396055982,0.003039696683
5.95,0.004545307421,0.002789560385
5.96,0.00468030499,0.002532095993
5.97,0.004800691998,0.002268115494
5.98,0.004906157936,0.001998447927
5.99,0.004996439264,0.001723936767
6,0.005071320058,0.001445437268
