"Freq [GHz]","re(S(Tx_p1,Tx_p1)) []","im(S(Tx_p1,Tx_p1)) []"
1,0.1059845189,-0.09095083034
1.01,0.1042585536,-0.09189349178
1.02,0.1025312187,-0.09284612163
1.03,0.1008012205,-0.09380746042
1.04,0.09906733606,-0.09477629629
1.05,0.09732840585,-0.09575146159
1.06,0.09558332856,-0.09673182955
1.07,0.0938310554,-0.09771631086
1.08,0.09207058522,-0.09870385029
1.09,0.09030096001,-0.09969342324
1.1,0.0885212608,-0.1006840323
1.11,0.08673060406,-0.1016747039
1.12,0.08492813842,-0.1026644849
1.13,0.08311304182,-0.103652439
1.14,0.08128451903,-0.1046376438
1.15,0.07944179954,-0.1056191873
1.16,0.07758413578,-0.1065961648
1.17,0.0757108017,-0.1075676757
1.18,0.07382109164,-0.1085328205
1.19,0.07191431953,-0.1094906977
1.2,0.06998981843,-0.1104404014
1.21,0.06804694023,-0.1113810181
1.22,0.06608505576,-0.1123116245
1.23,0.06410355507,-0.1132312848
1.24,0.06210184798,-0.1141390486
1.25,0.06007936481,-0.1150339486
1.26,0.05803555744,-0.1159149988
1.27,0.05596990041,-0.1167811925
1.28,0.05388189237,-0.1176315009
1.29,0.05177105753,-0.1184648715
1.3,0.0496369474,-0.119280227
1.31,0.04747914261,-0.1200764643
1.32,0.04529725486,-0.1208524533
1.33,0.04309092897,-0.1216070369
1.34,0.04085984503,-0.1223390299
1.35,0.03860372066,-0.1230472194
1.36,0.03632231329,-0.1237303645
1.37,0.03401542247,-0.1243871964
1.38,0.03168289229,-0.1250164193
1.39,0.02932461374,-0.1256167106
1.4,0.02694052712,-0.126186722
1.41,0.0245306244,-0.1267250805
1.42,0.02209495159,-0.12723039
1.43,0.01963361105,-0.1277012324
1.44,0.01714676374,-0.1281361694
1.45,0.01463463139,-0.1285337446
1.46,0.01209749866,-0.1288924855
1.47,0.009535715062,-0.1292109057
1.48,0.00694969696,-0.1294875074
1.49,0.004339929282,-0.1297207841
1.5,0.001706967203,-0.1299092235
1.51,-0.0009485623494,-0.1300513101
1.52,-0.003625959337,-0.1301455287
1.53,-0.006324449411,-0.1301903671
1.54,-0.009043182883,-0.1301843203
1.55,-0.01178123388,-0.130125893
1.56,-0.01453759967,-0.1300136038
1.57,-0.01731120021,-0.1298459887
1.58,-0.02010087785,-0.1296216047
1.59,-0.0229053973,-0.129339034
1.6,-0.02572344575,-0.1289968871
1.61,-0.02855363321,-0.1285938075
1.62,-0.03139449313,-0.1281284752
1.63,-0.03424448316,-0.1275996106
1.64,-0.03710198616,-0.1270059786
1.65,-0.03996531144,-0.1263463925
1.66,-0.04283269622,-0.1256197176
1.67,-0.04570230731,-0.1248248756
1.68,-0.04857224297,-0.1239608478
1.69,-0.05144053505,-0.1230266793
1.7,-0.05430515129,-0.1220214822
1.71,-0.05716399787,-0.1209444397
1.72,-0.06001492212,-0.1197948091
1.73,-0.06285571549,-0.1185719251
1.74,-0.06568411659,-0.1172752034
1.75,-0.06849781462,-0.1159041436
1.76,-0.07129445273,-0.1144583319
1.77,-0.07407163179,-0.1129374439
1.78,-0.0768269141,-0.1113412476
1.79,-0.07955782745,-0.109669605
1.8,-0.08226186916,-0.1079224752
1.81,-0.08493651037,-0.1060999158
1.82,-0.08757920035,-0.1042020847
1.83,-0.09018737101,-0.1022292422
1.84,-0.09275844144,-0.1001817516
1.85,-0.09528982258,-0.09806008095
1.86,-0.09777892192,-0.09586480382
1.87,-0.1002231483,-0.09359659977
1.88,-0.1026199167,-0.09125625494
1.89,-0.1049666531,-0.08884466218
1.9,-0.1072607995,-0.08636282107
1.91,-0.1094998186,-0.08381183751
1.92,-0.1116811989,-0.08119292329
1.93,-0.1138024592,-0.0785073952
1.94,-0.115861154,-0.07575667408
1.95,-0.1178548777,-0.07294228348
1.96,-0.1197812696,-0.0700658482
1.97,-0.1216380187,-0.06712909249
1.98,-0.123422868,-0.06413383809
1.99,-0.1251336189,-0.06108200205
2,-0.126768136,-0.05797559423
2.01,-0.1283243509,-0.05481671474
2.02,-0.1298002664,-0.05160755101
2.03,-0.1311939607,-0.04835037476
2.04,-0.1325035908,-0.04504753879
2.05,-0.1337273966,-0.0417014735
2.06,-0.1348637039,-0.03831468328
2.07,-0.135910928,-0.03488974278
2.08,-0.1368675767,-0.03142929296
2.09,-0.1377322533,-0.02793603701
2.1,-0.1385036589,-0.02441273616
2.11,-0.1391805953,-0.02086220536
2.12,-0.1397619671,-0.01728730882
2.13,-0.1402467836,-0.01369095552
2.14,-0.1406341609,-0.01007609453
2.15,-0.1409233231,-0.006445710407
2.16,-0.1411136038,-0.002802818361
2.17,-0.1412044474,0.0008495404859
2.18,-0.1411954094,0.004508303952
2.19,-0.1410861577,0.008170393641
2.2,-0.1408764723,0.0118327198
2.21,-0.1405662462,0.01549218617
2.22,-0.1401554843,0.01914569482
2.23,-0.1396443041,0.02279015097
2.24,-0.1390329344,0.02642246773
2.25,-0.1383217147,0.03003957081
2.26,-0.1375110943,0.03363840315
2.27,-0.136601631,0.03721592952
2.28,-0.1355939895,0.04076914093
2.29,-0.1344889399,0.04429505902
2.3,-0.1332873555,0.04779074035
2.31,-0.1319902114,0.05125328046
2.32,-0.1305985816,0.05467981793
2.33,-0.1291136367,0.05806753821
2.34,-0.1275366416,0.06141367731
2.35,-0.1258689524,0.06471552539
2.36,-0.1241120139,0.06797043012
2.37,-0.1222673558,0.07117579989
2.38,-0.1203365905,0.07432910685
2.39,-0.1183214092,0.07742788972
2.4,-0.1162235784,0.08046975652
2.41,-0.1140449369,0.08345238696
2.42,-0.1117873918,0.08637353475
2.43,-0.1094529151,0.08923102967
2.44,-0.1070435399,0.09202277938
2.45,-0.1045613565,0.09474677116
2.46,-0.1020085088,0.09740107328
2.47,-0.0993871906,0.09998383633
2.48,-0.09669964131,0.1024932942
2.49,-0.09394814256,0.104927765
2.5,-0.09113501416,0.1072856516
2.51,-0.08826261034,0.1095654421
2.52,-0.08533331599,0.1117657102
2.53,-0.0823495429,0.1138851151
2.54,-0.07931372613,0.1159224016
2.55,-0.07622832036,0.1178763992
2.56,-0.07309579635,0.1197460226
2.57,-0.06991863751,0.1215302701
2.58,-0.06669933652,0.1232282232
2.59,-0.06344039206,0.1248390458
2.6,-0.06014430566,0.1263619827
2.61,-0.05681357863,0.1277963586
2.62,-0.05345070919,0.1291415765
2.63,-0.05005818964,0.1303971164
2.64,-0.04663850371,0.1315625336
2.65,-0.04319412402,0.132637457
2.66,-0.03972750973,0.133621587
2.67,-0.03624110433,0.134514694
2.68,-0.03273733347,0.1353166162
2.69,-0.02921860316,0.1360272576
2.7,-0.02568729787,0.1366465859
2.71,-0.02214577901,0.1371746302
2.72,-0.01859638343,0.1376114792
2.73,-0.0150414221,0.1379572786
2.74,-0.011483179,0.1382122291
2.75,-0.007923910106,0.1383765843
2.76,-0.004365842534,0.1384506481
2.77,-0.0008111738714,0.1384347729
2.78,0.002737928378,0.1383293574
2.79,0.0062793272,0.1381348442
2.8,0.009810916334,0.1378517181
2.81,0.01333062041,0.1374805037
2.82,0.01683639493,0.1370217637
2.83,0.0203262262,0.136476097
2.84,0.02379813105,0.1358441367
2.85,0.0272501565,0.1351265486
2.86,0.03068037935,0.1343240294
2.87,0.03408690562,0.1334373053
2.88,0.03746786991,0.1324671303
2.89,0.04082143476,0.1314142851
2.9,0.04414578983,0.1302795761
2.91,0.04743915107,0.1290638336
2.92,0.05069975991,0.1277679115
2.93,0.05392588225,0.1263926861
2.94,0.05711580758,0.1249390553
2.95,0.06026784797,0.1234079383
2.96,0.0633803371,0.1218002747
2.97,0.06645162924,0.1201170246
2.98,0.06948009829,0.1183591677
2.99,0.07246413683,0.1165277038
3,0.0754021551,0.1146236526
3.01,0.07829258016,0.1126480535
3.02,0.08113385496,0.1106019663
3.03,0.08392443756,0.1084864712
3.04,0.08666280033,0.1063026694
3.05,0.0893474293,0.1040516835
3.06,0.09197682347,0.1017346584
3.07,0.09454949432,0.09935276181
3.08,0.09706396534,0.09690718504
3.09,0.09951877167,0.09439914409
3.1,0.1019124599,0.09182988047
3.11,0.1042435877,0.08920066224
3.12,0.1065107242,0.08651278515
3.13,0.1087124496,0.08376757372
3.14,0.1108473557,0.0809663824
3.15,0.1129140461,0.07811059681
3.16,0.1149111366,0.0752016349
3.17,0.1168372559,0.07224094824
3.18,0.1186910462,0.06923002317
3.19,0.1204711641,0.06617038208
3.2,0.1221762816,0.06306358459
3.21,0.1238050871,0.0599112287
3.22,0.1253562866,0.05671495198
3.23,0.1268286053,0.05347643258
3.24,0.1282207889,0.05019739034
3.25,0.1295316052,0.0468795877
3.26,0.1307598458,0.04352483062
3.27,0.1319043281,0.04013496939
3.28,0.1329638973,0.0367118993
3.29,0.1339374281,0.0332575613
3.3,0.1348238272,0.0297739425
3.31,0.1356220355,0.02626307653
3.32,0.1363310304,0.0227270438
3.33,0.1369498281,0.01916797165
3.34,0.1374774863,0.01558803435
3.35,0.1379131068,0.01198945289
3.36,0.1382558377,0.008374494748
3.37,0.1385048767,0.004745473376
3.38,0.1386594731,0.001104747607
3.39,0.1387189311,-0.00254527913
3.4,0.1386826122,-0.006202159765
3.41,0.1385499381,-0.009863404697
3.42,0.1383203932,-0.01352648309
3.43,0.1379935277,-0.01718882433
3.44,0.1375689601,-0.02084781966
3.45,0.1370463797,-0.024500824
3.46,0.1364255494,-0.02814515791
3.47,0.1357063085,-0.03177810976
3.48,0.1348885744,-0.03539693805
3.49,0.133972346,-0.03899887388
3.5,0.1329577053,-0.04258112364
3.51,0.1318448197,-0.04614087179
3.52,0.1306339445,-0.04967528385
3.53,0.1293254245,-0.0531815095
3.54,0.1279196959,-0.05665668588
3.55,0.1264172882,-0.06009794093
3.56,0.1248188256,-0.06350239697
3.57,0.1231250281,-0.06686717433
3.58,0.1213367136,-0.07018939512
3.59,0.1194547979,-0.07346618711
3.6,0.1174802964,-0.07669468767
3.61,0.1154143243,-0.0798720479
3.62,0.1132580973,-0.08299543665
3.63,0.111012932,-0.08606204482
3.64,0.1086802455,-0.08906908955
3.65,0.1062615558,-0.09201381857
3.66,0.1037584813,-0.09489351447
3.67,0.1011727401,-0.09770549909
3.68,0.0985061495,-0.1004471379
3.69,0.09576062462,-0.1031158443
3.7,0.09293817756,-0.1057090839
3.71,0.09004091577,-0.1082243791
3.72,0.0870710404,-0.1106593132
3.73,0.0840308445,-0.1130115343
3.74,0.08092271083,-0.11527876
3.75,0.07774910964,-0.1174587813
3.76,0.07451259604,-0.1195494663
3.77,0.07121580739,-0.1215487646
3.78,0.06786146024,-0.1234547104
3.79,0.06445234731,-0.1252654269
3.8,0.06099133408,-0.1269791292
3.81,0.05748135534,-0.128594128
3.82,0.05392541146,-0.1301088329
3.83,0.05032656457,-0.1315217549
3.84,0.04668793452,-0.13283151
3.85,0.04301269474,-0.1340368212
3.86,0.03930406788,-0.1351365215
3.87,0.03556532143,-0.1361295559
3.88,0.03179976313,-0.1370149837
3.89,0.02801073629,-0.1377919799
3.9,0.02420161505,-0.1384598376
3.91,0.0203757995,-0.1390179685
3.92,0.01653671076,-0.1394659048
3.93,0.01268778601,-0.1398032999
3.94,0.008832473411,-0.1400299288
3.95,0.004974227072,-0.1401456891
3.96,0.001116501932,-0.1401506007
3.97,-0.00273725134,-0.1400448062
3.98,-0.006583591446,-0.1398285701
3.99,-0.01041909154,-0.1395022788
4,-0.0142403443,-0.1390664395
4.01,-0.01804396691,-0.1385216792
4.02,-0.02182660603,-0.1378687436
4.03,-0.02558494268,-0.1371084953
4.04,-0.02931569702,-0.1362419124
4.05,-0.03301563311,-0.1352700864
4.06,-0.03668156343,-0.1341942198
4.07,-0.04031035342,-0.133015624
4.08,-0.04389892582,-0.1317357165
4.09,-0.04744426485,-0.1303560182
4.1,-0.05094342029,-0.1288781504
4.11,-0.05439351137,-0.1273038312
4.12,-0.05779173046,-0.1256348727
4.13,-0.06113534667,-0.123873177
4.14,-0.06442170912,-0.122020733
4.15,-0.06764825016,-0.1200796117
4.16,-0.07081248827,-0.1180519632
4.17,-0.07391203084,-0.1159400119
4.18,-0.07694457663,-0.1137460525
4.19,-0.07990791809,-0.1114724458
4.2,-0.08279994344,-0.1091216139
4.21,-0.08561863849,-0.1066960363
4.22,-0.08836208824,-0.1041982448
4.23,-0.09102847823,-0.1016308195
4.24,-0.09361609571,-0.09899638333
4.25,-0.09612333046,-0.09629759834
4.26,-0.09854867551,-0.09353716042
4.27,-0.1008907275,-0.09071779486
4.28,-0.1031481868,-0.08784225175
4.29,-0.1053198577,-0.0849133013
4.3,-0.1074046478,-0.08193372937
4.31,-0.1094015675,-0.07890633289
4.32,-0.1113097296,-0.07583391551
4.33,-0.1131283481,-0.07271928322
4.34,-0.1148567369,-0.06956524009
4.35,-0.1164943088,-0.06637458415
4.36,-0.1180405733,-0.06315010333
4.37,-0.1194951358,-0.05989457159
4.38,-0.1208576946,-0.05661074512
4.39,-0.1221280395,-0.05330135874
4.4,-0.1233060493,-0.04996912242
4.41,-0.1243916891,-0.04661671797
4.42,-0.1253850084,-0.04324679591
4.43,-0.1262861376,-0.0398619725
4.44,-0.1270952857,-0.03646482701
4.45,-0.1278127371,-0.03305789904
4.46,-0.1284388487,-0.02964368624
4.47,-0.1289740468,-0.02622464203
4.48,-0.1294188239,-0.02280317364
4.49,-0.129773735,-0.01938164033
4.5,-0.1300393952,-0.01596235179
4.51,-0.1302164755,-0.01254756677
4.52,-0.1303056999,-0.009139491934
4.53,-0.1303078418,-0.005740280864
4.54,-0.1302237209,-0.002352033338
4.55,-0.1300541997,0.001023205227
4.56,-0.12980018,0.004383444124
4.57,-0.1294625999,0.007726747497
4.58,-0.1290424303,0.0110512343
4.59,-0.1285406721,0.01435507804
4.6,-0.1279583527,0.01763650638
4.61,-0.1272965232,0.02089380052
4.62,-0.1265562554,0.02412529443
4.63,-0.1257386391,0.0273293739
4.64,-0.1248447791,0.03050447548
4.65,-0.1238757932,0.03364908519
4.66,-0.1228328091,0.03676173717
4.67,-0.1217169626,0.03984101215
4.68,-0.1205293949,0.04288553584
4.69,-0.1192712514,0.04589397716
4.7,-0.1179436791,0.04886504644
4.71,-0.1165478251,0.05179749344
4.72,-0.1150848354,0.05469010539
4.73,-0.1135558533,0.05754170491
4.74,-0.1119620182,0.06035114787
4.75,-0.1103044649,0.06311732123
4.76,-0.1085843223,0.06583914088
4.77,-0.1068027133,0.06851554938
4.78,-0.104960754,0.07114551376
4.79,-0.1030595536,0.07372802335
4.8,-0.1011002143,0.07626208753
4.81,-0.09908383127,0.0787467336
4.82,-0.09701149312,0.08118100466
4.83,-0.09488428215,0.08356395754
4.84,-0.09270327501,0.08589466081
4.85,-0.09046954349,0.08817219284
4.86,-0.08818415541,0.09039563999
4.87,-0.08584817567,0.09256409484
4.88,-0.08346266746,0.09467665457
4.89,-0.08102869362,0.09673241943
4.9,-0.07854731806,0.09873049138
4.91,-0.07601960738,0.1006699728
4.92,-0.07344663255,0.1025499653
4.93,-0.07082947066,0.1043695689
4.94,-0.06816920683,0.1061278812
4.95,-0.06546693616,0.1078239964
4.96,-0.06272376572,0.1094570053
4.97,-0.05994081663,0.1110259947
4.98,-0.05711922619,0.1125300472
4.99,-0.05426015003,0.1139682412
5,-0.05136476425,0.1153396515
5.01,-0.0484342676,0.1166433492
5.02,-0.04546988367,0.1178784024
5.03,-0.04247286305,0.1190438773
5.04,-0.03944448541,0.1201388385
5.05,-0.03638606164,0.1211623506
5.06,-0.03329893584,0.1221134794
5.07,-0.03018448733,0.1229912933
5.08,-0.02704413248,0.1237948646
5.09,-0.02387932659,0.1245232721
5.1,-0.02069156553,0.1251756021
5.11,-0.01748238737,0.1257509514
5.12,-0.01425337383,0.1262484289
5.13,-0.01100615165,0.1266671582
5.14,-0.007742393773,0.1270062804
5.15,-0.004463820403,0.1272649564
5.16,-0.001172199897,0.1274423697
5.17,0.002130650502,0.1275377296
5.18,0.005442864118,0.1275502738
5.19,0.008762524464,0.1274792718
5.2,0.01208766506,0.1273240278
5.21,0.01541626945,0.1270838838
5.22,0.0187462714,0.1267582232
5.23,0.02207555529,0.126346474
5.24,0.02540195677,0.1258481117
5.25,0.02872326356,0.1252626634
5.26,0.03203721648,0.1245897102
5.27,0.03534151072,0.1238288915
5.28,0.03863379726,0.1229799075
5.29,0.04191168458,0.1220425229
5.3,0.04517274056,0.1210165699
5.31,0.0484144945,0.1199019516
5.32,0.05163443948,0.1186986448
5.33,0.05483003486,0.117406703
5.34,0.05799870895,0.1160262595
5.35,0.06113786193,0.11455753
5.36,0.06424486892,0.1130008152
5.37,0.06731708326,0.1113565036
5.38,0.07035183994,0.1096250733
5.39,0.0733464592,0.1078070947
5.4,0.07629825031,0.1059032324
5.41,0.07920451547,0.1039142468
5.42,0.08206255386,0.1018409961
5.43,0.08486966585,0.09968443734
5.44,0.08762315726,0.09744562812
5.45,0.0903203438,0.09512572727
5.46,0.09295855553,0.09272599577
5.47,0.0955351415,0.09024779733
5.48,0.09804747435,0.08769259874
5.49,0.1004929551,0.08506196995
5.5,0.1028690176,0.08235758391
5.51,0.105173134,0.07958121623
5.52,0.1074028188,0.07673474451
5.53,0.1095556339,0.07382014747
5.54,0.1116291936,0.07083950378
5.55,0.1136211692,0.06779499068
5.56,0.1155292937,0.06468888235
5.57,0.1173513664,0.06152354799
5.58,0.1190852579,0.05830144969
5.59,0.1207289141,0.05502514004
5.6,0.1222803607,0.05169725948
5.61,0.123737708,0.04832053345
5.62,0.1250991544,0.04489776932
5.63,0.1263629911,0.04143185299
5.64,0.1275276055,0.03792574545
5.65,0.1285914853,0.03438247892
5.66,0.1295532217,0.030805153
5.67,0.1304115133,0.02719693046
5.68,0.1311651687,0.02356103293
5.69,0.1318131099,0.01990073642
5.7,0.1323543752,0.01621936663
5.71,0.1327881212,0.01252029413
5.72,0.1331136254,0.00880692946
5.73,0.1333302887,0.005082718009
5.74,0.1334376366,0.00135113484
5.75,0.1334353208,-0.002384320599
5.76,0.1333231213,-0.006120129847
5.77,0.1331009465,-0.009852760878
5.78,0.1327688345,-0.01357867361
5.79,0.1323269535,-0.01729432545
5.8,0.1317756024,-0.02099617686
5.81,0.13111521,-0.02468069698
5.82,0.1303463355,-0.02834436919
5.83,0.1294696675,-0.0319836967
5.84,0.1284860232,-0.0355952081
5.85,0.1273963475,-0.03917546287
5.86,0.1262017113,-0.0427210568
5.87,0.1249033102,-0.04622862739
5.88,0.1235024624,-0.04969485913
5.89,0.1220006063,-0.05311648867
5.9,0.1203992987,-0.05649030992
5.91,0.1187002117,-0.05981317896
5.92,0.1169051297,-0.06308201888
5.93,0.1150159468,-0.0662938244
5.94,0.113034663,-0.06944566639
5.95,0.1109633807,-0.07253469615
5.96,0.1088043013,-0.07555814957
5.97,0.1065597209,-0.07851335103
5.98,0.1042320264,-0.08139771716
5.99,0.1018236911,-0.08420876031
6,0.09933727031,-0.0869440919
