"Freq [GHz]","re(S(Tx_p1,Tx_p1)) []","im(S(Tx_p1,Tx_p1)) []"
1,-0.02779200458,-0.05414468184
1.01,-0.02983520465,-0.05269612859
1.02,-0.03181342103,-0.05116271062
1.03,-0.0337224025,-0.0495473575
1.04,-0.03555805954,-0.04785323697
1.05,-0.0373164768,-0.04608374427
1.06,-0.03899392497,-0.04424249101
1.07,-0.04058687196,-0.04233329344
1.08,-0.04209199337,-0.04036016032
1.09,-0.04350618227,-0.03832728023
1.1,-0.04482655821,-0.03623900856
1.11,-0.04605047553,-0.03409985404
1.12,-0.04717553086,-0.03191446494
1.13,-0.04819956981,-0.02968761505
1.14,-0.04912069294,-0.02742418927
1.15,-0.0499372609,-0.02512916905
1.16,-0.05064789868,-0.02280761763
1.17,-0.05125149918,-0.02046466518
1.18,-0.05174722585,-0.01810549375
1.19,-0.05213451454,-0.01573532226
1.2,-0.05241307454,-0.01335939143
1.21,-0.05258288883,-0.01098294875
1.22,-0.05264421342,-0.008611233486
1.23,-0.052597576,-0.006249461881
1.24,-0.05244377374,-0.003902812431
1.25,-0.05218387028,-0.001576411393
1.26,-0.05181919201,0.0007246814755
1.27,-0.05135132358,0.002995486905
1.28,-0.05078210263,0.005231119789
1.29,-0.05011361386,0.00742680251
1.3,-0.04934818242,0.009577877875
1.31,-0.04848836651,0.01167982163
1.32,-0.04753694955,0.01372825454
1.33,-0.04649693148,0.01571895392
1.34,-0.04537151972,0.01764786474
1.35,-0.04416411936,0.01951111013
1.36,-0.042878323,0.02130500127
1.37,-0.04151789995,0.02302604679
1.38,-0.04008678509,0.02467096144
1.39,-0.03858906725,0.02623667419
1.4,-0.0370289772,0.02772033564
1.41,-0.03541087532,0.0291193247
1.42,-0.03373923894,0.0304312547
1.43,-0.03201864942,0.03165397861
1.44,-0.030253779,0.03278559375
1.45,-0.02844937745,0.03382444555
1.46,-0.02661025856,0.03476913074
1.47,-0.02474128655,0.03561849973
1.48,-0.02284736241,0.03637165824
1.49,-0.02093341014,0.03702796817
1.5,-0.01900436311,0.03758704782
1.51,-0.01706515038,0.03804877122
1.52,-0.01512068319,0.03841326686
1.53,-0.01317584147,0.03868091562
1.54,-0.01123546067,0.038852348
1.55,-0.009304318648,0.03892844068
1.56,-0.007387122909,0.03891031234
1.57,-0.005488498072,0.03879931883
1.58,-0.003612973666,0.0385970477
1.59,-0.001764972281,0.03830531206
1.6,5.120190569E-05,0.03792614391
1.61,0.001831374183,0.03746178674
1.62,0.003571509922,0.03691468771
1.63,0.005267724708,0.0362874892
1.64,0.006916293986,0.03558301992
1.65,0.008513662168,0.03480428544
1.66,0.0100564512,0.0339544584
1.67,0.01154146855,0.03303686821
1.68,0.01296571462,0.03205499039
1.69,0.01432638952,0.03101243555
1.7,0.01562089924,0.02991293813
1.71,0.0168468612,0.02876034471
1.72,0.01800210907,0.02755860224
1.73,0.01908469705,0.02631174594
1.74,0.02009290333,0.02502388711
1.75,0.02102523302,0.02369920075
1.76,0.0218804203,0.02234191312
1.77,0.02265742991,0.02095628922
1.78,0.02335545798,0.01954662028
1.79,0.02397393214,0.01811721124
1.8,0.02451251101,0.01667236827
1.81,0.02497108293,0.01521638644
1.82,0.02534976414,0.01375353745
1.83,0.02564889618,0.01228805756
1.84,0.02586904278,0.0108241357
1.85,0.02601098598,0.009365901841
1.86,0.0260757218,0.007917415602
1.87,0.02606445513,0.006482655149
1.88,0.02597859425,0.005065506446
1.89,0.02581974457,0.003669752851
1.9,0.02558970207,0.0022990651
1.91,0.025290446,0.0009569917035
1.92,0.02492413132,-0.0003530502127
1.93,0.02449308045,-0.001627783609
1.94,0.02399977483,-0.002864079739
1.95,0.02344684587,-0.004058965856
1.96,0.02283706564,-0.005209632385
1.97,0.0221733372,-0.00631343955
1.98,0.02145868461,-0.007367923446
1.99,0.02069624267,-0.008370801522
2,0.01988924639,-0.009319977492
2.01,0.01904102028,-0.01021354563
2.02,0.01815496745,-0.01104979447
2.03,0.01723455856,-0.01182720988
2.04,0.01628332068,-0.01254447752
2.05,0.01530482604,-0.0132004847
2.06,0.01430268079,-0.01379432158
2.07,0.0132805137,-0.01432528173
2.08,0.01224196494,-0.01479286217
2.09,0.01119067485,-0.01519676266
2.1,0.01013027293,-0.01553688447
2.11,0.00906436681,-0.01581332853
2.12,0.007996531488,-0.016026393
2.13,0.006930298723,-0.0161765702
2.14,0.005869146652,-0.01626454305
2.15,0.004816489668,-0.01629118093
2.16,0.003775668572,-0.016257535
2.17,0.00274994105,-0.01616483301
2.18,0.001742472471,-0.0160144736
2.19,0.0007563270653,-0.01580802016
2.2,-0.0002055405227,-0.01554719423
2.21,-0.001140293263,-0.01523386841
2.22,-0.002045219337,-0.01487005896
2.23,-0.002917739287,-0.01445791796
2.24,-0.003755412687,-0.01399972513
2.25,-0.004555944329,-0.01349787935
2.26,-0.005317189907,-0.01295488985
2.27,-0.006037161181,-0.01237336717
2.28,-0.006714030613,-0.01175601385
2.29,-0.00734613546,-0.01110561495
2.3,-0.007931981325,-0.01042502836
2.31,-0.008470245145,-0.009717175006
2.32,-0.008959777624,-0.008985028917
2.33,-0.009399605102,-0.008231607216
2.34,-0.009788930855,-0.007459960071
2.35,-0.01012713583,-0.00667316063
2.36,-0.01041377883,-0.005874294959
2.37,-0.01064859612,-0.005066452044
2.38,-0.01083150047,-0.004252713853
2.39,-0.0109625797,-0.003436145515
2.4,-0.01104209466,-0.002619785639
2.41,-0.01107047662,-0.001806636785
2.42,-0.01104832428,-0.0009996561503
2.43,-0.01097640013,-0.0002017464588
2.44,-0.01085562645,0.0005842528859
2.45,-0.01068708073,0.001355574379
2.46,-0.01047199071,0.002109530693
2.47,-0.01021172898,0.002843522628
2.48,-0.009907807113,0.00355504672
2.49,-0.009561869468,0.00424170248
2.5,-0.009175686583,0.004901199244
2.51,-0.008751148234,0.005531362618
2.52,-0.008290256176,0.0061301405
2.53,-0.007795116579,0.006695608663
2.54,-0.007267932198,0.007225975878
2.55,-0.006710994294,0.007719588579
2.56,-0.006126674343,0.008174935045
2.57,-0.005517415555,0.008590649095
2.58,-0.004885724228,0.008965513289
2.59,-0.004234160972,0.009298461624
2.6,-0.003565331832,0.009588581725
2.61,-0.002881879333,0.009835116524
2.62,-0.002186473478,0.01003746543
2.63,-0.001481802731,0.01019518498
2.64,-0.0007705650144,0.01030798901
2.65,-5.545874064E-05,0.01037574823
2.66,0.000660826083,0.01039848945
2.67,0.001375616656,0.01037639414
2.68,0.002086266059,0.01030979664
2.69,0.002790161785,0.01019918181
2.7,0.003484734084,0.01004518222
2.71,0.004167464117,0.009848574932
2.72,0.004835891874,0.009610277802
2.73,0.005487623847,0.00933134535
2.74,0.006120340433,0.009012964239
2.75,0.006731803035,0.008656448355
2.76,0.007319860854,0.00826323351
2.77,0.007882457345,0.007834871784
2.78,0.008417636319,0.007373025548
2.79,0.008923547677,0.006879461155
2.8,0.009398452759,0.006356042357
2.81,0.009840729287,0.00580472344
2.82,0.0102488759,0.005227542127
2.83,0.01062151628,0.004626612252
2.84,0.0109574028,0.004004116248
2.85,0.01125541976,0.003362297457
2.86,0.01151458618,0.002703452309
2.87,0.01173405814,0.002029922368
2.88,0.01191313058,0.001344086304
2.89,0.01205123876,0.0006483517879
2.9,0.01214795915,-5.48526441E-05
2.91,0.01220300994,-0.0007630857401
2.92,0.012216251,-0.001473901667
2.93,0.01218768342,-0.002184858102
2.94,0.01211744866,-0.002893524263
2.95,0.0120058271,-0.003597488836
2.96,0.0118532363,-0.004294367801
2.97,0.01166022873,-0.004981812097
2.98,0.01142748912,-0.005657515141
2.99,0.01115583138,-0.006319220145
3,0.0108461951,-0.006964727227
3.01,0.01049964174,-0.007591900289
3.02,0.01011735037,-0.008198673646
3.03,0.009700613054,-0.008783058372
3.04,0.009250829997,-0.009343148368
3.05,0.008769504242,-0.009877126107
3.06,0.008258236155,-0.01038326807
3.07,0.007718717593,-0.01085994981
3.08,0.007152725822,-0.01130565072
3.09,0.006562117199,-0.01171895835
3.1,0.005948820626,-0.01209857242
3.11,0.005314830829,-0.0124433084
3.12,0.004662201444,-0.01275210069
3.13,0.003993037974,-0.01302400543
3.14,0.003309490613,-0.01325820286
3.15,0.002613746971,-0.01345399926
3.16,0.001908024727,-0.01361082848
3.17,0.001194564229,-0.01372825306
3.18,0.0004756210619,-0.01380596491
3.19,-0.0002465413747,-0.01384378556
3.2,-0.0009696592804,-0.01384166596
3.21,-0.001691475815,-0.01379968596
3.22,-0.002409748393,-0.01371805323
3.23,-0.003122255885,-0.0135971019
3.24,-0.003826805707,-0.01343729074
3.25,-0.004521240767,-0.01323920092
3.26,-0.005203446258,-0.01300353344
3.27,-0.005871356271,-0.01273110616
3.28,-0.006522960204,-0.01242285048
3.29,-0.007156308952,-0.01207980765
3.3,-0.007769520864,-0.01170312477
3.31,-0.008360787437,-0.01129405044
3.32,-0.008928378738,-0.01085393016
3.33,-0.009470648544,-0.01038420139
3.34,-0.009986039165,-0.009886388366
3.35,-0.01047308596,-0.009362096673
3.36,-0.01093042152,-0.008813007566
3.37,-0.01135677952,-0.008240872097
3.38,-0.01175099816,-0.00764750505
3.39,-0.01211202337,-0.007034778699
3.4,-0.01243891148,-0.006404616426
3.41,-0.01273083168,-0.005758986206
3.42,-0.01298706794,-0.005099893993
3.43,-0.0132070207,-0.004429377021
3.44,-0.01339020805,-0.003749497048
3.45,-0.01353626657,-0.003062333553
3.46,-0.01364495177,-0.002369976935
3.47,-0.01371613816,-0.0016745217
3.48,-0.01374981892,-0.000978059693
3.49,-0.01374610516,-0.0002826733691
3.5,-0.01370522485,0.0004095708535
3.51,-0.01362752132,0.001096629152
3.52,-0.01351345145,0.001776486741
3.53,-0.01336358349,0.002447164181
3.54,-0.01317859447,0.003106723528
3.55,-0.01295926738,0.003753274314
3.56,-0.01270648791,0.004384979334
3.57,-0.01242124097,0.00500006022
3.58,-0.01210460683,0.00559680279
3.59,-0.01175775706,0.006173562157
3.6,-0.0113819501,0.006728767574
3.61,-0.01097852669,0.007260927012
3.62,-0.01054890492,0.007768631447
3.63,-0.0100945752,0.008250558852
3.64,-0.009617094919,0.008705477882
3.65,-0.009118083001,0.009132251236
3.66,-0.008599214231,0.009529838688
3.67,-0.00806221347,0.00989729979
3.68,-0.007508849739,0.01023379622
3.69,-0.006940930188,0.01053859381
3.7,-0.006360293989,0.01081106417
3.71,-0.005768806158,0.01105068598
3.72,-0.005168351335,0.01125704598
3.73,-0.004560827538,0.01142983949
3.74,-0.003948139917,0.01156887067
3.75,-0.003332194525,0.01167405235
3.76,-0.002714892121,0.01174540557
3.77,-0.002098122039,0.0117830587
3.78,-0.00148375613,0.01178724629
3.79,-0.0008736427992,0.0117583075
3.8,-0.0002696011647,0.01169668426
3.81,0.0003265846542,0.0116029191
3.82,0.0009131710942,0.01147765258
3.83,0.001488460536,0.01132162054
3.84,0.002050806504,0.011135651
3.85,0.002598618668,0.01092066072
3.86,0.003130367623,0.01067765158
3.87,0.003644589437,0.01040770666
3.88,0.004139889957,0.01011198611
3.89,0.004614948852,0.00979172271
3.9,0.00506852339,0.009448217339
3.91,0.005499451931,0.009082834158
3.92,0.005906657128,0.008696995657
3.93,0.006289148838,0.008292177534
3.94,0.006646026709,0.007869903427
3.95,0.006976482471,0.007431739531
3.96,0.007279801892,0.006979289103
3.97,0.007555366423,0.006514186886
3.98,0.007802654502,0.006038093461
3.99,0.008021242541,0.005552689554
4,0.008210805571,0.005059670318
4.01,0.008371117563,0.004560739591
4.02,0.008502051414,0.004057604181
4.03,0.008603578607,0.003551968169
4.04,0.008675768543,0.003045527256
4.05,0.008718787555,0.002539963185
4.06,0.008732897605,0.002036938239
4.07,0.00871845467,0.001538089844
4.08,0.008675906823,0.001045025285
4.09,0.008605792029,0.0005593165655
4.1,0.008508735644,8.249541224E-05
4.11,0.008385447646,-0.0003839515511
4.12,0.0082367196,-0.0008385874466
4.13,0.008063421369,-0.001280029589
4.14,0.007866497587,-0.001706953724
4.15,0.007646963898,-0.002118098038
4.16,0.007405902996,-0.002512266938
4.17,0.00714446045,-0.002888334585
4.18,0.006863840352,-0.003245248166
4.19,0.006565300802,-0.003582030902
4.2,0.006250149234,-0.003897784784
4.21,0.005919737606,-0.004191693022
4.22,0.005575457476,-0.00446302221
4.23,0.005218734974,-0.004711124193
4.24,0.004851025688,-0.004935437636
4.25,0.004473809488,-0.005135489292
4.26,0.004088585294,-0.005310894964
4.27,0.003696865822,-0.005461360159
4.28,0.003300172305,-0.00558668044
4.29,0.002900029233,-0.005686741468
4.3,0.002497959098,-0.005761518739
4.31,0.002095477196,-0.005811077019
4.32,0.001694086468,-0.005835569485
4.33,0.00129527243,-0.005835236569
4.34,0.0009004981863,-0.005810404511
4.35,0.0005111995446,-0.005761483634
4.36,0.0001287802632,-0.005688966343
4.37,-0.0002453925715,-0.005593424862
4.38,-0.0006099930121,-0.005475508706
4.39,-0.0009637405524,-0.005335941909
4.4,-0.001305404248,-0.005175520024
4.41,-0.001633806647,-0.004995106879
4.42,-0.001947827511,-0.004795631144
4.43,-0.002246407325,-0.004578082674
4.44,-0.002528550575,-0.004343508686
4.45,-0.002793328796,-0.004093009744
4.46,-0.003039883365,-0.003827735602
4.47,-0.003267428046,-0.003548880895
4.48,-0.003475251277,-0.0032576807
4.49,-0.003662718179,-0.002955405987
4.5,-0.003829272302,-0.002643358979
4.51,-0.003974437092,-0.002322868417
4.52,-0.004097817072,-0.001995284777
4.53,-0.004199098747,-0.001661975426
4.54,-0.004278051219,-0.001324319757
4.55,-0.004334526518,-0.0009837042996
4.56,-0.004368459651,-0.000641517842
4.57,-0.004379868362,-0.0002991465646
4.58,-0.004368852616,4.203078877E-05
4.59,-0.004335593802,0.0003806476888
4.6,-0.00428035366,0.0007153545332
4.61,-0.004203472944,0.001044823275
4.62,-0.004105369816,0.001367751957
4.63,-0.00398653799,0.001682869126
4.64,-0.00384754462,0.001988938134
4.65,-0.003689027954,0.002284761282
4.66,-0.003511694752,0.002569183823
4.67,-0.003316317484,0.002841097794
4.68,-0.00310373132,0.003099445667
4.69,-0.002874830913,0.003343223814
4.7,-0.002630567001,0.003571485766
4.71,-0.002371942833,0.003783345267
4.72,-0.002100010425,0.0039779791
4.73,-0.001815866679,0.004154629693
4.74,-0.001520649353,0.004312607481
4.75,-0.001215532924,0.00445129303
4.76,-0.0009017243327,0.004570138905
4.77,-0.000580458642,0.004668671292
4.78,-0.0002529946201,0.004746491354
4.79,7.938974044E-05,0.004803276328
4.8,0.0004154017477,0.004838780355
4.81,0.0007537385668,0.004852835051
4.82,0.00109309179,0.004845349799
4.83,0.001432152005,0.004816311783
4.84,0.001769613352,0.004765785757
4.85,0.002104178042,0.004693913542
4.86,0.002434560834,0.004600913275
4.87,0.002759493446,0.004487078385
4.88,0.003077728898,0.004352776334
4.89,0.003388045752,0.004198447097
4.9,0.00368925226,0.004024601409
4.91,0.003980190383,0.003831818776
4.92,0.00425973969,0.003620745258
4.93,0.004526821105,0.003392091042
4.94,0.004780400501,0.003146627793
4.95,0.005019492125,0.002885185823
4.96,0.005243161853,0.002608651058
4.97,0.005450530247,0.002317961839
4.98,0.005640775416,0.002014105546
4.99,0.005813135681,0.001698115082
5,0.00596691201,0.001371065205
5.01,0.006101470242,0.001034068737
5.02,0.006216243081,0.0006882726605
5.03,0.006310731852,0.0003348541094
5.04,0.006384508025,-2.498372296E-05
5.05,0.006437214487,-0.0003900157507
5.06,0.006468566576,-0.0007589992197
5.07,0.00647835286,-0.001130677976
5.08,0.006466435673,-0.001503786763
5.09,0.006432751393,-0.001877055536
5.1,0.006377310471,-0.00224921377
5.11,0.006300197215,-0.002618994766
5.12,0.006201569318,-0.00298513991
5.13,0.006081657148,-0.00334640291
5.14,0.00594076279,-0.003701553957
5.15,0.005779258857,-0.004049383829
5.16,0.005597587061,-0.004388707905
5.17,0.00539625656,-0.004718370077
5.18,0.005175842088,-0.005037246563
5.19,0.004936981869,-0.00534424959
5.2,0.004680375323,-0.005638330943
5.21,0.004406780578,-0.005918485367
5.22,0.004117011799,-0.006183753823
5.23,0.003811936329,-0.006433226561
5.24,0.003492471673,-0.00666604603
5.25,0.003159582316,-0.006881409597
5.26,0.002814276406,-0.007078572074
5.27,0.002457602295,-0.00725684804
5.28,0.00209064496,-0.007415613963
5.29,0.001714522321,-0.007554310098
5.3,0.001330381456,-0.007672442173
5.31,0.0009393947347,-0.007769582845
5.32,0.0005427558881,-0.007845372932
5.33,0.0001416760136,-0.00789952241
5.34,-0.0002626204574,-0.007931811177
5.35,-0.000668899822,-0.007942089584
5.36,-0.001075923184,-0.007930278727
5.37,-0.001482450531,-0.007896370502
5.38,-0.001887244807,-0.007840427431
5.39,-0.002289075946,-0.007762582245
5.4,-0.002686724883,-0.007663037243
5.41,-0.003078987498,-0.00754206342
5.42,-0.003464678502,-0.007399999373
5.43,-0.003842635247,-0.007237249983
5.44,-0.004211721442,-0.007054284889
5.45,-0.004570830765,-0.006851636747
5.46,-0.004918890366,-0.006629899296
5.47,-0.005254864244,-0.006389725221
5.48,-0.005577756483,-0.006131823835
5.49,-0.005886614352,-0.005856958586
5.5,-0.006180531237,-0.005565944391
5.51,-0.006458649422,-0.00525964481
5.52,-0.006720162682,-0.00493896908
5.53,-0.00696431871,-0.004604869001
5.54,-0.007190421344,-0.004258335703
5.55,-0.007397832606,-0.00390039629
5.56,-0.007585974538,-0.003532110389
5.57,-0.007754330828,-0.0031545666
5.58,-0.007902448238,-0.00276887887
5.59,-0.008029937802,-0.002376182796
5.6,-0.008136475818,-0.00197763188
5.61,-0.008221804619,-0.001574393735
5.62,-0.008285733119,-0.00116764627
5.63,-0.008328137138,-0.0007585738485
5.64,-0.008348959515,-0.0003483634553
5.65,-0.008348209984,6.179913641E-05
5.66,-0.008325964843,0.0004707331703
5.67,-0.008282366403,0.0008772666797
5.68,-0.008217622216,0.001280240212
5.69,-0.008132004105,0.001678510495
5.7,-0.008025846974,0.002070954031
5.71,-0.007899547427,0.002456470606
5.72,-0.007753562183,0.002833986712
5.73,-0.00758840631,0.003202458852
5.74,-0.007404651268,0.003560876744
5.75,-0.00720292278,0.003908266386
5.76,-0.006983898541,0.004243692995
5.77,-0.006748305755,0.004566263796
5.78,-0.00649691854,0.004875130665
5.79,-0.006230555175,0.005169492601
5.8,-0.005950075227,0.005448598038
5.81,-0.005656376559,0.005711746982
5.82,-0.005350392218,0.005958292959
5.83,-0.005033087239,0.006187644786
5.84,-0.004705455345,0.006399268143
5.85,-0.004368515587,0.006592686952
5.86,-0.004023308906,0.006767484558
5.87,-0.003670894654,0.006923304702
5.88,-0.003312347063,0.0070598523
5.89,-0.002948751697,0.007176894002
5.9,-0.002581201877,0.007274258557
5.91,-0.002210795107,0.007351836964
5.92,-0.001838629505,0.007409582418
5.93,-0.001465800255,0.007447510056
5.94,-0.001093396089,0.00746569649
5.95,-0.0007224958085,0.007464279152
5.96,-0.0003541648664,0.00744345543
5.97,1.054799348E-05,0.007403481625
5.98,0.000370614016,0.007344671704
5.99,0.0007250276302,0.007267395884
6,0.001072809548,0.007172079028
