"Freq [GHz]","re(S(Tx_p1,Tx_p1)) []","im(S(Tx_p1,Tx_p1)) []"
1,0.001666959609,-0.01300299062
1.01,0.00129415339,-0.01283306242
1.02,0.0009246462511,-0.01264806679
1.03,0.0005599550153,-0.01244724992
1.04,0.000201713281,-0.01223005031
1.05,-0.000148351477,-0.01199611166
1.06,-0.0004884421359,-0.01174529312
1.07,-0.0008167171793,-0.01147767675
1.08,-0.001131316655,-0.0111935721
1.09,-0.00143038851,-0.01089351786
1.1,-0.001712114973,-0.01057828053
1.11,-0.001974738655,-0.01024885022
1.12,-0.002216588039,-0.009906433421
1.13,-0.002436102047,-0.009552443128
1.14,-0.002631853375,-0.009188486169
1.15,-0.002802570318,-0.008816348055
1.16,-0.002947156801,-0.008437975475
1.17,-0.003064710375,-0.008055456662
1.18,-0.003154537969,-0.007670999857
1.19,-0.00321616918,-0.007286910148
1.2,-0.00324936696,-0.006905564949
1.21,-0.003254135553,-0.006529388421
1.22,-0.003230725589,-0.006160825139
1.23,-0.003179636275,-0.005802313328
1.24,-0.00310161464,-0.00545625798
1.25,-0.002997651856,-0.005125004176
1.26,-0.002868976662,-0.004810810936
1.27,-0.00271704598,-0.004515825909
1.28,-0.00254353281,-0.004242061193
1.29,-0.002350311573,-0.003991370594
1.3,-0.002139441051,-0.00376542857
1.31,-0.001913145129,-0.003565711134
1.32,-0.001673791568,-0.003393478925
1.33,-0.001423869057,-0.003249762654
1.34,-0.001165962803,-0.003135351103
1.35,-0.0009027289608,-0.003050781812
1.36,-0.0006368681825,-0.002996334566
1.37,-0.0003710986111,-0.002972027761
1.38,-0.0001081286252,-0.002977617695
1.39,0.0001493703453,-0.003012600787
1.4,0.0003987906147,-0.003076218707
1.41,0.0006376143376,-0.003167466343
1.42,0.0008634386002,-0.003285102535
1.43,0.001073999216,-0.003427663425
1.44,0.001267192951,-0.003593478289
1.45,0.001441097913,-0.003780687655
1.46,0.001593991883,-0.003987263492
1.47,0.001724368359,-0.004211031251
1.48,0.00183095014,-0.004449693478
1.49,0.001912700292,-0.004700854746
1.5,0.001968830357,-0.004962047596
1.51,0.001998805733,-0.005230759198
1.52,0.002002348146,-0.005504458415
1.53,0.001979435194,-0.005780622952
1.54,0.001930296976,-0.006056766277
1.55,0.00185540983,-0.006330464007
1.56,0.001755487285,-0.006599379427
1.57,0.001631468295,-0.006861287875
1.58,0.001484502936,-0.007114099686
1.59,0.001315935703,-0.007355881431
1.6,0.00112728662,-0.007584875215
1.61,0.0009202303806,-0.007799515786
1.62,0.000696573771,-0.007998445275
1.63,0.0004582316299,-0.008180525378
1.64,0.0002072016415,-0.008344846852
1.65,-5.446174938E-05,-0.008490736188
1.66,-0.0003246739891,-0.008617759413
1.67,-0.0006013473195,-0.00872572294
1.68,-0.0008824176166,-0.008814671484
1.69,-0.001165870844,-0.00888488304
1.7,-0.001449768811,-0.008936860994
1.71,-0.001732273921,-0.008971323456
1.72,-0.00201167262,-0.008989189918
1.73,-0.002286397269,-0.008991565418
1.74,-0.002555046156,-0.008979722362
1.75,-0.002816401432,-0.008955080237
1.76,-0.003069444728,-0.00891918343
1.77,-0.003313370271,-0.008873677427
1.78,-0.003547595328,-0.008820283649
1.79,-0.003771767847,-0.008760773237
1.8,-0.003985771189,-0.008696940073
1.81,-0.004189725874,-0.008630573367
1.82,-0.004383988313,-0.008563430124
1.83,-0.004569146519,-0.008497207813
1.84,-0.004746012826,-0.008433517568
1.85,-0.004915613689,-0.00837385824
1.86,-0.005079176651,-0.008319591595
1.87,-0.005238114622,-0.008271918981
1.88,-0.005394007628,-0.008231859723
1.89,-0.005548582214,-0.008200231531
1.9,-0.005703688734,-0.008177633151
1.91,-0.005861276759,-0.008164429485
1.92,-0.006023368878,-0.008160739376
1.93,-0.006192033169,-0.008166426216
1.94,-0.006369354654,-0.008181091517
1.95,-0.006557406037,-0.008204071539
1.96,-0.006758218058,-0.008234437058
1.97,-0.006973749801,-0.008270996295
1.98,-0.007205859267,-0.008312301007
1.99,-0.007456274562,-0.008356655717
2,-0.007726566019,-0.008402130001
2.01,-0.008018119573,-0.008446573731
2.02,-0.008332111693,-0.008487635151
2.03,-0.008669486164,-0.008522781598
2.04,-0.009030932996,-0.008549322694
2.05,-0.009416869692,-0.008564435763
2.06,-0.009827425135,-0.008565193251
2.07,-0.01026242626,-0.008548591848
2.08,-0.0107213877,-0.00851158304
2.09,-0.01120350457,-0.008451104788
2.1,-0.01170764842,-0.008364113988
2.11,-0.01223236654,-0.008247619416
2.12,-0.01277588456,-0.008098714783
2.13,-0.01333611245,-0.007914611599
2.14,-0.01391065377,-0.007692671475
2.15,-0.01449681822,-0.007430437548
2.16,-0.01509163735,-0.007125664688
2.17,-0.01569188326,-0.006776348191
2.18,-0.01629409021,-0.006380750628
2.19,-0.01689457888,-0.005937426601
2.2,-0.01748948311,-0.005445245112
2.21,-0.01807477883,-0.004903409325
2.22,-0.01864631497,-0.004311473504
2.23,-0.019199846,-0.003669356938
2.24,-0.01973106583,-0.002977354697
2.25,-0.02023564279,-0.002236145102
2.26,-0.02070925524,-0.00144679381
2.27,-0.02114762764,-0.000610754462
2.28,-0.02154656659,0.0002701341347
2.29,-0.02190199657,0.001193654272
2.3,-0.02220999508,0.002157219016
2.31,-0.02246682672,0.003157885215
2.32,-0.02266897606,0.004192369716
2.33,-0.02281317885,0.005257068668
2.34,-0.02289645133,0.006348079719
2.35,-0.0229161174,0.007461226927
2.36,-0.02286983336,0.008592088142
2.37,-0.02275560995,0.009736024622
2.38,-0.02257183162,0.0108882126
2.39,-0.02231727276,0.01204367655
2.4,-0.02199111068,0.01319732378
2.41,-0.02159293546,0.01434398012
2.42,-0.02112275633,0.01547842631
2.43,-0.02058100469,0.01659543486
2.44,-0.01996853374,0.01768980687
2.45,-0.01928661467,0.01875640871
2.46,-0.01853692953,0.01979020811
2.47,-0.01772156085,0.02078630925
2.48,-0.01684297808,0.0217399868
2.49,-0.01590402104,0.02264671843
2.5,-0.01490788054,0.02350221547
2.51,-0.01385807635,0.02430245171
2.52,-0.0127584327,0.02504368984
2.53,-0.0116130517,0.02572250548
2.54,-0.01042628466,0.0263358086
2.55,-0.009202701941,0.02688086208
2.56,-0.007947061253,0.02735529742
2.57,-0.006664274976,0.02775712741
2.58,-0.00535937664,0.0280847557
2.59,-0.004037486938,0.02833698327
2.6,-0.002703779548,0.02851301175
2.61,-0.001363447063,0.02861244365
2.62,-2.166733264E-05,0.02863527956
2.63,0.001316429506,0.02858191225
2.64,0.002645793044,0.02845311812
2.65,0.003961483387,0.02825004564
2.66,0.00525870049,0.02797420148
2.67,0.006532811802,0.02762743399
2.68,0.007779378035,0.02721191463
2.69,0.008994176859,0.02673011737
2.7,0.01017322438,0.02618479624
2.71,0.01131279429,0.02557896145
2.72,0.0124094345,0.0249158542
2.73,0.01345998132,0.02419892038
2.74,0.01446157101,0.02343178365
2.75,0.01541164869,0.0226182179
2.76,0.01630797474,0.02176211948
2.77,0.01714862847,0.02086747943
2.78,0.01793200942,0.01993835602
2.79,0.01865683608,0.01897884766
2.8,0.01932214229,0.01799306663
2.81,0.01992727145,0.01698511363
2.82,0.02047186854,0.01595905352
2.83,0.02095587024,0.01491889228
2.84,0.02137949329,0.01386855549
2.85,0.02174322119,0.01281186831
2.86,0.02204778954,0.01175253722
2.87,0.02229417016,0.01069413352
2.88,0.02248355417,0.009640078704
2.89,0.02261733436,0.00859363173
2.9,0.02269708687,0.007557878251
2.91,0.02272455253,0.006535721766
2.92,0.02270161807,0.005529876703
2.93,0.02263029722,0.004542863383
2.94,0.02251271215,0.003577004817
2.95,0.02235107517,0.00263442525
2.96,0.02214767102,0.001717050362
2.97,0.02190483987,0.0008266090291
2.98,0.02162496107,-3.536350042E-05
2.99,0.02131043792,-0.0008675211185
3,0.02096368341,-0.001668701223
3.01,0.02058710712,-0.002437918073
3.02,0.02018310331,-0.003174355294
3.03,0.0197540402,-0.003877357688
3.04,0.01930225052,-0.004546422499
3.05,0.01883002335,-0.00518119031
3.06,0.0183395972,-0.0057814357
3.07,0.01783315427,-0.006347057822
3.08,0.01731281595,-0.006878071048
3.09,0.01678063939,-0.007374595794
3.1,0.01623861516,-0.007836849662
3.11,0.01568866586,-0.008265139002
3.12,0.01513264557,-0.008659850985
3.13,0.0145723401,-0.00902144628
3.14,0.01400946786,-0.009350452383
3.15,0.01344568127,-0.009647457671
3.16,0.01288256859,-0.009913106197
3.17,0.01232165606,-0.01014809326
3.18,0.01176441013,-0.01035316171
3.19,0.01121223983,-0.01052909911
3.2,0.01066649904,-0.01067673545
3.21,0.01012848856,-0.01079694176
3.22,0.009599457926,-0.01089062917
3.23,0.009080606888,-0.01095874863
3.24,0.008573086392,-0.01100229113
3.25,0.008077999077,-0.01102228819
3.26,0.00759639919,-0.01101981283
3.27,0.007129291893,-0.01099598056
3.28,0.006677631921,-0.01095195055
3.29,0.006242321594,-0.01088892678
3.3,0.005824208172,-0.01080815901
3.31,0.00542408058,-0.01071094351
3.32,0.00504266553,-0.01059862346
3.33,0.004680623086,-0.01047258889
3.34,0.004338541739,-0.01033427603
3.35,0.00401693306,-0.01018516604
3.36,0.003716226021,-0.01002678302
3.37,0.003436761074,-0.009860691229
3.38,0.003178784102,-0.009688491442
3.39,0.002942440352,-0.00951181642
3.4,0.002727768467,-0.009332325473
3.41,0.002534694746,-0.009151698082
3.42,0.002363027755,-0.008971626594
3.43,0.002212453427,-0.008793808009
3.44,0.002082530762,-0.008619934891
3.45,0.001972688261,-0.008451685456
3.46,0.001882221213,-0.008290712895
3.47,0.001810289945,-0.008138634031
3.48,0.001755919133,-0.007997017391
3.49,0.001717998283,-0.007867370801
3.5,0.00169528344,-0.007751128644
3.51,0.001686400217,-0.007649638886
3.52,0.001689848175,-0.007564150041
3.53,0.001704006615,-0.007495798201
3.54,0.001727141776,-0.007445594296
3.55,0.001757415471,-0.007414411749
3.56,0.001792895114,-0.007402974677
3.57,0.001831565139,-0.007411846805
3.58,0.001871339734,-0.007441421259
3.59,0.001910076826,-0.007491911375
3.6,0.001945593239,-0.007563342701
3.61,0.001975680905,-0.007655546306
3.62,0.001998124021,-0.007768153546
3.63,0.002010717005,-0.007900592398
3.64,0.002011283096,-0.008052085473
3.65,0.001997693452,-0.008221649788
3.66,0.001967886549,-0.008408098388
3.67,0.00191988771,-0.008610043852
3.68,0.001851828571,-0.00882590374
3.69,0.001761966276,-0.00905390798
3.7,0.001648702216,-0.009292108203
3.71,0.001510600099,-0.009538388995
3.72,0.001346403148,-0.009790481013
3.73,0.001155050246,-0.01004597591
3.74,0.0009356908118,-0.01030234298
3.75,0.0006876982533,-0.01055694737
3.76,0.0004106817936,-0.01080706982
3.77,0.0001044965333,-0.01104992768
3.78,-0.0002307484093,-0.01128269713
3.79,-0.0005946838085,-0.01150253631
3.8,-0.000986676403,-0.01170660931
3.81,-0.001405827223,-0.01189211069
3.82,-0.001850972248,-0.01205629035
3.83,-0.002320685435,-0.01219647857
3.84,-0.002813284163,-0.01231011086
3.85,-0.00332683708,-0.01239475256
3.86,-0.003859174337,-0.01244812279
3.87,-0.004407900175,-0.01246811764
3.88,-0.004970407783,-0.01245283222
3.89,-0.00554389634,-0.01240058151
3.9,-0.006125390134,-0.01230991967
3.91,-0.006711759603,-0.01217965765
3.92,-0.007299744157,-0.01200887889
3.93,-0.007885976592,-0.01179695293
3.94,-0.008467008899,-0.0115435468
3.95,-0.00903933927,-0.01124863398
3.96,-0.009599440041,-0.01091250091
3.97,-0.01014378637,-0.01053575078
3.98,-0.01066888537,-0.01011930477
3.99,-0.01117130546,-0.009664400456
4,-0.01164770562,-0.009172587453
4.01,-0.01209486442,-0.008645720356
4.02,-0.01250970832,-0.008085948888
4.03,-0.01288933924,-0.007495705378
4.04,-0.01323106096,-0.006877689641
4.05,-0.01353240416,-0.006234851347
4.06,-0.01379114984,-0.005570370021
4.07,-0.01400535098,-0.004887632814
4.08,-0.01417335207,-0.00419021024
4.09,-0.01429380644,-0.00348183005
4.1,-0.01436569117,-0.002766349472
4.11,-0.01438831941,-0.002047726046
4.12,-0.01436135004,-0.001329987294
4.13,-0.01428479446,-0.0006171994896
4.14,-0.01415902052,8.656420877E-05
4.15,-0.01398475347,0.0007772559841
4.16,-0.01376307398,0.001450885665
4.17,-0.01349541309,0.002103552828
4.18,-0.01318354428,0.002731478411
4.19,-0.01282957259,0.003331035566
4.2,-0.0124359209,0.003898779467
4.21,-0.01200531351,0.004431475827
4.22,-0.01154075711,0.004926127847
4.23,-0.01104551932,0.005380001375
4.24,-0.01052310495,0.005790648049
4.25,-0.00997723019,0.006155926207
4.26,-0.009411794967,0.006474019388
4.27,-0.008830853671,0.006743452256
4.28,-0.008238584506,0.006963103811
4.29,-0.007639257737,0.007132217752
4.3,-0.007037203095,0.007250409928
4.31,-0.006436776616,0.007317672791
4.32,-0.005842327199,0.007334376815
4.33,-0.005258163165,0.007301268886
4.34,-0.004688519104,0.007219467657
4.35,-0.004137523283,0.00709045593
4.36,-0.003609165894,0.006916070125
4.37,-0.003107268405,0.00669848693
4.38,-0.002635454268,0.006440207261
4.39,-0.002197121229,0.006144037668
4.4,-0.001795415456,0.005813069352
4.41,-0.001433207704,0.005450654985
4.42,-0.001113071698,0.005060383526
4.43,-0.0008372649049,0.004646053267
4.44,-0.0006077118369,0.004211643328
4.45,-0.0004259900138,0.003761283856
4.46,-0.0002933186738,0.003299225187
4.47,-0.0002105503118,0.002829806215
4.48,-0.0001781650874,0.002357422256
4.49,-0.0001962681265,0.001886492664
4.5,-0.00026458971,0.001421428462
4.51,-0.0003824883206,0.00096660026
4.52,-0.0005489564926,0.0005263067233
4.53,-0.000762629387,0.0001047438224
4.54,-0.001021795989,-0.0002940248752
4.55,-0.001324412806,-0.0006660966537
4.56,-0.001668119926,-0.001007756623
4.57,-0.002050259266,-0.001315503021
4.58,-0.002467894847,-0.001586070662
4.59,-0.002917834883,-0.001816452372
4.6,-0.003396655501,-0.002003918274
4.61,-0.003900725858,-0.002146032802
4.62,-0.004426234439,-0.002240669341
4.63,-0.004969216306,-0.00228602243
4.64,-0.005525581058,-0.002280617467
4.65,-0.00609114128,-0.002223317898
4.66,-0.006661641226,-0.002113329865
4.67,-0.00723278553,-0.001950204357
4.68,-0.007800267693,-0.001733836874
4.69,-0.008359798148,-0.001464464684
4.7,-0.008907131684,-0.001142661737
4.71,-0.009438094029,-0.0007693313458
4.72,-0.009948607413,-0.0003456967341
4.73,-0.01043471493,0.0001267104064
4.74,-0.01089260356,0.0006460632152
4.75,-0.01131862568,0.001210254656
4.76,-0.01170931898,0.001816914046
4.77,-0.01206142466,0.002463424933
4.78,-0.01237190382,0.003146944164
4.79,-0.01263795194,0.003864421926
4.8,-0.01285701157,0.004612622613
4.81,-0.01302678292,0.005388146291
4.82,-0.01314523257,0.006187450606
4.83,-0.0132106003,0.007006872937
4.84,-0.01322140383,0.007842652614
4.85,-0.01317644188,0.008690953051
4.86,-0.01307479526,0.009547883597
4.87,-0.01291582629,0.01040952099
4.88,-0.01269917653,0.01127193023
4.89,-0.01242476295,0.01213118482
4.9,-0.0120927726,0.01298338613
4.91,-0.01170365606,0.01382468188
4.92,-0.01125811946,0.01465128369
4.93,-0.01075711563,0.01545948347
4.94,-0.01020183406,0.01624566876
4.95,-0.009593690223,0.0170063368
4.96,-0.00893431404,0.01773810752
4.97,-0.008225537856,0.01843773523
4.98,-0.00746938393,0.01910211911
4.99,-0.006668051618,0.01972831249
5,-0.005823904339,0.02031353098
5.01,-0.004939456441,0.02085515938
5.02,-0.004017360084,0.02135075754
5.03,-0.003060392206,0.02179806518
5.04,-0.002071441683,0.02219500567
5.05,-0.001053496739,0.02253968894
5.06,-9.632673881E-06,0.02283041349
5.07,0.001057000035,0.0230656677
5.08,0.002143187223,0.02324413036
5.09,0.00324566209,0.02336467071
5.1,0.00436111579,0.02342634781
5.11,0.005486207555,0.02342840959
5.12,0.00661757436,0.0233702914
5.13,0.007751840127,0.02325161438
5.14,0.008885624505,0.02307218348
5.15,0.01001555124,0.02283198539
5.16,0.01113825619,0.02253118625
5.17,0.01225039498,0.02217012935
5.18,0.01334865043,0.02174933277
5.19,0.01442973968,0.02126948697
5.2,0.0154904212,0.02073145241
5.21,0.01652750162,0.02013625713
5.22,0.01753784252,0.01948509443
5.23,0.01851836716,0.01877932044
5.24,0.01946606726,0.01802045177
5.25,0.02037800979,0.017210163
5.26,0.02125134395,0.01635028421
5.27,0.02208330822,0.01544279835
5.28,0.02287123756,0.01448983838
5.29,0.02361257084,0.01349368426
5.3,0.02430485843,0.0124567597
5.31,0.02494576998,0.01138162845
5.32,0.02553310241,0.01027099035
5.33,0.026064788,0.009127676798
5.34,0.02653890269,0.007954645793
5.35,0.02695367445,0.006754976359
5.36,0.02730749168,0.005531862359
5.37,0.02759891165,0.004288605628
5.38,0.02782666886,0.003028608384
5.39,0.02798968326,0.001755364883
5.4,0.02808706824,0.0004724522761
5.41,0.02811813837,-0.0008164793389
5.42,0.02808241667,-0.002107717691
5.43,0.02797964149,-0.003397499935
5.44,0.02780977272,-0.004682025066
5.45,0.0275729974,-0.005957467127
5.46,0.02726973448,-0.007219989179
5.47,0.02690063876,-0.008465757985
5.48,0.02646660382,-0.009690959361
5.49,0.0259687639,-0.01089181411
5.5,0.02540849467,-0.01206459447
5.51,0.02478741268,-0.01320564099
5.52,0.02410737361,-0.01431137971
5.53,0.02337046911,-0.01537833957
5.54,0.02257902222,-0.0164031699
5.55,0.02173558136,-0.01738265785
5.56,0.02084291285,-0.01831374568
5.57,0.01990399189,-0.01919354774
5.58,0.01892199208,-0.02001936697
5.59,0.01790027349,-0.02078871082
5.6,0.0168423692,-0.02149930645
5.61,0.01575197048,-0.02214911496
5.62,0.01463291063,-0.02273634476
5.63,0.01348914755,-0.02325946354
5.64,0.01232474507,-0.02371720917
5.65,0.01114385326,-0.02410859903
5.66,0.009950687736,-0.02443293783
5.67,0.008749508162,-0.02468982386
5.68,0.007544596023,-0.02487915336
5.69,0.00634023187,-0.02500112323
5.7,0.005140672187,-0.02505623173
5.71,0.003950126028,-0.02504527731
5.72,0.002772731628,-0.0249693554
5.73,0.001612533145,-0.0248298533
5.74,0.0004734577358,-0.02462844301
5.75,-0.0006407068753,-0.02436707207
5.76,-0.001726334123,-0.02404795251
5.77,-0.002779979462,-0.02367354786
5.78,-0.003798400173,-0.02324655838
5.79,-0.004778573955,-0.0227699045
5.8,-0.005717716118,-0.02224670872
5.81,-0.006613295251,-0.02168027588
5.82,-0.007463047196,-0.02107407217
5.83,-0.008264987211,-0.02043170289
5.84,-0.009017420205,-0.01975688907
5.85,-0.00971894894,-0.01905344333
5.86,-0.01036848011,-0.01832524497
5.87,-0.01096522827,-0.01757621458
5.88,-0.01150871747,-0.01681028832
5.89,-0.01199878069,-0.01603139212
5.9,-0.012435557,-0.01524341604
5.91,-0.01281948642,-0.01445018883
5.92,-0.01315130257,-0.01365545315
5.93,-0.0134320232,-0.01286284144
5.94,-0.01366293852,-0.01207585276
5.95,-0.01384559758,-0.01129783072
5.96,-0.01398179272,-0.01053194278
5.97,-0.01407354222,-0.009781161011
5.98,-0.01412307137,-0.009048244469
5.99,-0.01413279198,-0.008335723435
6,-0.01410528062,-0.007645885529
