"Freq [GHz]","re(S(Tx_p1,Tx_p1)) []","im(S(Tx_p1,Tx_p1)) []"
1,-0.008716062404,-0.04677980987
1.01,-0.01019412419,-0.04574687335
1.02,-0.01161755059,-0.04466352028
1.03,-0.0129838228,-0.04353230103
1.04,-0.01429057155,-0.04235592836
1.05,-0.01553558623,-0.04113726659
1.06,-0.01671682341,-0.03987932046
1.07,-0.01783241451,-0.03858522363
1.08,-0.01888067288,-0.03725822686
1.09,-0.01986010004,-0.03590168593
1.1,-0.02076939126,-0.03451904934
1.11,-0.02160744037,-0.0331138458
1.12,-0.02237334373,-0.03168967155
1.13,-0.0230664036,-0.03025017763
1.14,-0.0236861306,-0.02879905697
1.15,-0.0242322455,-0.02734003153
1.16,-0.02470468022,-0.0258768394
1.17,-0.02510357811,-0.02441322192
1.18,-0.02542929342,-0.02295291097
1.19,-0.02568239012,-0.02149961624
1.2,-0.02586363991,-0.02005701279
1.21,-0.0259740196,-0.0186287287
1.22,-0.02601470773,-0.01721833306
1.23,-0.02598708052,-0.01582932409
1.24,-0.02589270721,-0.0144651177
1.25,-0.02573334467,-0.01312903632
1.26,-0.02551093147,-0.01182429807
1.27,-0.02522758131,-0.01055400644
1.28,-0.0248855759,-0.009321140269
1.29,-0.0244873573,-0.008128544293
1.3,-0.02403551973,-0.006978920136
1.31,-0.02353280088,-0.005874817827
1.32,-0.02298207283,-0.004818627849
1.33,-0.0223863325,-0.003812573766
1.34,-0.02174869171,-0.002858705416
1.35,-0.02107236692,-0.001958892722
1.36,-0.02036066864,-0.001114820108
1.37,-0.01961699055,-0.0003279815553
1.38,-0.01884479839,0.0004003236946
1.39,-0.01804761862,0.001068994787
1.4,-0.01722902699,0.00167713223
1.41,-0.01639263685,0.002224040204
1.42,-0.0155420875,0.002709228195
1.43,-0.01468103241,0.003132411948
1.44,-0.01381312746,0.003493513748
1.45,-0.01294201916,0.003792662022
1.46,-0.012071333,0.004030190278
1.47,-0.01120466187,0.004206635368
1.48,-0.01034555457,0.004322735108
1.49,-0.009497504577,0.004379425247
1.5,-0.008663938974,0.004377835804
1.51,-0.007848207611,0.004319286788
1.52,-0.007053572581,0.004205283317
1.53,-0.006283197981,0.004037510157
1.54,-0.005540140025,0.003817825687
1.55,-0.00482733753,0.003548255335
1.56,-0.004147602802,0.00323098449
1.57,-0.003503612947,0.002868350913
1.58,-0.002897901649,0.002462836699
1.59,-0.002332851421,0.002017059775
1.6,-0.001810686357,0.001533765006
1.61,-0.001333465413,0.001015814911
1.62,-0.0009030762348,0.0004661800278
1.63,-0.0005212295383,-0.0001120710399
1.64,-0.0001894540759,-0.0007157818577
1.65,9.090781025E-05,-0.001341718653
1.66,0.0003187040302,-0.001986581022
1.67,0.0004929759752,-0.002647012826
1.68,0.0006129611253,-0.003319613225
1.69,0.0006780950293,-0.00400094784
1.7,0.0006880126537,-0.004687559978
1.71,0.0006425490972,-0.005375981906
1.72,0.0005417396734,-0.006062746134
1.73,0.0003858193597,-0.006744396662
1.74,0.0001752216205,-0.007417500168
1.75,-8.942339282E-05,-0.008078657094
1.76,-0.000407291255,-0.008724512596
1.77,-0.0007773662851,-0.009351767335
1.78,-0.001198445157,-0.009957188061
1.79,-0.001669141091,-0.01053761796
1.8,-0.002187888607,-0.01108998676
1.81,-0.002752948829,-0.01161132048
1.82,-0.003362415316,-0.01209875097
1.83,-0.004014220405,-0.01254952496
1.84,-0.004706142044,-0.01296101283
1.85,-0.00543581108,-0.01333071694
1.86,-0.006200719005,-0.01365627954
1.87,-0.006998226104,-0.01393549018
1.88,-0.007825569996,-0.01416629274
1.89,-0.008679874543,-0.01434679187
1.9,-0.009558159082,-0.01447525897
1.91,-0.01045734797,-0.01455013764
1.92,-0.01137428039,-0.01457004857
1.93,-0.01230572041,-0.01453379386
1.94,-0.01324836728,-0.01444036083
1.95,-0.0141988658,-0.01428892515
1.96,-0.015153817,-0.01407885353
1.97,-0.01610978878,-0.01380970563
1.98,-0.01706332674,-0.01348123559
1.99,-0.01801096497,-0.01309339275
2,-0.01894923691,-0.01264632193
2.01,-0.01987468619,-0.01214036301
2.02,-0.02078387739,-0.01157605002
2.03,-0.02167340673,-0.01095410949
2.04,-0.02253991264,-0.01027545839
2.05,-0.02338008619,-0.009541201336
2.06,-0.02419068134,-0.008752627366
2.07,-0.02496852495,-0.007911206063
2.08,-0.02571052661,-0.007018583197
2.09,-0.02641368814,-0.006076575814
2.1,-0.02707511284,-0.005087166834
2.11,-0.02769201441,-0.004052499151
2.12,-0.02826172548,-0.002974869259
2.13,-0.02878170582,-0.001856720439
2.14,-0.02924955014,-0.0007006355087
2.15,-0.02966299545,0.0004906708308
2.16,-0.03001992802,0.001714360026
2.17,-0.03031838983,0.00296747806
2.18,-0.0305565846,0.00424696417
2.19,-0.03073288329,0.005549659868
2.2,-0.03084582911,0.006872318236
2.21,-0.03089414202,0.008211613465
2.22,-0.03087672264,0.009564150611
2.23,-0.03079265572,0.01092647554
2.24,-0.03064121297,0.01229508504
2.25,-0.03042185539,0.01366643703
2.26,-0.03013423497,0.0150369609
2.27,-0.02977819594,0.01640306789
2.28,-0.02935377534,0.01776116153
2.29,-0.02886120307,0.01910764804
2.3,-0.02830090141,0.02043894676
2.31,-0.02767348389,0.02175150049
2.32,-0.02697975372,0.02304178572
2.33,-0.02622070157,0.0243063228
2.34,-0.02539750287,0.02554168591
2.35,-0.02451151453,0.02674451289
2.36,-0.0235642712,0.02791151484
2.37,-0.02255748099,0.02903948551
2.38,-0.02149302066,0.03012531045
2.39,-0.02037293042,0.03116597579
2.4,-0.0191994082,0.03215857683
2.41,-0.01797480347,0.03310032623
2.42,-0.01670161074,0.03398856183
2.43,-0.01538246251,0.03482075416
2.44,-0.01402012194,0.0355945135
2.45,-0.01261747515,0.03630759653
2.46,-0.01117752316,0.03695791258
2.47,-0.009703373524,0.03754352939
2.48,-0.008198231696,0.03806267844
2.49,-0.006665392126,0.03851375977
2.5,-0.005108229124,0.03889534634
2.51,-0.003530187523,0.03920618785
2.52,-0.001934773161,0.03944521412
2.53,-0.0003255432129,0.03961153785
2.54,0.001293903592,0.03970445694
2.55,0.002919936854,0.03972345626
2.56,0.004548904444,0.03966820885
2.57,0.006177142487,0.03953857666
2.58,0.00780098534,0.03933461066
2.59,0.009416775564,0.0390565505
2.6,0.01102087383,0.03870482363
2.61,0.01260966876,0.03828004382
2.62,0.01417958665,0.03778300926
2.63,0.01572710106,0.03721470011
2.64,0.01724874226,0.03657627551
2.65,0.01874110648,0.03586907016
2.66,0.02020086491,0.03509459039
2.67,0.02162477255,0.03425450976
2.68,0.02300967671,0.03335066419
2.69,0.02435252527,0.03238504673
2.7,0.02565037462,0.03135980179
2.71,0.0269003973,0.0302772191
2.72,0.02809988923,0.02913972715
2.73,0.02924627666,0.02794988638
2.74,0.03033712262,0.02671038198
2.75,0.0313701331,0.02542401634
2.76,0.03234316271,0.02409370126
2.77,0.03325421994,0.02272244987
2.78,0.03410147197,0.02131336823
2.79,0.03488324907,0.01986964681
2.8,0.03559804843,0.01839455172
2.81,0.03624453762,0.01689141571
2.82,0.03682155751,0.01536362913
2.83,0.03732812468,0.01381463068
2.84,0.03776343342,0.01224789808
2.85,0.03812685711,0.01066693873
2.86,0.03841794921,0.009075280212
2.87,0.03863644368,0.007476460892
2.88,0.03878225493,0.005874020456
2.89,0.03885547726,0.004271490512
2.9,0.03885638382,0.002672385253
2.91,0.03878542506,0.001080192198
2.92,0.0386432267,-0.0005016369368
2.93,0.03843058725,-0.002069695244
2.94,0.03814847507,-0.003620629457
2.95,0.03779802488,-0.005151148591
2.96,0.03738053397,-0.006658032384
2.97,0.03689745788,-0.008138139494
2.98,0.0363504057,-0.009588415443
2.99,0.03574113493,-0.01100590028
3,0.03507154605,-0.01238773596
3.01,0.03434367658,-0.01373117337
3.02,0.03355969493,-0.01503357908
3.03,0.0327218938,-0.01629244168
3.04,0.03183268339,-0.0175053778
3.05,0.03089458419,-0.01867013767
3.06,0.0299102196,-0.0197846104
3.07,0.02888230829,-0.02084682872
3.08,0.02781365625,-0.02185497342
3.09,0.02670714877,-0.02280737724
3.1,0.02556574213,-0.0237025284
3.11,0.02439245523,-0.02453907367
3.12,0.02319036099,-0.02531582096
3.13,0.02196257774,-0.02603174144
3.14,0.02071226047,-0.02668597125
3.15,0.01944259207,-0.02727781267
3.16,0.01815677449,-0.02780673491
3.17,0.01685801992,-0.02827237432
3.18,0.01554954204,-0.02867453426
3.19,0.01423454719,-0.02901318438
3.2,0.01291622575,-0.02928845955
3.21,0.01159774352,-0.02950065825
3.22,0.01028223324,-0.02965024058
3.23,0.008972786267,-0.02973782579
3.24,0.00767244441,-0.02976418938
3.25,0.006384191923,-0.02973025979
3.26,0.005110947733,-0.0296371147
3.27,0.003855557893,-0.02948597687
3.28,0.002620788268,-0.02927820969
3.29,0.001409317499,-0.02901531227
3.3,0.0002237302515,-0.02869891425
3.31,-0.0009334892358,-0.02833077019
3.32,-0.002059963282,-0.02791275376
3.33,-0.003153426558,-0.0274468515
3.34,-0.004211731531,-0.02693515637
3.35,-0.005232853544,-0.02637986106
3.36,-0.00621489552,-0.02578325097
3.37,-0.00715609228,-0.02514769705
3.38,-0.008054814455,-0.02447564838
3.39,-0.008909572002,-0.02376962464
3.4,-0.009719017294,-0.02303220836
3.41,-0.01048194779,-0.02226603703
3.42,-0.01119730829,-0.02147379518
3.43,-0.01186419273,-0.02065820628
3.44,-0.01248184556,-0.01982202464
3.45,-0.01304966271,-0.01896802721
3.46,-0.01356719206,-0.01809900543
3.47,-0.01403413349,-0.01721775703
3.48,-0.01445033856,-0.01632707786
3.49,-0.01481580967,-0.01542975383
3.5,-0.01513069882,-0.01452855284
3.51,-0.01539530597,-0.01362621688
3.52,-0.01561007696,-0.01272545419
3.53,-0.01577560104,-0.01182893161
3.54,-0.01589260796,-0.01093926704
3.55,-0.01596196474,-0.01005902213
3.56,-0.01598467197,-0.009190695157
3.57,-0.01596185984,-0.008336714083
3.58,-0.01589478373,-0.007499429924
3.59,-0.01578481951,-0.00668111032
3.6,-0.01563345851,-0.005883933408
3.61,-0.01544230216,-0.005109981975
3.62,-0.01521305637,-0.004361237923
3.63,-0.01494752557,-0.003639577055
3.64,-0.01464760659,-0.002946764198
3.65,-0.01431528218,-0.002284448667
3.66,-0.01395261444,-0.001654160095
3.67,-0.01356173794,-0.001057304635
3.68,-0.0131448527,-0.0004951615302
3.69,-0.01270421706,3.111991249E-05
3.7,-0.01224214032,0.0005205229668
3.71,-0.0117609753,0.0009721657229
3.72,-0.01126311087,0.001385302919
3.73,-0.0107509643,0.00175932736
3.74,-0.01022697359,0.002093770932
3.75,-0.009693589866,0.002388305188
3.76,-0.009153269603,0.002642741531
3.77,-0.008608467003,0.002857030976
3.78,-0.008061626338,0.003031263508
3.79,-0.007515174369,0.003165667017
3.8,-0.006971512853,0.003260605842
3.81,-0.006433011135,0.003316578912
3.82,-0.005901998877,0.003334217485
3.83,-0.00538075892,0.003314282516
3.84,-0.004871520318,0.003257661638
3.85,-0.004376451541,0.003165365778
3.86,-0.003897653897,0.00303852542
3.87,-0.003437155155,0.002878386519
3.88,-0.002996903425,0.002686306086
3.89,-0.002578761276,0.00246374745
3.9,-0.002184500136,0.002212275221
3.91,-0.001815794975,0.00193354996
3.92,-0.001474219288,0.001629322579
3.93,-0.001161240396,0.001301428479
3.94,-0.0008782150771,0.0009517814536
3.95,-0.0006263855278,0.0005823673711
3.96,-0.0004068756885,0.0001952376526
3.97,-0.0002206879214,-0.0002074974331
3.98,-6.870006122E-05,-0.0006236756376
3.99,4.833715584E-05,-0.001051089745
4,0.0001298022791,-0.001487494708
4.01,0.0001752049394,-0.001930614882
4.02,0.0001841872497,-0.002378151349
4.03,0.0001565248077,-0.002827789295
4.04,9.21272968E-05,-0.003277205425
4.05,-8.961315577E-06,-0.0037240754
4.06,-0.0001465629813,-0.004166081272
4.07,-0.0003203661769,-0.004600918881
4.08,-0.0005299269085,-0.005026305223
4.09,-0.0007746701119,-0.00543998573
4.1,-0.001053891445,-0.005839741481
4.11,-0.001366759469,-0.006223396285
4.12,-0.0017123182,-0.006588823647
4.13,-0.002089490048,-0.006933953575
4.14,-0.002497079105,-0.007256779221
4.15,-0.002933774792,-0.007555363336
4.16,-0.003398155856,-0.007827844508
4.17,-0.003888694682,-0.008072443184
4.18,-0.004403761941,-0.008287467444
4.19,-0.004941631535,-0.008471318518
4.2,-0.005500485831,-0.008622496026
4.21,-0.006078421175,-0.008739602925
4.22,-0.006673453667,-0.008821350159
4.23,-0.007283525173,-0.008866560984
4.24,-0.007906509572,-0.00887417496
4.25,-0.008540219198,-0.008843251613
4.26,-0.009182411489,-0.008772973729
4.27,-0.009830795788,-0.008662650296
4.28,-0.01048304031,-0.008511719069
4.29,-0.01113677922,-0.00831974876
4.3,-0.01178961986,-0.008086440842
4.31,-0.01243915,-0.007811630959
4.32,-0.01308294524,-0.007495289945
4.33,-0.01371857639,-0.007137524447
4.34,-0.0143436169,-0.006738577139
4.35,-0.01495565033,-0.006298826544
4.36,-0.0155522777,-0.005818786454
4.37,-0.01613112497,-0.005299104943
4.38,-0.01668985029,-0.004740562995
4.39,-0.01722615125,-0.004144072726
4.4,-0.01773777205,-0.003510675229
4.41,-0.0182225105,-0.002841538028
4.42,-0.01867822491,-0.002137952163
4.43,-0.01910284077,-0.001401328896
4.44,-0.01949435732,-0.0006331960767
4.45,-0.01985085386,0.000164805862
4.46,-0.02017049588,0.0009909282282
4.47,-0.0204515409,0.001843318731
4.48,-0.02069234414,0.002720026447
4.49,-0.02089136383,0.003619007094
4.5,-0.02104716627,0.004538128577
4.51,-0.02115843064,0.005475176809
4.52,-0.0212239534,0.006427861789
4.53,-0.02124265242,0.007393823901
4.54,-0.02121357077,0.008370640444
4.55,-0.02113588014,0.009355832353
4.56,-0.02100888389,0.0103468711
4.57,-0.02083201976,0.01134118577
4.58,-0.02060486218,0.01233617023
4.59,-0.02032712418,0.0133291905
4.6,-0.01999865893,0.01431759214
4.61,-0.01961946089,0.01529870776
4.62,-0.01918966652,0.01626986458
4.63,-0.0187095546,0.01722839201
4.64,-0.01817954619,0.01817162929
4.65,-0.01760020409,0.01909693305
4.66,-0.01697223202,0.02000168487
4.67,-0.01629647325,0.02088329885
4.68,-0.01557390896,0.02173922901
4.69,-0.0148056561,0.02256697663
4.7,-0.01399296498,0.02336409752
4.71,-0.01313721631,0.02412820909
4.72,-0.01223991803,0.02485699731
4.73,-0.01130270166,0.02554822345
4.74,-0.01032731835,0.02619973067
4.75,-0.009315634527,0.02680945034
4.76,-0.008269627283,0.02737540821
4.77,-0.007191379363,0.02789573023
4.78,-0.00608307389,0.02836864816
4.79,-0.004946988784,0.02879250491
4.8,-0.003785490893,0.02916575952
4.81,-0.002601029871,0.02948699187
4.82,-0.001396131804,0.02975490707
4.83,-0.000173392609,0.02996833946
4.84,0.001064528774,0.0301262563
4.85,0.002314917387,0.03022776108
4.86,0.003575009427,0.03027209647
4.87,0.004841999569,0.03025864683
4.88,0.00611304842,0.03018694044
4.89,0.007385290089,0.0300566512
4.9,0.008655839833,0.02986760003
4.91,0.009921801783,0.02961975582
4.92,0.01118027671,0.02931323599
4.93,0.0124283698,0.02894830658
4.94,0.01366319846,0.02852538201
4.95,0.01488190008,0.02804502436
4.96,0.01608163976,0.02750794231
4.97,0.01725961795,0.02691498955
4.98,0.01841307805,0.02626716295
4.99,0.01953931388,0.02556560017
5,0.02063567696,0.02481157699
5.01,0.02169958378,0.02400650419
5.02,0.02272852274,0.02315192411
5.03,0.02372006101,0.02224950675
5.04,0.02467185112,0.02130104562
5.05,0.02558163738,0.02030845318
5.06,0.02644726198,0.01927375592
5.07,0.02726667088,0.01819908922
5.08,0.02803791939,0.01708669182
5.09,0.02875917748,0.01593889999
5.1,0.02942873471,0.01475814152
5.11,0.03004500496,0.01354692935
5.12,0.03060653067,0.01230785503
5.13,0.03111198683,0.0110435819
5.14,0.03156018459,0.009756838155
5.15,0.03195007443,0.008450409641
5.16,0.03228074904,0.007127132533
5.17,0.03255144576,0.005789885864
5.18,0.03276154862,0.004441583942
5.19,0.03291058995,0.003085168656
5.2,0.03299825166,0.001723601718
5.21,0.03302436605,0.0003598568392
5.22,0.03298891618,-0.001003088114
5.23,0.03289203589,-0.002362258985
5.24,0.03273400936,-0.003714693168
5.25,0.03251527026,-0.005057447427
5.26,0.03223640051,-0.006387605646
5.27,0.0318981286,-0.007702286511
5.28,0.03150132752,-0.008998651079
5.29,0.0310470123,-0.01027391024
5.3,0.03053633716,-0.01152533202
5.31,0.02997059223,-0.01275024873
5.32,0.02935119999,-0.01394606393
5.33,0.02867971124,-0.0151102592
5.34,0.02795780082,-0.01624040064
5.35,0.02718726291,-0.01733414519
5.36,0.02637000602,-0.01838924668
5.37,0.02550804774,-0.01940356156
5.38,0.02460350911,-0.02037505436
5.39,0.02365860872,-0.02130180288
5.4,0.02267565662,-0.022182003
5.41,0.02165704787,-0.02301397319
5.42,0.02060525599,-0.02379615866
5.43,0.0195228261,-0.02452713515
5.44,0.01841236793,-0.02520561235
5.45,0.01727654863,-0.02583043696
5.46,0.01611808547,-0.02640059529
5.47,0.0149397384,-0.02691521558
5.48,0.01374430244,-0.02737356983
5.49,0.01253460015,-0.02777507524
5.5,0.01131347383,-0.02811929526
5.51,0.01008377787,-0.02840594024
5.52,0.008848370966,-0.02863486759
5.53,0.007610108381,-0.02880608164
5.54,0.00637183425,-0.028919733
5.55,0.005136373909,-0.02897611754
5.56,0.00390652631,-0.02897567496
5.57,0.002685056531,-0.02891898698
5.58,0.001474688395,-0.0288067751
5.59,0.0002780972357,-0.02863989796
5.6,-0.0009020971856,-0.02841934842
5.61,-0.002063337584,-0.0281462501
5.62,-0.003203135857,-0.02782185374
5.63,-0.004319079571,-0.02744753306
5.64,-0.005408838216,-0.02702478038
5.65,-0.006470169209,-0.02655520189
5.66,-0.00750092362,-0.02604051257
5.67,-0.008499051621,-0.02548253087
5.68,-0.009462607629,-0.02488317311
5.69,-0.01038975513,-0.02424444758
5.7,-0.0112787712,-0.02356844841
5.71,-0.01212805061,-0.02285734925
5.72,-0.01293610971,-0.0221133967
5.73,-0.0137015898,-0.02133890358
5.74,-0.01442326024,-0.02053624199
5.75,-0.01510002112,-0.01970783633
5.76,-0.01573090556,-0.01885615604
5.77,-0.01631508166,-0.01798370839
5.78,-0.01685185394,-0.01709303108
5.79,-0.01734066451,-0.01618668481
5.8,-0.01778109374,-0.01526724587
5.81,-0.01817286056,-0.01433729859
5.82,-0.01851582238,-0.01339942795
5.83,-0.01880997454,-0.01245621207
5.84,-0.01905544946,-0.01151021485
5.85,-0.01925251525,-0.01056397864
5.86,-0.01940157407,-0.009620017022
5.87,-0.01950316003,-0.008680807678
5.88,-0.01955793672,-0.00774878542
5.89,-0.01956669434,-0.006826335364
5.9,-0.01953034655,-0.00591578628
5.91,-0.01944992689,-0.005019404133
5.92,-0.01932658489,-0.004139385843
5.93,-0.01916158184,-0.003277853275
5.94,-0.01895628627,-0.002436847469
5.95,-0.01871216912,-0.001618323147
5.96,-0.0184307986,-0.0008241434914
5.97,-0.01811383483,-5.60752224E-05
5.98,-0.01776302417,0.0006842160162
5.99,-0.01738019336,0.001395169949
6,-0.01696724344,0.002075335626
