"Freq [GHz]","re(S(Antenna1_1_1,Antenna1_1_1)) []","im(S(Antenna1_1_1,Antenna1_1_1)) []"
3,-0.201330215421793,-0.162883631501026
3.0175,-0.209788969727513,-0.147374510518794
3.035,-0.216704253698177,-0.130976769393255
3.0525,-0.221776472718928,-0.114178510451554
3.07,-0.225132181208673,-0.0975527178060744
3.0875,-0.227241644356716,-0.0813802304297111
3.105,-0.228553038227493,-0.0654784376343729
3.1225,-0.229119994944042,-0.0493967728710398
3.14,-0.228530525111017,-0.0328471164545418
3.1575,-0.226217868867742,-0.01603008510947
3.175,-0.221921073702947,0.000418261970824296
3.1925,-0.215925530218467,0.015835811833997
3.21,-0.208877692724543,0.0299814285601935
3.2275,-0.201314872045998,0.043155810948307
3.245,-0.193266113434388,0.0559117034032647
3.2625,-0.184247440803922,0.0685208718205738
3.28,-0.173713738349895,0.0806741985854707
3.2975,-0.161546602048546,0.0916617280875073
3.315,-0.148210155036638,0.100865886520584
3.3325,-0.134455700935074,0.108181598468547
3.35,-0.12081388222793,0.114037583121148
3.3675,-0.107271975285688,0.119012034190512
3.385,-0.0933789628792257,0.123349049377413
3.4025,-0.0786855762622052,0.126747700001857
3.42,-0.0631760130143445,0.128575335633361
3.4375,-0.0473676399465872,0.128332397271451
3.455,-0.0320212127576284,0.125994906047413
3.4725,-0.017686934775279,0.122102451031726
3.49,-0.00433704233342149,0.117309812010246
3.5075,0.0084794333662487,0.111922652820648
3.525,0.0211982164941739,0.105712954413172
3.5425,0.0338279949417429,0.0981415170541344
3.56,0.0458653623154276,0.0888128773607442
3.5775,0.0565914995912105,0.0778264890538556
3.595,0.0655304333674724,0.0657709414252434
3.6125,0.072736868909153,0.0533677389227833
3.63,0.0787062762508797,0.041021653551155
3.6475,0.0839701759304567,0.0286015859309825
3.665,0.0886800804374196,0.0156057921961499
3.6825,0.0924041719169762,0.00159989780307588
3.7,0.0944280653859312,-0.0132859178374457
3.7175,0.0943299021641535,-0.0283821932413002
3.735,0.0922835969949156,-0.0428939364031986
3.7525,0.0889410600482018,-0.0564067063477919
3.77,0.0849617957696299,-0.0691138449399587
3.7875,0.0805382307061248,-0.0815905042601199
3.805,0.0752751731305687,-0.0942776574505459
3.8225,0.0685221326530634,-0.107062423715711
3.84,0.0599154786908762,-0.119277726947984
3.8575,0.0497204928266956,-0.130133151092082
3.875,0.0387046874621063,-0.13925899007683
3.8925,0.0276715348410333,-0.1469586182037
3.91,0.0167587699794703,-0.153990198438277
3.9275,0.00550130990854257,-0.160810419363369
3.945,-0.0067294312896892,-0.167257021750233
3.9625,-0.0201758765977443,-0.172668390002247
3.98,-0.034453793606502,-0.17638222273305
3.9975,-0.0487932671194682,-0.178224509887447
4.015,-0.0625639403231807,-0.178619393510608
4.0325,-0.075678629442859,-0.178249184438056
4.05,-0.0885750319505466,-0.177536282048187
4.0675,-0.101804371034523,-0.176343641062387
4.085,-0.115550939611618,-0.174111173564708
4.1025,-0.129446080276941,-0.170309570906002
4.12,-0.142805323412959,-0.164859952476121
4.1375,-0.155096627090426,-0.158207375227431
4.155,-0.166284007151065,-0.151005835070512
4.1725,-0.176797388032762,-0.143660760838985
4.19,-0.187163661532005,-0.13606941436304
4.2075,-0.197579156102015,-0.127741955736889
4.225,-0.207735370161367,-0.118203867039247
4.2425,-0.21701713480968,-0.107382077790486
4.26,-0.22492336904517,-0.0956979868669502
4.2775,-0.231406860963881,-0.083805046153192
4.295,-0.236892040760924,-0.0721598787905934
4.3125,-0.241957751714881,-0.0607307829825776
4.33,-0.246935584257905,-0.0490218236667655
4.3475,-0.251516019142056,-0.036505975333222
4.365,-0.255099291936381,-0.0230986703464522
4.3825,-0.25719578644923,-0.00921797253249181
4.4,-0.257770966317327,0.0044783923100782
4.4175,-0.257266613114044,0.0175260471363563
4.435,-0.256281462665116,0.0299492126709601
4.4525,-0.255137303204035,0.0422034185418779
4.47,-0.253645232729839,0.0548009035599535
4.4875,-0.251249471512516,0.0678880191180658
4.505,-0.247451528091607,0.0810889646788633
4.5225,-0.242203121593515,0.0937414902588541
4.54,-0.235968281987258,0.105357293068031
4.5575,-0.229397221322141,0.115961622182321
4.575,-0.222851742834566,0.12604745138758
4.5925,-0.216144892083367,0.136169459082828
4.61,-0.208701763402611,0.146483956555637
4.6275,-0.200025382090617,0.156591082246302
4.645,-0.190110785516172,0.165807421613999
4.6625,-0.179484591494147,0.173663277881565
4.68,-0.168835460475864,0.180240854265072
4.6975,-0.158519239544844,0.186090516430509
4.715,-0.148320634940739,0.191789286255153
4.7325,-0.137653757721218,0.197482281838732
4.75,-0.126044584629568,0.202758110934709
4.7675,-0.113521555957956,0.206901579511273
4.785,-0.100708249675877,0.209556042920492
4.8025,-0.0882197228915192,0.210898715382463
4.82,-0.0763125296852895,0.211451202145383
4.8375,-0.0647763235555309,0.21168110488115
4.855,-0.0531594543475797,0.211682910143508
4.8725,-0.0411376053728133,0.211148960580445
4.89,-0.0287594233669593,0.209618990460787
4.9075,-0.0164170981077405,0.20681098280594
4.925,-0.0045895140859066,0.202805290624067
4.9425,0.00645154820023012,0.197975106866552
4.96,0.0167776773131732,0.192730430927509
4.9775,0.0267058683507577,0.187255099742644
4.995,0.0365432251105626,0.181407623031827
5.0125,0.0463466664636308,0.174844140771135
5.03,0.0558556638499055,0.167278589547359
5.0475,0.0646435582900528,0.158706392773757
5.065,0.0723890779622996,0.149438294359711
5.0825,0.0790835447166759,0.139913533747024
5.1,0.0850230861639856,0.130414111410345
5.1175,0.0905786459225929,0.120881825345793
5.135,0.0958994715911779,0.110980456392438
5.1525,0.100768973026438,0.100373507938716
5.17,0.104734390081888,0.0890206550493518
5.1875,0.107429981776043,0.0772646430797456
5.205,0.108855070306944,0.065625477700702
5.2225,0.109384758838025,0.0544434897454642
5.24,0.109486963222179,0.0436440150846376
5.2575,0.109352545794532,0.032818799118598
5.275,0.108729173402163,0.0215779723394234
5.2925,0.107103759523507,0.00990552495148873
5.31,0.104105513770454,-0.00176730202503489
5.3275,0.0998164713960727,-0.012843921695973
5.345,0.0947355196192455,-0.0229894301706889
5.3625,0.0894101749159344,-0.0323658706827674
5.38,0.0840189087679566,-0.0414796801658153
5.3975,0.078237019538897,-0.05075033899098
5.415,0.0715020149920697,-0.0601368058736799
5.4325,0.0634775324825566,-0.0691215064615256
5.45,0.0543513461468512,-0.0770731146805465
5.4675,0.0447279455008184,-0.0837081357594214
5.485,0.0351940848126024,-0.0892886288108569
5.5025,0.0258948271214373,-0.0943978424451727
5.52,0.0164514897046837,-0.0994662733611703
5.5375,0.0062861529821005,-0.104416054759802
5.555,-0.00489879207534388,-0.108698464278356
5.5725,-0.0168552846936911,-0.111693575521036
5.59,-0.0289386203921677,-0.113163842605078
5.6075,-0.0405522401628019,-0.113418012172661
5.625,-0.051549490073842,-0.113068232174496
5.6425,-0.0623060674242086,-0.112604667008851
5.66,-0.0734178183414226,-0.111918963838048
5.6775,-0.0851286697810964,-0.110493700026708
5.695,-0.0971805227448767,-0.107791890629182
5.7125,-0.108988605664713,-0.103636878615382
5.73,-0.1200283265953,-0.0983188241319912
5.7475,-0.130154703680265,-0.0923784231534344
5.765,-0.139645973731891,-0.0862371840765316
5.7825,-0.148961149942845,-0.0799296802148394
5.8,-0.158387146998822,-0.0731085408205716
5.8175,-0.167811938600606,-0.0653079918134683
5.835,-0.176770531462993,-0.0562865808331766
5.8525,-0.184732660501972,-0.0462213719841376
5.87,-0.191443217221607,-0.0356205058116935
5.8875,-0.197084965830514,-0.0250035514216878
5.905,-0.202140973050853,-0.0145597002344854
5.9225,-0.207034403025343,-0.00402496411274318
5.94,-0.211789410715836,0.00711568332107357
5.9575,-0.21596537361332,0.019222759378827
5.975,-0.218938582990946,0.0321795189271481
5.9925,-0.220349023139406,0.0454055465687522
6.01,-0.220383186296565,0.05822733461353
6.0275,-0.219658094163547,0.0703497694324622
6.045,-0.218762890844859,0.0820676057104283
6.0625,-0.217791524659967,0.0940286570541774
6.08,-0.216228279761194,0.106729773437196
6.0975,-0.213300201163116,0.119973894778015
6.115,-0.208665088904195,0.133023807435157
6.1325,-0.202660113492425,0.145126678292443
6.15,-0.196051758926508,0.156057487207746
6.1675,-0.18945093549628,0.166250953167936
6.185,-0.182853212025081,0.176416560436477
6.2025,-0.175666430846651,0.186940626538113
6.22,-0.1672014664284,0.197547400687645
6.2375,-0.157236046957403,0.207483254064541
6.255,-0.146208600044175,0.216072517317906
6.2725,-0.134897361439957,0.223204037023942
6.29,-0.123846155356236,0.229371529893513
6.3075,-0.112988534078878,0.235248858903655
6.325,-0.101753490194899,0.241142534955627
6.3425,-0.0895541559788673,0.246745470937287
6.36,-0.0762719672530586,0.251367296372156
6.3775,-0.0623707188227109,0.254446196293089
6.395,-0.0485728581916478,0.255945516244689
6.4125,-0.0353606837059966,0.256347022791555
6.43,-0.0226781292667365,0.256268007279666
6.4475,-0.0100380522072178,0.256001913786756
6.465,0.00306593276085817,0.255316803935936
6.4825,0.0167532190287387,0.253639519287961
6.5,0.0306400312298054,0.250474496246288
6.5175,0.0440565089121139,0.245729470240194
6.535,0.0565025870154921,0.239888080052915
6.5525,0.0679980174821551,0.233554935065696
6.57,0.0789695226001904,0.227059006515772
6.5875,0.0898914731952483,0.220255380926637
6.605,0.100911157190925,0.212666725302686
6.6225,0.111715473790268,0.20385368572942
6.64,0.121724093873612,0.19375317829985
6.6575,0.130470616961974,0.182750473270174
6.675,0.137904540412475,0.171434992808889
6.6925,0.144399400124879,0.160209852883662
6.71,0.150455811310327,0.149032552850563
6.7275,0.156307281284792,0.137478717489439
6.745,0.161715803932645,0.1250924306265
6.7625,0.166116454189458,0.111773006882997
6.78,0.169016374624152,0.0979090455030089
6.7975,0.170356714893842,0.0841478306019611
6.815,0.170560544164619,0.0709606634886632
6.8325,0.170217835038457,0.0583284122095827
6.85,0.169635888163192,0.0457929122714874
6.8675,0.168596481055862,0.0328471371209466
6.885,0.166513437357763,0.0193741432757695
6.9025,0.162880787993484,0.00579779403443982
6.92,0.157674042162551,-0.00717836645381506
6.9375,0.151395284192896,-0.0190529050673646
6.955,0.144758466390366,-0.0298560342200255
6.9725,0.1380751122251,-0.0401713915339988
6.99,0.131079922423378,-0.050510614338422
7.0075,0.123198118015524,-0.0609318298092591
7.025,0.11401806366656,-0.0709803566358676
7.0425,0.103622672849622,-0.0800143421128991
7.06,0.0925415201005219,-0.0876551889392834
7.0775,0.0813784287883322,-0.0940242895743335
7.095,0.0704051996718477,-0.0996033590284194
7.1125,0.0594208578050339,-0.104840722717834
7.13,0.0479651249117505,-0.109804681159507
7.1475,0.0357121461099374,-0.114134114001621
7.165,0.0227493347351928,-0.117307417291877
7.1825,0.00954474160522115,-0.119019932892791
7.2,-0.0033596766123512,-0.119392623511394
7.2175,-0.0156968630870441,-0.118868939831205
7.235,-0.0276137638285095,-0.117885946090665
7.2525,-0.0395085889266132,-0.11656314279169
7.27,-0.0516920966819158,-0.11463103858141
7.2875,-0.064119815520752,-0.111644270530379
7.305,-0.0763852870499235,-0.107320923540351
7.3225,-0.0879751832640059,-0.101763466249467
7.34,-0.0986012530884853,-0.095404616198909
7.3575,-0.108371481248954,-0.0887184946753372
7.375,-0.117678559293135,-0.0819040205758326
7.3925,-0.126911051162409,-0.0747576061509223
7.41,-0.13604977944139,-0.0668347837692168
7.4275,-0.144728481250328,-0.0578738644954337
7.445,-0.152475117618504,-0.0479789424367081
7.4625,-0.159026076842768,-0.0375675440006478
7.48,-0.164485779718787,-0.027101173322514
7.4975,-0.169224902540868,-0.0167943188897065
7.515,-0.173596273225497,-0.00650673928728121
7.5325,-0.177673170323318,0.00410995403002449
7.55,-0.18119436072864,0.0153206594753137
7.5675,-0.183751082750479,0.0270794353816073
7.585,-0.185079753731026,0.0390272167004763
7.6025,-0.185250780154766,0.0507141853872889
7.62,-0.184619078627727,0.061886764652596
7.6375,-0.183572098630096,0.0726335359255039
7.655,-0.182256044943572,0.0832849128549468
7.6725,-0.180477741284861,0.0941375612848262
7.69,-0.177854984694932,0.10520160029456
7.7075,-0.174109423220788,0.116154936709682
7.725,-0.169290511811949,0.126541851322003
7.7425,-0.163764885719415,0.13607551830504
7.76,-0.157973293297111,0.144824598137013
7.7775,-0.152128157086275,0.153143360583905
7.795,-0.146073625912267,0.161389876622615
7.8125,-0.139416582852272,0.169634933131879
7.83,-0.131824556351923,0.177570039061831
7.8475,-0.123360951919067,0.184704392909605
7.865,-0.114425964658122,0.190746610350818
7.8825,-0.105496297611319,0.195785451133719
7.9,-0.0968053566668172,0.200209092630829
7.9175,-0.0882035652427164,0.204406853985263
7.935,-0.0793009166632891,0.20847270290616
7.9525,-0.0697866616025035,0.212128341510595
7.97,-0.0596910786752506,0.214922384041011
7.9875,-0.0493967412410356,0.216559528058842
8.005,-0.0393902544695984,0.217118070792933
8.0225,-0.0299357574657963,0.216995394998501
8.04,-0.0209085470165569,0.216624770740056
8.0575,-0.011905647651325,0.216145831884827
8.075,-0.00259696300087941,0.215302280654881
8.0925,0.00700503659886506,0.213657104607687
8.11,0.0165290234830111,0.210920569424158
8.1275,0.0254893213730547,0.207175716197004
8.145,0.0336158087397109,0.202832065737009
8.1625,0.0410275091489525,0.198340181031173
8.18,0.048120868393097,0.193875389662239
8.1975,0.0552522850406831,0.189224040428519
8.215,0.0624476788297723,0.183959362342869
8.2325,0.0693558394386329,0.177780581341072
8.25,0.0754849047969975,0.170764819709207
8.2675,0.080539309607322,0.163352938402493
8.285,0.084679198377717,0.156032589861177
8.3025,0.0883296617592252,0.14898076992453
8.32,0.0918556832564101,0.1419798184403
8.3375,0.0952796128861186,0.134616726126582
8.355,0.0982610203500348,0.126625540582857
8.3725,0.10034998145762,0.118114497760562
8.39,0.101319614380087,0.109509620341129
8.4075,0.101327293542111,0.101262082750594
8.425,0.10078715890643,0.0935431927220597
8.4425,0.100055646628799,0.0861555903565089
8.46,0.0991696796087104,0.078721965950438
8.4775,0.0978317813787336,0.0710033384336222
8.495,0.0956467508195761,0.0631061964165266
8.5125,0.092427170491989,0.0554275189896646
8.53,0.0883396394326618,0.0483856781039402
8.5475,0.083788550877763,0.0421416689806136
8.565,0.0791303612539961,0.0365153592324779
8.5825,0.0744318648935908,0.0311521222940863
8.6,0.0694468376330182,0.0258116689854525
8.6175,0.0638222412404371,0.0205669537815084
8.635,0.0573803047770602,0.0157719396358463
8.6525,0.0502728849908316,0.0118255200330277
8.67,0.0428995883254071,0.00890277441900303
8.6875,0.0356496571550478,0.00684498808287585
8.705,0.0286603732850111,0.00526837778242579
8.7225,0.0216902515728694,0.00389136729939328
8.74,0.0143993756314035,0.00275249056843556
8.7575,0.00661223995555332,0.00217249203481299
8.775,-0.00152410216076518,0.00252492029815334
8.7925,-0.00961466790277011,0.00396861046221681
8.81,-0.017269852535714,0.00633420436520273
8.8275,-0.0243545929774873,0.00924729023153857
8.845,-0.0310514431927032,0.0123998988768345
8.8625,-0.0376891654405449,0.0157718369295905
8.88,-0.0444611782469567,0.0196365962280194
8.8975,-0.051243253670176,0.024343971496242
8.915,-0.0576499210227093,0.030039590116968
8.9325,-0.0632911602982565,0.0365331839002138
8.95,-0.0680371962375445,0.0434187129727354
8.9675,-0.0720888812717438,0.0503584473714563
8.985,-0.0757969749857091,0.0573151306696962
9.0025,-0.0793666709504628,0.0645528259101538
9.02,-0.0826744800522903,0.0724036420309579
9.0375,-0.08533993168303,0.0809790246311258
9.055,-0.0869979678829753,0.0900486246279286
9.0725,-0.0875621059766466,0.0991806821581817
9.09,-0.0872756214013052,0.108035363076121
9.1075,-0.0865126659475837,0.116584763474092
9.125,-0.0854842567984824,0.125091744406332
9.1425,-0.0840726820455855,0.133883339432745
9.16,-0.0819060695998088,0.143010786271844
9.1775,-0.0786953377018476,0.152213897586852
9.195,-0.0744278459012929,0.161091595252563
9.2125,-0.069366264088097,0.169363561845653
9.23,-0.0638511333046098,0.177027411654395
9.2475,-0.0580636926679708,0.184305594545431
9.265,-0.0519221281253923,0.191435746116919
9.2825,-0.0451753414383482,0.198465939423072
9.3,-0.0376129457078911,0.205199896407717
9.3175,-0.0292348389221704,0.211319869848399
9.335,-0.020264505966104,0.216588518898622
9.3525,-0.0110075945523963,0.220984128596061
9.37,-0.00166349028379893,0.224680379879673
9.3875,0.00777808465324268,0.227894176640142
9.405,0.0174896334623782,0.230712754693311
9.4225,0.0276470678530726,0.233018787920137
9.44,0.0382717046695613,0.234560816947797
9.4575,0.049180601604074,0.235117341268529
9.475,0.0600775818499599,0.234641387334614
9.4925,0.0707222693687206,0.233286680781971
9.51,0.0810613592919232,0.231296488050866
9.5275,0.0912302840746993,0.228829892419059
9.545,0.101420554139981,0.225845742964378
9.5625,0.111702065860416,0.222128796662911
9.58,0.121926878666128,0.217431128528594
9.5975,0.131761634765903,0.21170384009454
9.615,0.140937345625062,0.205129774846798
9.6325,0.149389824245273,0.197999758460544
9.65,0.157265124108837,0.190516981823566
9.6675,0.164771714748014,0.182668946590089
9.685,0.171987682319882,0.174261347858986
9.7025,0.178765513545381,0.165089648314416
9.72,0.18480607205957,0.155121538297875
9.7375,0.189847790832701,0.144553906262167
9.755,0.193830009897808,0.133700589958363
9.7725,0.196907323256176,0.12279421628005
9.79,0.199303157373084,0.111851236279171
9.8075,0.201112500437581,0.100702766797524
9.825,0.202203161835783,0.0891688608401727
9.8425,0.202291078845353,0.077244777417482
9.86,0.201133358618078,0.0651581102639164
9.8775,0.198693219545153,0.0532532962105625
9.895,0.195152193642197,0.0417909190741346
9.9125,0.190760745299348,0.0308136839315017
9.93,0.185640594985259,0.0201801884450966
9.9475,0.179687961578833,0.00974081897291163
9.965,0.172650361425542,-0.000476342617504575
9.9825,0.164319491814253,-0.0102080857071786
10,0.154697198561236,-0.0190687224153527
