"Freq [GHz]","re(S(Antenna1_1_1,Antenna1_1_1)) []","im(S(Antenna1_1_1,Antenna1_1_1)) []"
3,-0.200363501610393,-0.163144889457626
3.0175,-0.209376947467225,-0.148272060642694
3.035,-0.217124326368577,-0.131860035674135
3.0525,-0.222718135377528,-0.114423182993954
3.07,-0.225924886742273,-0.0969898392187744
3.0875,-0.227321601889016,-0.0804076310233111
3.105,-0.227854535221493,-0.0647857232038729
3.1225,-0.228128554079642,-0.0494874027055398
3.14,-0.227954664628227,-0.0336781284748418
3.1575,-0.226491782487542,-0.01702273986763
3.175,-0.222879044283947,-1.47777478757041E-05
3.1925,-0.216891682688267,0.016307684936697
3.21,-0.209134859712643,0.0310520551658935
3.2275,-0.200632579307898,0.044049481734807
3.245,-0.192121678131488,0.0559392924402647
3.2625,-0.183497097759222,0.0676282983174738
3.28,-0.173947142050695,0.0795094334544707
3.2975,-0.162622385627446,0.0911077274303073
3.315,-0.149334104858138,0.101370909853784
3.3325,-0.134766650327174,0.109396561755347
3.35,-0.12004472765253,0.115055233261548
3.3675,-0.105975910263088,0.119046073957012
3.385,-0.0925303409533257,0.122342381724613
3.4025,-0.0789448129976052,0.125437220194757
3.42,-0.0643765243401445,0.127948915896161
3.4375,-0.0486240219819872,0.128881880769451
3.455,-0.0323590002859284,0.127323037708013
3.4725,-0.016847831519579,0.123185671210726
3.49,-0.00296638914972149,0.117316852144346
3.5075,0.00933254636300871,0.110848348310848
3.525,0.0208827972910739,0.104375929416772
3.5425,0.0325818118751429,0.0975571652389344
3.56,0.0446288448031276,0.0894252940986442
3.5775,0.0562961011358105,0.0791788314972556
3.595,0.0664022944469724,0.0668529364817434
3.6125,0.074132789236613,0.0533703330804833
3.63,0.0795938416536197,0.039934513959455
3.6475,0.0836888067434567,0.0272176855741825
3.665,0.0874321562165196,0.0149581738006499
3.6825,0.0911383905951762,0.00216511807227588
3.7,0.0940841197380312,-0.0119598136950457
3.7175,0.0951421177430535,-0.0272948900151002
3.735,0.0936305598387256,-0.0428459348938986
3.7525,0.0898204380185617,-0.0574203067114919
3.77,0.0847280757066299,-0.0704326875359587
3.7875,0.0793666870611248,-0.0822414974823199
3.805,0.0740262462544687,-0.0937798903482459
3.8225,0.0681138129335634,-0.105773618198711
3.84,0.0606579129283762,-0.118135138685384
3.8575,0.0510880868081956,-0.129977722687982
3.875,0.0397081057383063,-0.14022549801563
3.8925,0.0275631553960333,-0.1483098563758
3.91,0.0156720344342703,-0.154743071070177
3.9275,0.00425919131564257,-0.160453608464269
3.945,-0.0072281555702892,-0.166093125740373
3.9625,-0.0195994760640443,-0.171566541955747
3.98,-0.033254654372502,-0.17613717440525
3.9975,-0.0478590437675482,-0.178989240836147
4.015,-0.0625673238381807,-0.179812882960408
4.0325,-0.076597719292359,-0.178992974657656
4.05,-0.0897237500212466,-0.177295114467086
4.0675,-0.102340529073123,-0.175306365350049
4.085,-0.115088076766618,-0.173043192722808
4.1025,-0.128327628447441,-0.169991833123902
4.12,-0.141849353777459,-0.165523859475821
4.1375,-0.155001669058026,-0.159371101105131
4.155,-0.167125550954065,-0.151824298191112
4.1725,-0.177973583629862,-0.143533933338585
4.19,-0.187824993471905,-0.13507398996946
4.2075,-0.197234741620115,-0.126581618630789
4.225,-0.206607764616567,-0.117714642941247
4.2425,-0.21589634146338,-0.107939520208086
4.26,-0.22461908711027,-0.0969397955875502
4.2775,-0.232175266675681,-0.084865850571192
4.295,-0.238234037816524,-0.0722651651359934
4.3125,-0.242938413255911,-0.0597489573960176
4.33,-0.246826476286605,-0.0476506986857655
4.3475,-0.250407235228156,-0.035704397189022
4.365,-0.253772965324281,-0.0234246362145522
4.3825,-0.25658704943093,-0.0104432643373918
4.4,-0.258318642050627,0.0032169920996782
4.4175,-0.258595969803144,0.0171318309489563
4.435,-0.257449015150816,0.0307257231235901
4.4525,-0.255288234749235,0.0436171681012779
4.47,-0.252635585546939,0.0558348010056535
4.4875,-0.249782853736616,0.0677631853999658
4.505,-0.246601538271867,0.0798506185461633
4.5225,-0.242634478871715,0.0922682424187541
4.54,-0.237416651106358,0.104748726523031
4.5575,-0.230815882254941,0.116721993359171
4.575,-0.223159633533566,0.12766907766978
4.5925,-0.215047667071767,0.137459969067428
4.61,-0.206963014724411,0.146437115203537
4.6275,-0.198943727076217,0.155168745512902
4.645,-0.190554153297972,0.164025364351899
4.6625,-0.181198240179147,0.172871427048755
4.68,-0.170573754595364,0.181104407054052
4.6975,-0.158947417533244,0.188040083714509
4.715,-0.147034992399839,0.193389815455453
4.7325,-0.135542009951118,0.197486420065432
4.75,-0.124675737975568,0.201071034433609
4.7675,-0.113945318383055,0.204808141735773
4.785,-0.102561396659277,0.208569788143392
4.8025,-0.0901251088811192,0.211689650076943
4.82,-0.0769007198387595,0.213391649865483
4.8375,-0.0636686547765009,0.21333852676815
4.855,-0.0512078657460797,0.211874366053508
4.8725,-0.0397740820135133,0.209782459094945
4.89,-0.0289500857345593,0.207726360289687
4.9075,-0.0179814402627405,0.20577436528654
4.925,-0.0063603992289066,0.203354026369167
4.9425,0.00576429723663012,0.199675917770452
4.96,0.0176541119256632,0.194323455335709
4.9775,0.0284821619090577,0.187578437574044
4.995,0.0379071825648626,0.180238623519487
5.0125,0.0462976128993308,0.173053866524735
5.03,0.0544342285162055,0.166191853895659
5.0475,0.0629031529063528,0.159130563339556
5.065,0.0716256182585996,0.151065261876011
5.0825,0.0798783137159459,0.141536104856724
5.1,0.0867992998916856,0.130811036317745
5.1175,0.0920105942397929,0.119731276327713
5.135,0.0958920367370779,0.109123117082038
5.1525,0.0992916871483382,0.0992086778979158
5.17,0.102877161081388,0.0894604630528518
5.1875,0.106609180219143,0.0790215855588456
5.205,0.109739995732654,0.067388954464402
5.2225,0.111353591107425,0.0548482723202642
5.24,0.111053782433179,0.0423220635841276
5.2575,0.109281022819232,0.030727118686098
5.275,0.107003713973563,0.0203144250187234
5.2925,0.104997506411507,0.0104946354929887
5.31,0.103248077982654,0.000300093462865107
5.3275,0.100938729366583,-0.010845802613373
5.345,0.0970552777564454,-0.0226286119146889
5.3625,0.0911702620509344,-0.0340060507650674
5.38,0.0838134933238566,-0.0439372779193153
5.3975,0.076127469769197,-0.05214425844048
5.415,0.0690401206577697,-0.0593238572058799
5.4325,0.0625664945380566,-0.0666239598781256
5.45,0.0557795162539112,-0.0747512219774465
5.4675,0.0475029628678184,-0.0833760429051214
5.485,0.0372306410709024,-0.0913036677366569
5.5025,0.0255802537494373,-0.0973171611440727
5.52,0.0139131804352837,-0.10108119851327
5.5375,0.0033696991706005,-0.103420675933302
5.555,-0.00597410767804388,-0.105731776798856
5.5725,-0.0151807309164911,-0.108931365734936
5.59,-0.0256631232473677,-0.112720385338138
5.6075,-0.0380901060226019,-0.115735394285661
5.625,-0.051799671180442,-0.116516716968896
5.6425,-0.0651153468306086,-0.114539522062251
5.66,-0.0766429521058226,-0.110950539498048
5.6775,-0.0863772028059964,-0.107410244254808
5.695,-0.0955775093186867,-0.104919847825482
5.7125,-0.105779641300813,-0.103090962932745
5.73,-0.117612614203,-0.100455010882091
5.7475,-0.130299149616165,-0.0955735229278344
5.765,-0.142204139021691,-0.0881196600722316
5.7825,-0.152016413267145,-0.0791295386913394
5.8,-0.159683336051422,-0.0702430762583716
5.8175,-0.166407214845006,-0.0625037649468683
5.835,-0.173711946913793,-0.0556095942702366
5.8525,-0.182276693779472,-0.0481678179992676
5.87,-0.191401964222707,-0.0387601189889935
5.8875,-0.199501262565814,-0.0270260302008878
5.905,-0.205251273170953,-0.0139623976921854
5.9225,-0.208548182478243,-0.00121909762534318
5.94,-0.210563591169436,0.0100867455288736
5.9575,-0.21285973994702,0.020161790408427
5.975,-0.216217406667146,0.0303492712954481
5.9925,-0.220040565827706,0.0421013714669522
6.01,-0.222776898563265,0.05586719943153
6.0275,-0.223046697280147,0.0707142693085622
6.045,-0.220652735258359,0.0849634412490283
6.0625,-0.216730091672567,0.0973748933071774
6.08,-0.212975209698794,0.107982081118596
6.0975,-0.210309844768116,0.118224379919055
6.115,-0.208170371461295,0.129612968996457
6.1325,-0.205008737842825,0.142624825878443
6.15,-0.199459765390508,0.156334850124746
6.1675,-0.19135133980538,0.169081826840836
6.185,-0.181824342064381,0.179659581319477
6.2025,-0.172493279972651,0.188154099806713
6.22,-0.1642776641364,0.195823232246835
6.2375,-0.156761445460703,0.204123237934541
6.255,-0.148539104505575,0.213604644547906
6.2725,-0.138283078801957,0.223483532961542
6.29,-0.125747124388736,0.232192864285913
6.3075,-0.111976000602128,0.238503688420655
6.325,-0.0985746572907993,0.242396863436427
6.3425,-0.0865728383338673,0.245053219536787
6.36,-0.0757108175609386,0.247972252698556
6.3775,-0.0646640014792109,0.251860017881889
6.395,-0.0520442892703478,0.256092584847289
6.4125,-0.0374548251209966,0.259145740279555
6.43,-0.0218345609800665,0.259684958283866
6.4475,-0.00683796782371783,0.257532042769656
6.465,0.00631102846135817,0.253808653476836
6.4825,0.0176694441368387,0.250143691332461
6.5,0.0285125759887054,0.247503898465988
6.5175,0.0404801576060139,0.245522235709994
6.535,0.0541367565491922,0.242493311958715
6.5525,0.0685297816238551,0.236978077171096
6.57,0.0819262145075904,0.228772758397472
6.5875,0.0930463690356483,0.219045845503847
6.605,0.101942959796925,0.209481534892186
6.6225,0.109898155098068,0.20106891754292
6.64,0.118430913298412,0.1934191514314
6.6575,0.128147464587874,0.185097388808874
6.675,0.138271291222375,0.174716226802489
6.6925,0.147188263416379,0.161988904593162
6.71,0.153604173347827,0.147975806280003
6.7275,0.157469374061592,0.134347013141239
6.745,0.159996154202845,0.1221990146457
6.7625,0.162753985672058,0.111288456782217
6.78,0.166499282487852,0.100245123507309
6.7975,0.170593914950742,0.0876160021265611
6.815,0.173444721420619,0.0729846157028632
6.8325,0.173655726274557,0.0573462207965727
6.85,0.171059796757492,0.0424517222229874
6.8675,0.166871012957962,0.0295822674902466
6.885,0.162827850024863,0.0186413452908695
6.9025,0.159932665632284,0.00823741081663982
6.92,0.157702121442551,-0.00327911809981506
6.9375,0.154492140601896,-0.0165597063058646
6.955,0.148570310974566,-0.0306833575916855
6.9725,0.1397919545914,-0.0435959423265988
6.99,0.129515473427978,-0.053936746853422
7.0075,0.119604814143724,-0.0618447031652591
7.025,0.11109901921286,-0.0687825055734676
7.0425,0.103511403945312,-0.076410077396099
7.06,0.0952514144140219,-0.0853409603721834
7.0775,0.0848429658712321,-0.0946842539439555
7.095,0.0720424429850477,-0.102692021207119
7.1125,0.0580447842021339,-0.108026686775934
7.13,0.0446374570282505,-0.110718603698707
7.1475,0.0329284349931373,-0.112117938753721
7.165,0.0225801529255918,-0.113882336825977
7.1825,0.0121080109519212,-0.116744961601091
7.2,2.3086420648803E-05,-0.119966259315034
7.2175,-0.0140188504283441,-0.121872790257105
7.235,-0.0289066977674095,-0.121091342216165
7.2525,-0.0428359550168132,-0.11757478874699
7.27,-0.0545919622216158,-0.11266231175151
7.2875,-0.064414871099082,-0.108118522928479
7.305,-0.0738028850131235,-0.104845953578451
7.3225,-0.0843820314092059,-0.102215618459517
7.34,-0.0966598620827853,-0.098521177425509
7.3575,-0.109581337106224,-0.0922444415692372
7.375,-0.121233599844135,-0.0832158194698326
7.3925,-0.130118344279409,-0.0728749135126223
7.41,-0.13661343989709,-0.0632241605457168
7.4275,-0.142328117912028,-0.0551973432548337
7.445,-0.148937500260904,-0.0481451092579081
7.4625,-0.156949863600268,-0.0403768006937478
7.48,-0.165344757466491,-0.030442787161114
7.4975,-0.172326095810468,-0.0182184368218065
7.515,-0.176626825866697,-0.00500985837438121
7.5325,-0.178412128867818,0.00738027549782449
7.55,-0.17913127788884,0.0179353373376137
7.5675,-0.180437822859679,0.0271196213503073
7.585,-0.182973307805726,0.0364850685854763
7.6025,-0.185903043630736,0.0474849842640889
7.62,-0.187539312263827,0.060366332368796
7.6375,-0.186592118161596,0.0739517264969339
7.655,-0.183129310297672,0.0864702473366468
7.6725,-0.178540377399761,0.0968279871908262
7.69,-0.174527388096832,0.10538517662218
7.7075,-0.171861241640688,0.113665116680582
7.725,-0.169818603122149,0.123202113686303
7.7425,-0.166721187531015,0.13437118223344
7.76,-0.161190867961011,0.146064095550573
7.7775,-0.153201562705975,0.156462236616005
7.795,-0.144146497762067,0.164350477965515
7.8125,-0.135854863579972,0.170008318637499
7.83,-0.129310722695024,0.175062365531131
7.8475,-0.123721509160467,0.181198827773705
7.865,-0.117356911708722,0.188831526924318
7.8825,-0.108811085107619,0.196851401840682
7.9,-0.0980572706342172,0.203441631020729
7.9175,-0.0864843757885164,0.207403430664263
7.935,-0.0758980136107891,0.20901989417536
7.9525,-0.0672241637004035,0.209830041460395
7.97,-0.0598658543497506,0.211485436596411
7.9875,-0.0521806281226356,0.214531524789742
8.005,-0.0427244401700984,0.218007342254893
8.0225,-0.0313474618155963,0.220155245211101
8.04,-0.0193483294658569,0.219702272589456
8.0575,-0.00856300606232499,0.216866645059027
8.075,4.70630469205885E-05,0.213176983784281
8.0925,0.00701879808226506,0.210288244226187
8.11,0.0139355200356111,0.208801410109258
8.1275,0.0222257944334547,0.207853618532194
8.145,0.0320939369739109,0.205783650935409
8.1625,0.0423594266908925,0.201372641302173
8.18,0.051310436596997,0.194748193243239
8.1975,0.0579371716311831,0.187296703025219
8.215,0.0626415794320423,0.180658464493569
8.2325,0.0669109304405329,0.175547254017672
8.25,0.0722022197645975,0.171256767191257
8.2675,0.078881286669122,0.166158873048193
8.285,0.085793139333197,0.159035439847677
8.3025,0.0913137442038252,0.14998999933463
8.32,0.0944768772782101,0.1403227062127
8.3375,0.0956356690873186,0.131581942162882
8.355,0.0961550706643348,0.124469849651257
8.3725,0.0973878566779204,0.118392635550812
8.39,0.0996926434419874,0.111958539416229
8.4075,0.102198829138331,0.104036913865694
8.425,0.10346634383163,0.0946004902327597
8.4425,0.102541468330399,0.0847504860087089
8.46,0.0996389128842104,0.075927001160438
8.4775,0.0959681006685336,0.0688920629772222
8.495,0.0928473860150761,0.0632220191190666
8.5125,0.090757871122389,0.0576641867750646
8.53,0.0890186139918218,0.0510853284407402
8.5475,0.086306720998163,0.0433200655405136
8.565,0.0816363994063961,0.0353105718490779
8.5825,0.0750878735070908,0.0284456148841863
8.6,0.0677651705281182,0.0235814484930525
8.6175,0.0610190520148371,0.0204495392863384
8.635,0.0554963933862602,0.0178735268009463
8.6525,0.0506976817072316,0.0146370852824277
8.67,0.0453588243474071,0.010380490846303
8.6875,0.0383851088906478,0.00588440083997585
8.705,0.0296421937668111,0.00260005890922579
8.7225,0.0202819113159694,0.00147976346839328
8.74,0.0116870911369035,0.00231356534313556
8.7575,0.00458025635465332,0.00396201369571299
8.775,-0.00143217743710118,0.00519612783375334
8.7925,-0.00751483551647011,0.00557338563971681
8.81,-0.014722329828514,0.00573243674810273
8.8275,-0.0232164225219873,0.00691298685643858
8.845,-0.0321322416230032,0.0100563386938345
8.8625,-0.0401766059881449,0.0151304639579905
8.88,-0.0465236720659567,0.0211546151421194
8.8975,-0.051368617627429,0.026897863810442
8.915,-0.0557484682321093,0.031748937282068
8.9325,-0.0607617111756565,0.0361363977680138
8.95,-0.0667454196152445,0.0411998399666354
8.9675,-0.0729990380331438,0.0479463381968563
8.985,-0.0782558378459091,0.0564947148072962
9.0025,-0.0815696074210628,0.0659515499570538
9.02,-0.0829831602436603,0.0750155978646579
9.0375,-0.08349348312413,0.0828855207096258
9.055,-0.0843263813098753,0.0898206889277586
9.0725,-0.0860313459804466,0.0969422230778817
9.09,-0.0880485327828052,0.105400724916121
9.1075,-0.0890747363732837,0.115498256163792
9.125,-0.0879857299624824,0.126401614612732
9.1425,-0.0846390177549455,0.136607454024345
9.16,-0.0801824424478088,0.145146821056844
9.1775,-0.0759845527569476,0.152234169312352
9.195,-0.0727141254516929,0.159030020797963
9.2125,-0.069871761722597,0.166757368535453
9.23,-0.0661693054354098,0.175779539283595
9.2475,-0.0604802434531708,0.185304134619131
9.265,-0.0526735320308223,0.193925759098119
9.2825,-0.0437272013257482,0.200614869453372
9.3,-0.0350377539736911,0.205436433599917
9.3175,-0.0274240807396704,0.209474957615499
9.335,-0.020549618623304,0.214015804310522
9.3525,-0.0131878685445963,0.219574505417461
9.37,-0.00414559454309893,0.225482556587773
9.3875,0.00682467014524268,0.230340122613342
9.405,0.0187926581227782,0.233016059305011
9.4225,0.0302807017797726,0.233469530559497
9.44,0.0403086233085613,0.232785545976697
9.4575,0.049092120779204,0.232382335764729
9.475,0.0578721302801599,0.232956648354014
9.4925,0.0679802597444206,0.233939137322871
9.51,0.0798108934495132,0.233875481420766
9.5275,0.0924573475987993,0.231477406799259
9.545,0.104301095040481,0.226586207794508
9.5625,0.114148238952016,0.220333085537611
9.58,0.122063563909888,0.214440442283994
9.5975,0.129544708968003,0.20974585862814
9.615,0.138053430809562,0.205626677562198
9.6325,0.147986678460873,0.200537347165844
9.65,0.158361472724837,0.193177534059966
9.6675,0.167517947363214,0.183467976680089
9.685,0.174314295477082,0.172620095974686
9.7025,0.178931045763711,0.162255474513316
9.72,0.18269425800227,0.153229557215475
9.7375,0.187051548825401,0.145029336418467
9.755,0.192459584424508,0.136190352785863
9.7725,0.198007998660176,0.12542557377635
9.79,0.202062443292484,0.112630565590901
9.8075,0.203455372990181,0.0990160801531244
9.825,0.202342301623753,0.0862609930679727
9.8425,0.200080461976953,0.0753061478472821
9.86,0.198206422076278,0.0656855137507164
9.8775,0.197262488657753,0.0559045600749625
9.895,0.196348370277297,0.0446031788490346
9.9125,0.193750662685748,0.0316487426690217
9.93,0.188204663378159,0.0183375739546966
9.9475,0.179858580304883,0.00652981132831163
9.965,0.170207770583842,-0.00266327495170457
9.9825,0.161016968557553,-0.0096668855801786
10,0.153007750220836,-0.0160955613198527
