"Freq [GHz]","re(S(Antenna1_1_1,Antenna1_1_1)) []","im(S(Antenna1_1_1,Antenna1_1_1)) []"
3,-0.202202030369693,-0.161712955709126
3.0175,-0.209397038423913,-0.145963430127693
3.035,-0.215344535346677,-0.130419723307835
3.0525,-0.220498611480528,-0.114913652744754
3.07,-0.224928375623673,-0.0990175240099744
3.0875,-0.228276057276616,-0.0824434444095111
3.105,-0.230031646896993,-0.0653151194059729
3.1225,-0.229902947895342,-0.0481272507380398
3.14,-0.228011703800487,-0.0314447941910418
3.1575,-0.224791012968642,-0.01557174729663
3.175,-0.220675806673447,-0.000421444976775704
3.1925,-0.215812563070367,0.014334945870797
3.21,-0.209986036938643,0.0289583943424935
3.2275,-0.202803569938998,0.043393353825907
3.245,-0.193994926159488,0.0572271191852647
3.2625,-0.183664717041422,0.0699050680337737
3.28,-0.172266405901795,0.0810750573232707
3.2975,-0.160331065293246,0.0907761388595273
3.315,-0.148144331474338,0.0993589212869836
3.3325,-0.135595810995374,0.107183199752647
3.35,-0.12231627324063,0.114301315634948
3.3675,-0.108017754614588,0.120357473667112
3.385,-0.0927983608388257,0.124791080497413
3.4025,-0.0771820955252052,0.127214302035157
3.42,-0.0618437136942445,0.127693729776541
3.4375,-0.0472019820597872,0.126716114979851
3.455,-0.0331958195616284,0.124857128255213
3.4725,-0.019323393329779,0.122321993771126
3.49,-0.00518976679862149,0.118748153208246
3.5075,0.0090882571635487,0.113507980822848
3.525,0.0228489120218739,0.106228488682072
3.5425,0.0352866414121429,0.0971471394098344
3.56,0.0459947455402276,0.0870113777427442
3.5775,0.0552266919551105,0.0765752317112556
3.595,0.0636526658389724,0.0660704827788434
3.6125,0.071777566692513,0.0550720712624833
3.63,0.0794664669480297,0.042886849736455
3.6475,0.0859632742220567,0.0291842100628825
3.665,0.0903982081745196,0.0143705445946499
3.6825,0.0924695979136762,-0.000532496077724119
3.7,0.0927580128266312,-0.0146479443330457
3.7175,0.0922082554000535,-0.0278775726797002
3.735,0.0913833077500256,-0.0408749656570986
3.7525,0.0900138116367017,-0.0544355333674919
3.77,0.0872159107936299,-0.0687622857900586
3.7875,0.0822170574631248,-0.0831946125742199
3.805,0.0750184618670687,-0.0966295302002459
3.8225,0.0664599924185634,-0.108314946731711
3.84,0.0576193624593762,-0.118388143701584
3.8575,0.0490095240808956,-0.127721043324082
3.875,0.0402118762275063,-0.13717813706263
3.8925,0.0301920312420333,-0.1468921259092
3.91,0.0183130793832703,-0.155917889115777
3.9275,0.00492067835314957,-0.163174178639269
3.945,-0.0089258141066892,-0.168211192010173
3.9625,-0.0222332173240443,-0.171515667304747
3.98,-0.034776603603902,-0.17407996309205
3.9975,-0.0471773521927682,-0.176595877372147
4.015,-0.0603167034221807,-0.178916046292088
4.0325,-0.074565617425559,-0.180195678558456
4.05,-0.0894398867569466,-0.179581786202086
4.0675,-0.103937216001123,-0.176893355145749
4.085,-0.117272081145618,-0.172761086815508
4.1025,-0.129423352003941,-0.168133981280202
4.12,-0.141074440777259,-0.163555562427621
4.1375,-0.153010754354726,-0.158778026869031
4.155,-0.165456744709565,-0.153002653463412
4.1725,-0.177865642075362,-0.145542889820485
4.19,-0.189311053361005,-0.13638876659196
4.2075,-0.199165163015315,-0.126243111167189
4.225,-0.207540057533687,-0.116014600372547
4.2425,-0.21516298645538,-0.106163747599186
4.26,-0.22279083290887,-0.0963977193522502
4.2775,-0.230610867975681,-0.085936944698592
4.295,-0.238075487033924,-0.0741467820630934
4.3125,-0.244290102980881,-0.0610612738164176
4.33,-0.248619342914705,-0.0474447419033655
4.3475,-0.251343735890586,-0.034247053971722
4.365,-0.253257472952581,-0.0218399298022522
4.3825,-0.25508924191343,-0.00986211996859181
4.4,-0.256969011038227,0.0024501134846782
4.4175,-0.258346899709744,0.0156495861266563
4.435,-0.258412752763116,0.0296312593095901
4.4525,-0.256704685208535,0.0436746204626779
4.47,-0.253459929570069,0.0569421210486535
4.4875,-0.249448016366216,0.0690672650308658
4.505,-0.245404880494207,0.0803954869054633
4.5225,-0.241485944228315,0.0916909306550541
4.54,-0.237152928367258,0.103518952047831
4.5575,-0.231593077602841,0.115767041896171
4.575,-0.224365193737066,0.12767769288668
4.5925,-0.215779396372967,0.138386185247228
4.61,-0.206703725270411,0.147562894833737
4.6275,-0.197926218915317,0.155659917994202
4.645,-0.189557485473272,0.163550845738599
4.6625,-0.180949213533547,0.171823636978165
4.68,-0.171215533059064,0.180274737168362
4.6975,-0.159966607085244,0.188017142569509
4.715,-0.147676063947939,0.194142059372153
4.7325,-0.135372131614118,0.198426672983832
4.75,-0.123872773046468,0.201521536618209
4.7675,-0.113152823515556,0.204516688370773
4.785,-0.102290496200277,0.207847631058592
4.8025,-0.0904584816811192,0.211072129510843
4.82,-0.0775202841633895,0.213247116055483
4.8375,-0.0641407183695009,0.21366706647925
4.855,-0.0512789807740797,0.212388716728408
4.8725,-0.0394812773615133,0.210149300511445
4.89,-0.0285257823149693,0.207770124394687
4.9075,-0.0176751497337405,0.20552973361914
4.925,-0.0063105538449066,0.202990551047567
4.9425,0.00556163280613012,0.199387979340452
4.96,0.0173138212523632,0.194250819308009
4.9775,0.0281794450840577,0.187761649393254
4.995,0.0378135962217626,0.180595002564787
5.0125,0.0464956107738308,0.173390035227335
5.03,0.0548405190761055,0.166286721904459
5.0475,0.0632735441229529,0.158878093089556
5.065,0.0716875027948996,0.150587129903411
5.0825,0.0795334293164459,0.141149629742424
5.1,0.0862442438047856,0.130825604611575
5.1175,0.0916434441831929,0.120197566483313
5.135,0.0960288008510779,0.109740560813738
5.1525,0.0998931376623382,0.0995079986472158
5.17,0.103522700657088,0.0891611225156518
5.1875,0.106785359729263,0.0782909627783456
5.205,0.109250438824554,0.066766712846502
5.2225,0.110521559134525,0.0548496643718642
5.24,0.110518078750879,0.0430106095769276
5.2575,0.109505384795532,0.031611888945298
5.275,0.107877187425763,0.0206958237976234
5.2925,0.105869280386907,0.0100184705410887
5.31,0.103411397623894,-0.000720298254034893
5.3275,0.100204321527683,-0.011628279233073
5.345,0.0959478257302454,-0.0225226823753189
5.3625,0.0905555321256344,-0.0330325298871674
5.38,0.0842197598271566,-0.0428192362753153
5.3975,0.077295520547997,-0.05176861745878
5.415,0.0700834882224697,-0.0600362897332799
5.4325,0.0626475925328566,-0.0679201109909256
5.45,0.0547823060004112,-0.0756352573583465
5.4675,0.0461602259432184,-0.0831299862199914
5.485,0.0365803574309024,-0.0900685457289569
5.5025,0.0261592774284573,-0.0960153978288727
5.52,0.0153192199887837,-0.10072047327837
5.5375,0.0045468781089005,-0.104311483041302
5.555,-0.00593441382924388,-0.107229866327556
5.5725,-0.0163388839088911,-0.109913659391536
5.59,-0.0271724258035677,-0.112433939435678
5.6075,-0.0388276674589019,-0.114370404199161
5.625,-0.051206228721662,-0.115069085682896
5.6425,-0.0636573721028087,-0.114101115960351
5.66,-0.0754162773338226,-0.111780741030848
5.6775,-0.0862453370456964,-0.108845466846808
5.695,-0.0965736967202867,-0.105908039091783
5.7125,-0.107140803028813,-0.102959476362282
5.73,-0.1183667231613,-0.0993536269349912
5.7475,-0.129950734711465,-0.0943151265088344
5.765,-0.141041889107691,-0.0875812581529316
5.7825,-0.150870096054146,-0.0796547548267394
5.8,-0.159337898428122,-0.0714406132303716
5.8175,-0.167082305537306,-0.0635412522210683
5.835,-0.174935802995793,-0.0557798581290766
5.8525,-0.183212222137972,-0.0473535557292676
5.87,-0.191402716522207,-0.0375082805919935
5.8875,-0.198543656478814,-0.0261911408421878
5.905,-0.203967653019953,-0.0141412358371854
5.9225,-0.207825664389903,-0.00233373251734318
5.94,-0.210947174942436,0.00877462344927357
5.9575,-0.21414635567402,0.019580698337427
5.975,-0.217539651666246,0.0309730106314481
5.9925,-0.220433735461506,0.0435667358819522
6.01,-0.221875396177265,0.05716093427085
6.0275,-0.221412761438047,0.0708597261107622
6.045,-0.219447578583659,0.0837541315680283
6.0625,-0.216897712691567,0.0956058295383774
6.08,-0.214482178432794,0.106982829236996
6.0975,-0.212063604689516,0.118782039814055
6.115,-0.208842922514395,0.131361114450357
6.1325,-0.204044502537825,0.144269187444343
6.15,-0.197539484909008,0.156607759190846
6.1675,-0.18992052671018,0.167723395171436
6.185,-0.182005372992381,0.177661537055677
6.2025,-0.174201359951651,0.187040045313213
6.22,-0.1662411428637,0.196485049406235
6.2375,-0.157467890091403,0.206105485973041
6.255,-0.147402435583275,0.215413420290006
6.2725,-0.136127663677157,0.223713930951642
6.29,-0.124209705047236,0.230621215057713
6.3075,-0.112260420290328,0.236293014514653
6.325,-0.100510467073499,0.241233234692227
6.3425,-0.0887143669134673,0.245857999842487
6.36,-0.0764211473707586,0.250176915767856
6.3775,-0.063366180665411,0.253812152860689
6.395,-0.0496817735582478,0.256298684290989
6.4125,-0.0357987267952966,0.257411143637455
6.43,-0.0221529206654665,0.257281524111806
6.4475,-0.00893075009251783,0.256257884107256
6.465,0.00398017189264817,0.254642307316936
6.4825,0.0168382220716386,0.252501925881161
6.5,0.0298271483245054,0.249659966627588
6.5175,0.0429299848266139,0.245826077433894
6.535,0.0558609143368922,0.240802233692115
6.5525,0.0682863744709551,0.234625830788896
6.57,0.0799753024097904,0.227520778337172
6.5875,0.0908906666283483,0.219773146301447
6.605,0.101174564831025,0.211581374407186
6.6225,0.111034248678568,0.20295411047079
6.64,0.120581039330912,0.19371524212235
6.6575,0.129711901344144,0.183630930676774
6.675,0.138121790076975,0.172598630238289
6.6925,0.145466505099379,0.160775498771262
6.71,0.151585437276927,0.148536001862203
6.7275,0.156622636600192,0.136256761138839
6.745,0.160930258215145,0.1240671748455
6.7625,0.164794018565658,0.111761548355697
6.78,0.168175976770682,0.0989711586429089
6.7975,0.170689333876442,0.0854943992398611
6.815,0.171859712277419,0.0715344042917632
6.8325,0.171495028687957,0.0576341865541727
6.85,0.169870493914392,0.0443243472285874
6.8675,0.167552678836262,0.0317414866846466
6.885,0.164967934051363,0.0195311309665695
6.9025,0.162046522123384,0.00714636793203982
6.92,0.158246109505551,-0.00566570109951506
6.9375,0.152972287055196,-0.0185757350013646
6.955,0.146063563223766,-0.0308040422289855
6.9725,0.1381052918212,-0.0417493199959988
6.99,0.129865784640978,-0.051463096286362
7.0075,0.121741017876324,-0.0605433010348591
7.025,0.11346697751776,-0.0696144910748677
7.0425,0.104366779477122,-0.078784118699899
7.06,0.0939374819511219,-0.0875168846830834
7.0775,0.0823019490903421,-0.0950335368902555
7.095,0.0701564558695477,-0.100913404951219
7.1125,0.0582535576977339,-0.105410919920434
7.13,0.0468397162015505,-0.109226969216507
7.1475,0.0355060295262374,-0.112920324763821
7.165,0.0235739912958928,-0.116439098910377
7.1825,0.0107009641052211,-0.119154580199091
7.2,-0.0027893767782512,-0.120368960243034
7.2175,-0.0161205968743441,-0.119881281854605
7.235,-0.0286447321902095,-0.118149929690265
7.2525,-0.0403157693167132,-0.11592173672729
7.27,-0.0516712158444158,-0.11363358190911
7.2875,-0.063341671440552,-0.111074857891479
7.305,-0.0754919517052235,-0.107581662434751
7.3225,-0.0876476487754059,-0.102598291202917
7.34,-0.0990417589129853,-0.096146398924409
7.3575,-0.109193065183324,-0.0888248564207372
7.375,-0.118246718736655,-0.0813494181268326
7.3925,-0.126840375596409,-0.0740287851620223
7.41,-0.13548737722409,-0.0664632346687168
7.4275,-0.144137002503128,-0.0580580170374337
7.445,-0.152259510701804,-0.0485051221855081
7.4625,-0.159269080827568,-0.0380291498760278
7.48,-0.164952920644491,-0.027205876923014
7.4975,-0.169578828175568,-0.0165327707398065
7.515,-0.173631640360097,-0.00610229246538121
7.5325,-0.177416443379618,0.00438572980362449
7.55,-0.18084160331874,0.0153186810599137
7.5675,-0.183523925801879,0.0268342746371073
7.585,-0.185100354264126,0.0387065700009963
7.6025,-0.185491313717736,0.0505123659683889
7.62,-0.184929129925327,0.061921497056396
7.6375,-0.183761284715196,0.0728851851442339
7.655,-0.182199114083372,0.0836016948599468
7.6725,-0.180196330137241,0.0943143608142262
7.69,-0.177523001935632,0.10510569314436
7.7075,-0.173956521447088,0.115828086139485
7.725,-0.169445668785649,0.126197572270303
7.7425,-0.164145055504395,0.13596679196054
7.76,-0.158315535204511,0.145057195584873
7.7775,-0.152168275231675,0.153573960180805
7.795,-0.145752372294467,0.161706606006815
7.8125,-0.138949861225972,0.169583136266879
7.83,-0.131568149998123,0.177168630446431
7.8475,-0.123515358116267,0.184247778066805
7.865,-0.114883460313422,0.190580557032318
7.8825,-0.105914429861319,0.196041679636282
7.9,-0.0968654818143172,0.200698571791399
7.9175,-0.0878564854334164,0.204759871711863
7.935,-0.0788074573533891,0.20842063799546
7.9525,-0.0695197849022035,0.211709454226795
7.97,-0.0598520815279506,0.214452576681211
7.9875,-0.0498637640288456,0.216391899525042
8.005,-0.0398127922165984,0.217376951408893
8.0225,-0.0299993379212963,0.217486129334081
8.04,-0.0205700391921569,0.216980288698756
8.0575,-0.011423071403625,0.216108240904927
8.075,-0.00232430264707941,0.214909799193781
8.0925,0.00687578525116506,0.213202435431987
8.11,0.0160995149338811,0.210733196753258
8.1275,0.0250739206604547,0.207386529829794
8.145,0.0335138022643109,0.203285276280919
8.1625,0.0413116452206925,0.198708131138973
8.18,0.048587548440097,0.193891576808139
8.1975,0.0555651600451831,0.188872186774819
8.215,0.0623753358717723,0.183488318493669
8.2325,0.0689401323285129,0.177532441475272
8.25,0.0750202444029975,0.170931064819857
8.2675,0.080373378641822,0.163817086767333
8.285,0.084934403438797,0.156454988545377
8.3025,0.0888201192353252,0.14904857518123
8.32,0.0922178227715101,0.1416385533176
8.3375,0.0952389838598186,0.134117586477982
8.355,0.0978418264630348,0.126344754915757
8.3725,0.0998658489894204,0.118270750882512
8.39,0.101141998886087,0.109991108789129
8.4075,0.101599928789231,0.101702379950294
8.425,0.1013068430077,0.0935985619866597
8.4425,0.100420696387399,0.0857749850585089
8.46,0.0990902848862104,0.078195891197828
8.4775,0.0973622215954336,0.0707437615163222
8.495,0.0951512946337761,0.0633229816336666
8.5125,0.092297826265189,0.0559567424391746
8.53,0.0886844617028218,0.0488121800014402
8.5475,0.084340044600623,0.0421254336408136
8.565,0.0794528291242961,0.0360641684390779
8.5825,0.0742669481470908,0.0306201403558663
8.6,0.0689216892695182,0.0256205950132525
8.6175,0.0633513017464371,0.0208702547971484
8.635,0.0573367173458602,0.0163311497782463
8.6525,0.0506916306687316,0.0121989155370277
8.67,0.0434498828439871,0.00879607061330303
8.6875,0.0358981568949478,0.00634384272207585
8.705,0.0284217292894111,0.00478372967223579
8.7225,0.0211789622941694,0.00379048234939328
8.74,0.0140231381593035,0.00308515921933556
8.7575,0.00664716416335332,0.00265470723181299
8.775,-0.00113500101674118,0.00277947252575334
8.7925,-0.00919348018006011,0.00381972825551681
8.81,-0.017138162597914,0.00592614790750273
8.8275,-0.0245888590498873,0.00890940726193858
8.845,-0.0314448706466032,0.0123814768118345
8.8625,-0.0379321780636449,0.0160599493507905
8.88,-0.0443842696611567,0.0199886177057461
8.8975,-0.050932122239629,0.024490941090342
8.915,-0.0573574880892093,0.029890527153768
8.9325,-0.0632324903208565,0.0362260028024138
8.95,-0.0682333236562445,0.0431948801040354
8.9675,-0.0723713109873138,0.0503737406545563
8.985,-0.0759518076916091,0.0575344512296962
9.0025,-0.0792955392253628,0.0647971743282538
9.02,-0.0824520142575603,0.0724961805110579
9.0375,-0.08513926614933,0.0808710479618258
9.055,-0.0869561003458753,0.0898373960770386
9.0725,-0.0876897693438466,0.0990222914362817
9.09,-0.0874678391239652,0.108030201516721
9.1075,-0.0866356558874837,0.116719001765992
9.125,-0.0854663595912824,0.125263786297932
9.1425,-0.0839436882298955,0.133978885165745
9.16,-0.0817581371358088,0.142983501047944
9.1775,-0.0786174885047476,0.152094175660812
9.195,-0.0744592721055929,0.160957500718463
9.2125,-0.069482543978397,0.169294665139153
9.23,-0.0639810483460098,0.177063952701195
9.2475,-0.0581269249266708,0.184426995160131
9.265,-0.0518743806161423,0.191568021756019
9.2825,-0.0450402015900482,0.198520870589172
9.3,-0.0374767530615911,0.205131694515137
9.3175,-0.0291961683626704,0.211164953057499
9.335,-0.020363030572984,0.216452794117622
9.3525,-0.0111835340265963,0.220973407059441
9.37,-0.00178852973279893,0.224816968321673
9.3875,0.00780835105388268,0.228086148369442
9.405,0.0176673439115782,0.230812260139111
9.4225,0.0278434246095726,0.232935987338337
9.44,0.0383283737358613,0.234345573667797
9.4575,0.049038120372224,0.234934165135529
9.475,0.0598360686516599,0.234644412913414
9.4925,0.0705738723910206,0.233489057492941
9.51,0.0811372504852132,0.231545492466166
9.5275,0.0914841084819883,0.228920740613759
9.545,0.101652202495281,0.225690633370408
9.5625,0.111714938594816,0.221841209258331
9.58,0.121702606684588,0.217252945564794
9.5975,0.131487694715293,0.21178134342134
9.615,0.140841714294162,0.205395804301698
9.6325,0.149550004651173,0.198230031247444
9.65,0.157543293494287,0.190519008060066
9.6675,0.164931823767214,0.182444421831789
9.685,0.171896005243982,0.174003856482146
9.7025,0.178504009418711,0.165018871230816
9.72,0.18460117565437,0.155295194460175
9.7375,0.189875082649301,0.144818913195767
9.755,0.194062735685808,0.133826163929563
9.7725,0.197140200023391,0.12267251158385
9.79,0.199331814565984,0.111591369921001
9.8075,0.200912917708281,0.100535247503024
9.825,0.201953567244753,0.0892425146816727
9.8425,0.202215106582353,0.0774939974718821
9.86,0.201300797473178,0.0653591036739464
9.8775,0.198954954230053,0.0532226768363625
9.895,0.195270431830897,0.0415521708583346
9.9125,0.190622631510348,0.0305811850378217
9.93,0.185365142584659,0.0201696873790966
9.9475,0.179525822399213,0.00997180000881163
9.965,0.172759178123742,-0.000207321790304575
9.9825,0.164613736976053,-0.0101511571368786
10,0.154913181424236,-0.0192922105309527
