"Freq [GHz]","re(S(Tx_p1,Tx_p1)) []","im(S(Tx_p1,Tx_p1)) []"
3,-0.0874807934,0.1835741241
3.014,-0.07327935265,0.1918441958
3.028,-0.05276623306,0.1992718222
3.042,-0.02693722079,0.1995536707
3.056,-0.001929672491,0.1893313142
3.07,0.01563765025,0.1709492301
3.084,0.02286697229,0.1501876205
3.098,0.02092233414,0.1324695402
3.112,0.01306642252,0.1210420395
3.126,0.003023639543,0.1169699146
3.14,-0.00600540815,0.1195483538
3.154,-0.01207668738,0.1271152868
3.168,-0.01431827429,0.1382153507
3.182,-0.01181810851,0.1517841266
3.196,-0.003384504046,0.1659790815
3.21,0.01092284472,0.1777183792
3.224,0.02859447542,0.184473165
3.238,0.04606881599,0.1864859879
3.252,0.06159188335,0.186563284
3.266,0.07654645288,0.1875466035
3.28,0.09435111708,0.1899081394
3.294,0.1182223255,0.190817981
3.308,0.1486321671,0.184645495
3.322,0.1810236517,0.1654963497
3.336,0.2061124994,0.1318992495
3.35,0.2148865055,0.09029537149
3.364,0.2055160334,0.05261293618
3.378,0.1854573033,0.02838374243
3.392,0.1658142124,0.01840846874
3.406,0.1531584894,0.01604988896
3.42,0.1465361966,0.01429803267
3.434,0.1414972816,0.01131875113
3.448,0.1361429762,0.00982219124
3.462,0.1333279357,0.01194088225
3.476,0.1373094343,0.01485849373
3.49,0.1478523587,0.01155372542
3.504,0.1574086961,-0.002967965958
3.518,0.1555544869,-0.02491788409
3.532,0.1384732385,-0.04182927631
3.546,0.1146944419,-0.04172425187
3.56,0.1000249646,-0.02381409886
3.574,0.1052887988,-3.443336962E-05
3.588,0.1285629807,0.01440797847
3.602,0.1588710086,0.01187356287
3.616,0.1860843889,-0.00561485763
3.63,0.2064566902,-0.03282061965
3.644,0.2197434203,-0.06764246452
3.658,0.2231865713,-0.1106944826
3.672,0.2098882598,-0.1595004419
3.686,0.1740277922,-0.2039931514
3.7,0.1187623427,-0.2290195315
3.714,0.05928918149,-0.2238139031
3.728,0.01613311026,-0.1915331455
3.742,0.002010333279,-0.1496675188
3.756,0.01312535813,-0.1189032839
3.77,0.03336214624,-0.1093093571
3.784,0.04765809102,-0.116292583
3.798,0.05164732451,-0.1290744764
3.812,0.0493152715,-0.141744598
3.826,0.0435361144,-0.1556333042
3.84,0.03086694279,-0.1723897728
3.854,0.005815120892,-0.1868437607
3.868,-0.03052786159,-0.1878287906
3.882,-0.06648306194,-0.1667507453
3.896,-0.08503333988,-0.1266061341
3.91,-0.07518777798,-0.0833957852
3.924,-0.04076710048,-0.05743799302
3.938,0.001091469975,-0.06051740922
3.952,0.03111312382,-0.08929822012
3.966,0.03914055599,-0.1302827831
3.98,0.02598212255,-0.1705311295
3.994,-0.003426420928,-0.2033280399
4.008,-0.04601398729,-0.2250502971
4.022,-0.09904229638,-0.2300133897
4.036,-0.1546180663,-0.2114100595
4.05,-0.1986358429,-0.1680698358
4.064,-0.2172008206,-0.109578067
4.078,-0.2055467074,-0.05381126944
4.092,-0.1720879586,-0.0178929022
4.106,-0.1341582708,-0.008841913657
4.12,-0.1080537382,-0.02051746793
4.134,-0.1003597358,-0.03916694916
4.148,-0.1070300575,-0.05321445337
4.162,-0.1202658558,-0.05903255348
4.176,-0.1358837084,-0.05826289754
4.19,-0.1537692037,-0.05111011787
4.204,-0.1722114138,-0.03409489719
4.218,-0.1840030233,-0.004935610506
4.232,-0.1797683409,0.03138200386
4.246,-0.1555918707,0.06249583979
4.26,-0.1177686971,0.075193033
4.274,-0.08080375065,0.06336811229
4.288,-0.06030030936,0.03203250783
4.302,-0.06511384813,-0.004751207201
4.316,-0.09312501356,-0.03077847558
4.33,-0.1331192732,-0.03546207694
4.344,-0.1713611626,-0.01752173849
4.358,-0.1977993413,0.01724852996
4.372,-0.2077542989,0.06081908607
4.386,-0.2000831441,0.1056224769
4.4,-0.1759023199,0.1443979457
4.414,-0.1393474223,0.1702784827
4.428,-0.09798684091,0.1788567299
4.442,-0.06091766255,0.1703712434
4.456,-0.03570688897,0.1498326933
4.47,-0.02614814983,0.1253667761
4.484,-0.0311529897,0.1059072853
4.498,-0.04472352351,0.09832614405
4.512,-0.05798473718,0.1045018148
4.526,-0.06326654261,0.1205423044
4.54,-0.05745770435,0.1394989349
4.554,-0.04185939638,0.1552958821
4.568,-0.01956091366,0.1643137426
4.582,0.006158982577,0.1643204241
4.596,0.03115730462,0.1536661778
4.61,0.04967383601,0.1325358751
4.624,0.05563908735,0.1048386669
4.638,0.04561417355,0.07847593993
4.652,0.02156167371,0.06323438691
4.666,-0.008171887507,0.06677890099
4.68,-0.03109747488,0.09015498835
4.694,-0.03629582434,0.1257867643
4.708,-0.02048810237,0.1608152425
4.722,0.01069369559,0.1843712685
4.736,0.0477607575,0.1927906283
4.75,0.08381095016,0.1883549695
4.764,0.1162024588,0.1740909944
4.778,0.1432591419,0.15100218
4.792,0.1613898844,0.1201778895
4.806,0.1665235591,0.0860534224
4.82,0.15809283,0.05624712041
4.834,0.1411368911,0.03766242348
4.848,0.1243055427,0.03218422298
4.862,0.1150584485,0.03537390867
4.876,0.1153638808,0.03937122966
4.89,0.1212163422,0.0382507997
4.904,0.1267637144,0.03161922209
4.918,0.1294950074,0.02301870268
4.932,0.1311689665,0.01473265306
4.946,0.1334816435,0.004973025628
4.96,0.1338463351,-0.008966691147
4.974,0.1269442979,-0.02528647827
4.988,0.1108336526,-0.03683450723
5.002,0.09079075565,-0.03652331112
5.016,0.07651486071,-0.02363727881
5.03,0.07534877475,-0.004983220254
5.044,0.08757300655,0.009737864506
5.058,0.107157657,0.01405265887
5.072,0.1266356534,0.007653505165
5.086,0.1419660094,-0.005566756137
5.1,0.1535205916,-0.02228497776
5.114,0.1625774144,-0.04275451475
5.128,0.1671621075,-0.06886018275
5.142,0.1622822731,-0.09926168922
5.156,0.1449400868,-0.1275016035
5.17,0.1183895044,-0.1460413308
5.184,0.09047549935,-0.1522007693
5.198,0.06767399336,-0.1495678764
5.212,0.05124290436,-0.1437736851
5.226,0.03890885894,-0.1377541836
5.24,0.02908578308,-0.1312861249
5.254,0.02260946705,-0.1241261778
5.268,0.02060928631,-0.118484884
5.282,0.02133034004,-0.117964225
5.296,0.01955317051,-0.1238262113
5.31,0.009960380201,-0.1320998244
5.324,-0.007789889002,-0.1349608921
5.338,-0.02702627281,-0.1265230973
5.352,-0.03820119947,-0.1084354572
5.366,-0.03646914584,-0.089463513
5.38,-0.02554109162,-0.07857172915
5.394,-0.01376508198,-0.07807036939
5.408,-0.006583728297,-0.08362824029
5.422,-0.003280087454,-0.09043915993
5.436,-0.0007268428282,-0.09835928544
5.45,0.0008393214294,-0.1107561899
5.464,-0.003565294439,-0.1290185409
5.478,-0.01947234063,-0.1487521147
5.492,-0.04737510598,-0.1614049877
5.506,-0.08081916853,-0.1600031498
5.52,-0.1100468311,-0.1442815509
5.534,-0.1284947251,-0.1207644798
5.548,-0.1365898415,-0.09739434571
5.562,-0.1392322783,-0.07756639291
5.576,-0.1396084144,-0.05953974938
5.59,-0.1362488951,-0.04158755356
5.604,-0.1267082776,-0.02650809381
5.618,-0.1132502363,-0.01968749531
5.632,-0.1032632519,-0.02270175184
5.646,-0.1033187105,-0.02994196966
5.66,-0.1131199812,-0.03230004119
5.674,-0.1254557732,-0.0242429119
5.688,-0.1318256633,-0.007651927414
5.702,-0.1284323565,0.01035641899
5.716,-0.1178792974,0.02305999526
5.73,-0.1059448978,0.02847363398
5.744,-0.09657893674,0.02918733428
5.758,-0.08960936348,0.02827737269
5.772,-0.08327809491,0.02557821052
5.786,-0.07872060649,0.01860016585
5.8,-0.08083835172,0.007391549842
5.814,-0.09372537691,-0.002378652133
5.828,-0.1153553157,-0.002381176063
5.842,-0.1375217527,0.01195777297
5.856,-0.1512132154,0.03804558191
5.87,-0.1519962659,0.06850724549
5.884,-0.1410300438,0.09612852751
5.898,-0.1224462744,0.1168748642
5.912,-0.1004092412,0.1298261244
5.926,-0.07779137662,0.1356005409
5.94,-0.05645744238,0.1349369283
5.954,-0.0383580641,0.1284142952
5.968,-0.02606601312,0.1175626659
5.982,-0.02146392137,0.1060831688
5.996,-0.0233474132,0.09893827892
6.01,-0.02687831062,0.09908691218
6.024,-0.02648062333,0.1049394174
6.038,-0.01976438515,0.1114977345
6.052,-0.008674584152,0.1141461611
6.066,0.002724134125,0.1113730661
6.08,0.01106603491,0.1046127752
6.094,0.01492024138,0.09661095639
6.108,0.01471937525,0.09002869235
6.122,0.01217596773,0.08647998816
6.136,0.009146937409,0.08605742241
6.15,0.006415735454,0.08806307595
6.164,0.003873587467,0.0925985533
6.178,0.002328360565,0.1009667113
6.192,0.004710435781,0.1137972438
6.206,0.01465967338,0.1288089405
6.22,0.03355975685,0.1409266769
6.234,0.05887635242,0.1448955964
6.248,0.0850943928,0.1381708238
6.262,0.1063112717,0.1222310145
6.276,0.1190381208,0.101854698
6.29,0.1239055825,0.08252529504
6.304,0.1248273516,0.06706615415
6.318,0.1254717454,0.05415206615
6.332,0.1259106137,0.04067912537
6.346,0.1231550286,0.02602333576
6.36,0.1153634543,0.01345324821
6.374,0.1049915104,0.00680867962
6.388,0.09710974516,0.006117844948
6.402,0.0946800487,0.007101189828
6.416,0.09586195968,0.005037872748
6.43,0.09589766371,-0.001047986742
6.444,0.09149533822,-0.007717410049
6.458,0.08379048655,-0.01025064348
6.472,0.07752973352,-0.006853358129
6.486,0.07708655876,-0.0004595807672
6.5,0.0825982193,0.003669997747
6.514,0.08999744854,0.002705052435
6.528,0.09536408018,-0.001382841818
6.542,0.0991471983,-0.004749365816
6.556,0.105259816,-0.006930698452
6.57,0.1157004133,-0.01223694789
6.584,0.1268787582,-0.02526003527
6.598,0.1321295581,-0.04540269483
6.612,0.127850903,-0.06655224316
6.626,0.1168089834,-0.08226728716
6.64,0.1054524398,-0.09119670749
6.654,0.09804230356,-0.09772873287
6.668,0.09289642372,-0.1075568399
6.682,0.08389904571,-0.122041194
6.696,0.0661554756,-0.1361648913
6.71,0.0411030263,-0.142222068
6.724,0.01622418912,-0.1364311463
6.738,-0.0009106717938,-0.1223217146
6.752,-0.008644546562,-0.1073097301
6.766,-0.01114371344,-0.09594591165
6.78,-0.01263219522,-0.08708902354
6.794,-0.0127176794,-0.07772121476
6.808,-0.007993943562,-0.06845607923
6.822,0.002375740581,-0.06420213456
6.836,0.01366772765,-0.06934288877
6.85,0.01847984879,-0.08271290336
6.864,0.01262960483,-0.09739956303
6.878,-0.001287714641,-0.1055525044
6.892,-0.01569016378,-0.1041702916
6.906,-0.02379975187,-0.09715429636
6.92,-0.02476568937,-0.09177712892
6.934,-0.02361583747,-0.0924401871
6.948,-0.02600045367,-0.0974663315
6.962,-0.03299916357,-0.1020194856
6.976,-0.04139016093,-0.1037844998
6.99,-0.04869660106,-0.1049705836
7.004,-0.05690602114,-0.1085790371
7.018,-0.07059072398,-0.113533228
7.032,-0.0917214754,-0.1141846926
7.046,-0.1166802139,-0.1044822974
7.06,-0.1379455441,-0.08258222894
7.074,-0.148419708,-0.05229515037
7.088,-0.1450861083,-0.02106521643
7.102,-0.1300914121,0.003724173917
7.116,-0.1090489905,0.01790055355
7.13,-0.08788833268,0.02132417697
7.144,-0.07064858535,0.01624164878
7.158,-0.05965999706,0.005266373159
7.172,-0.05677665652,-0.008805981406
7.186,-0.06314962093,-0.0219028797
7.2,-0.07740175274,-0.02890764269
7.214,-0.09477589218,-0.02609556892
7.228,-0.1089501766,-0.01354191065
7.242,-0.1150969034,0.004834264507
7.256,-0.1117754095,0.0232806054
7.27,-0.1010500896,0.03651301305
7.284,-0.08755176626,0.04147435799
7.298,-0.07675887209,0.03844904415
7.312,-0.07271242365,0.03089085403
7.326,-0.07646880119,0.02359163032
7.34,-0.08650297542,0.02053698199
7.354,-0.1001867263,0.02426181491
7.368,-0.1143428057,0.03643451892
7.382,-0.124674245,0.05772641526
7.396,-0.125930487,0.08638256288
7.41,-0.1138654373,0.1172122036
7.424,-0.08772309846,0.142578616
7.438,-0.05145832018,0.1549954302
7.452,-0.01313509381,0.1500375428
7.466,0.01738732179,0.1286446892
7.48,0.03225116228,0.09770439223
7.494,0.02937574761,0.0676022121
7.508,0.01337432416,0.047351338
7.522,-0.007585517659,0.04070394777
7.536,-0.02632556335,0.04622551362
7.55,-0.03871505309,0.06030228715
7.564,-0.04261051892,0.07937049858
7.578,-0.03652820712,0.09962438238
7.592,-0.0202985736,0.1160462477
7.606,0.00320209139,0.1231665991
7.62,0.02757232284,0.1176215724
7.634,0.04476897523,0.1007009781
7.648,0.04874763171,0.07900846545
7.662,0.0390833731,0.06215158512
7.676,0.02204903957,0.05794072898
7.69,0.007505713406,0.06794438642
7.704,0.00329469568,0.08702924357
7.718,0.01163200001,0.1073826764
7.732,0.03022900598,0.123101036
7.746,0.05583632947,0.1312217243
7.76,0.08577670496,0.1296476222
7.774,0.1163905891,0.1159241147
7.788,0.1415005552,0.08902857767
7.802,0.1538011538,0.05216069824
7.816,0.1485604939,0.01328663706
7.83,0.1267731907,-0.01753709434
7.844,0.09553650989,-0.03253146929
7.858,0.06520845198,-0.02979930342
7.872,0.04469622382,-0.01396309622
7.886,0.03774888417,0.006821060644
7.9,0.04285748015,0.02532328254
7.914,0.05626336907,0.03752800806
7.928,0.07450005972,0.04150910387
7.942,0.09398489311,0.03568185188
7.956,0.10946857,0.01961466085
7.97,0.1149366231,-0.003408432629
7.984,0.1073258548,-0.02587629158
7.998,0.08952912528,-0.03938172194
8.012,0.06955856927,-0.0393766838
8.026,0.05641347836,-0.02765029498
8.04,0.05566943024,-0.01111169777
8.054,0.0673467663,0.001870678315
8.068,0.08682712139,0.005226689141
8.082,0.1078004164,-0.003065445402
8.096,0.1249251399,-0.02187756394
8.11,0.1343165456,-0.04881671021
8.124,0.1325898774,-0.08060806377
8.138,0.1171648113,-0.1118662221
8.152,0.08874339251,-0.1350816774
8.166,0.05317285767,-0.1437485378
8.18,0.01956687234,-0.1364015846
8.194,-0.004385176266,-0.117501815
8.208,-0.01576165756,-0.09432040288
8.222,-0.01597893303,-0.07304773659
8.236,-0.008235509152,-0.05730203878
8.25,0.004211307575,-0.04893144701
8.264,0.0180351034,-0.04897242557
8.278,0.02928285629,-0.05743849356
8.292,0.03366443408,-0.07226406663
8.306,0.0282002575,-0.08863963063
8.32,0.01350376345,-0.1001046633
8.334,-0.00530128858,-0.1017235102
8.348,-0.02081946641,-0.09338201639
8.362,-0.02780375756,-0.08006246356
8.376,-0.02603559128,-0.06835252427
8.39,-0.01913619239,-0.06238886192
8.404,-0.01113016501,-0.06291408086
8.418,-0.004656689898,-0.06924319741
8.432,-0.001919830965,-0.08075685803
8.446,-0.005809543139,-0.09603647858
8.46,-0.01887236968,-0.111365513
8.474,-0.04096679889,-0.1211487116
8.488,-0.06809690799,-0.1204460949
8.502,-0.09367376842,-0.1077161426
8.516,-0.1114968604,-0.08585300581
8.53,-0.118694067,-0.06073316332
8.544,-0.1166574193,-0.03796609469
8.558,-0.1090654135,-0.02014380349
8.572,-0.09864095982,-0.007012381256
8.586,-0.08598499083,0.001747590518
8.6,-0.07174527755,0.004612132959
8.614,-0.05920113119,-0.0001131756136
8.628,-0.05344049023,-0.01082893783
8.642,-0.05734172318,-0.02178977218
8.656,-0.06856582864,-0.0264630813
8.67,-0.08076311691,-0.02202726063
8.684,-0.0878273713,-0.0109834237
8.698,-0.08754121627,0.001046288354
8.712,-0.08218362487,0.009170141898
8.726,-0.0762335216,0.01196197042
8.74,-0.073054445,0.01146124457
8.754,-0.07303376641,0.01068680356
8.768,-0.07463759406,0.01093009136
8.782,-0.0771314649,0.01152711387
8.796,-0.08173582092,0.01225770703
8.81,-0.08965388129,0.01529888304
8.824,-0.09930985589,0.0239863516
8.838,-0.1063045013,0.03954070265
8.852,-0.1063596735,0.05941974395
8.866,-0.09814289981,0.07891518515
8.88,-0.08348174036,0.09402668436
8.894,-0.06557207829,0.1029914536
8.908,-0.04722295376,0.105958209
8.922,-0.03019122273,0.1038717306
8.936,-0.01551032824,0.09754906501
8.95,-0.004335725893,0.08753845779
8.964,0.001599715082,0.07499066081
8.978,0.0009056680563,0.06268183046
8.992,-0.00562398786,0.05451210386
9.006,-0.01438415494,0.05317116304
9.02,-0.02084764244,0.05812362212
9.034,-0.02236692911,0.0661402549
9.048,-0.01916440019,0.07376473456
9.062,-0.01304406351,0.07911608964
9.076,-0.005784279398,0.08179968165
9.09,0.001322283899,0.08206931045
9.104,0.007275271802,0.08050780721
9.118,0.01140366623,0.07805943339
9.132,0.01352922717,0.07588068354
9.146,0.01397163187,0.07518487897
9.16,0.01371494365,0.07718931184
9.174,0.01474324545,0.08260790162
9.188,0.01966382137,0.09062004589
9.202,0.03023840216,0.09848363248
9.216,0.04603823199,0.1026780998
9.23,0.0645871782,0.1006637754
9.244,0.08262160765,0.09170194699
9.258,0.09709617973,0.07660922525
9.272,0.1056107107,0.05742266652
9.286,0.1069267357,0.03717096451
9.3,0.1015160244,0.01911223197
9.314,0.09129755045,0.005622617254
9.328,0.07865694602,-0.002184048649
9.342,0.06595004603,-0.003995728342
9.356,0.05577785171,-0.0002364111202
9.37,0.05072553458,0.007168883438
9.384,0.05186641364,0.01464667928
9.398,0.05752916567,0.01863868068
9.412,0.06415752852,0.01786386526
9.426,0.06877523698,0.0138753182
9.44,0.07076386789,0.009410170333
9.454,0.07158627265,0.006213884449
9.468,0.07311452886,0.004073975625
9.482,0.07600944257,0.001450805197
9.496,0.07922580531,-0.002912544074
9.51,0.08109836244,-0.008575440686
9.524,0.08135016714,-0.01360938026
9.538,0.08201253382,-0.01677609192
9.552,0.08566681284,-0.01968355573
9.566,0.09228828389,-0.0261733302
9.58,0.09812758848,-0.03891125865
9.594,0.0982447637,-0.05652492122
9.608,0.09031024957,-0.07427232155
9.622,0.0760275955,-0.08742881782
9.636,0.05933149387,-0.0940393605
9.65,0.04361274374,-0.0950164724
9.664,0.030335292,-0.0923872433
9.678,0.01950551443,-0.08760036657
9.692,0.01102387575,-0.0810849471
9.706,0.005595578057,-0.07314334904
9.72,0.004214790548,-0.06520538443
9.734,0.006508387778,-0.05982427267
9.748,0.009851686494,-0.05878084441
9.762,0.01092952958,-0.06106231734
9.776,0.008647638464,-0.06334423816
9.79,0.005190021701,-0.06303632365
9.804,0.003764890294,-0.06075834241
9.818,0.005374538356,-0.05954938127
9.832,0.007991079998,-0.06180022918
9.846,0.008652847418,-0.06720111744
9.86,0.006010776829,-0.07344133003
9.874,0.0009785711615,-0.07846939651
9.888,-0.004673429404,-0.08209051583
9.902,-0.01032400188,-0.08568314378
9.916,-0.01738261475,-0.0903163145
9.93,-0.02805608727,-0.09482251352
9.944,-0.04273241386,-0.09584999472
9.958,-0.05848692084,-0.09046110564
9.972,-0.07071350835,-0.07905054129
9.986,-0.07669373159,-0.06544772482
10,-0.07753493385,-0.05386226941
