"Freq [GHz]","re(S(Tx_p1,Tx_p1)) []","im(S(Tx_p1,Tx_p1)) []"
3,-0.07514059751,0.1487229139
3.014,-0.06693794495,0.1551361197
3.028,-0.05278477591,0.1579160169
3.042,-0.03877116155,0.1523747322
3.056,-0.032626892,0.1414117647
3.07,-0.03635143725,0.1333508766
3.084,-0.04454467474,0.1346414035
3.098,-0.04946642756,0.1451756837
3.112,-0.04674911524,0.1599509325
3.126,-0.03676170569,0.1736565266
3.14,-0.0224110808,0.1835105046
3.154,-0.006585174663,0.1893830021
3.168,0.009307999506,0.192569556
3.182,0.02556384545,0.194078908
3.196,0.04286394817,0.1933569195
3.21,0.06034413986,0.1889775858
3.224,0.0755226477,0.1809864511
3.238,0.08675665921,0.1719308025
3.252,0.09529688293,0.1648249795
3.266,0.104287941,0.1604325592
3.28,0.1162039414,0.1569867179
3.294,0.1317749395,0.1517467197
3.308,0.1503003095,0.1417771615
3.322,0.1691438637,0.1241044442
3.336,0.1829226709,0.09752617729
3.35,0.1853531476,0.06544805448
3.364,0.1737628585,0.03584784437
3.378,0.1518943566,0.01691996133
3.392,0.1278376712,0.01220521369
3.406,0.109287369,0.01953736103
3.42,0.1004798377,0.03362371506
3.434,0.1021872283,0.04899625189
3.448,0.1131227625,0.06138491521
3.462,0.1311790226,0.06771271114
3.476,0.1537898584,0.0653945685
3.49,0.1770317751,0.05205134975
3.504,0.1945815893,0.02718509997
3.518,0.1993633266,-0.004793023617
3.532,0.1885819202,-0.03419546507
3.546,0.1676642713,-0.05120130479
3.56,0.1477910066,-0.05291958562
3.574,0.138244447,-0.04526925142
3.588,0.1408962646,-0.0377330005
3.602,0.1515938637,-0.03677349398
3.616,0.1653136713,-0.04417492082
3.63,0.1788746095,-0.05995278478
3.644,0.1894190496,-0.08481639718
3.658,0.1919490985,-0.1190681174
3.672,0.1796213343,-0.1592748069
3.686,0.1475985117,-0.1962073645
3.7,0.09828126709,-0.2169477671
3.714,0.0436757026,-0.2115881692
3.728,0.00111327976,-0.1806661356
3.742,-0.01640461739,-0.1367441817
3.756,-0.007843809419,-0.09730396107
3.77,0.01704146539,-0.07450053936
3.784,0.04597365002,-0.07072621581
3.798,0.07091635394,-0.08242821568
3.812,0.08787628892,-0.1059033597
3.826,0.09298189827,-0.1383432987
3.84,0.08139848805,-0.1745725676
3.854,0.05088840117,-0.2050089728
3.868,0.006169713157,-0.2183891378
3.882,-0.04047000809,-0.2078271721
3.896,-0.07379664322,-0.1759913555
3.91,-0.08337037122,-0.1353899745
3.924,-0.06953998047,-0.102431766
3.938,-0.04290927557,-0.08862516854
3.952,-0.01730056247,-0.09555830487
3.966,-0.002366180643,-0.1173160142
3.98,-0.002026072515,-0.1465189707
3.994,-0.01782111961,-0.1770353005
4.008,-0.05077567615,-0.2018539121
4.022,-0.09854998042,-0.2114353643
4.036,-0.1518744878,-0.1970807979
4.05,-0.1958561934,-0.1571354044
4.064,-0.2164607743,-0.1001668069
4.078,-0.2075402034,-0.04218412267
4.092,-0.1739108964,0.0002595472602
4.106,-0.1290233869,0.01712760678
4.12,-0.08860843788,0.008478074704
4.134,-0.06392285278,-0.01734767004
4.148,-0.05884374225,-0.04931810589
4.162,-0.07193596287,-0.07835394548
4.176,-0.0998162976,-0.09777027747
4.19,-0.1375413479,-0.1016020304
4.204,-0.1767088939,-0.08536569344
4.218,-0.2058628989,-0.04976152897
4.232,-0.2150513066,-0.00293328008
4.246,-0.2010443258,0.04202965407
4.26,-0.1689719118,0.07263872208
4.274,-0.1299670623,0.08171996175
4.288,-0.09703123913,0.06951736267
4.302,-0.08072078326,0.04338025328
4.316,-0.08557055935,0.01515566141
4.33,-0.1087605258,-0.003188790419
4.344,-0.1418516555,-0.00357626454
4.358,-0.1740546908,0.01650900057
4.372,-0.1948895829,0.05420143206
4.386,-0.1962395711,0.1017388178
4.4,-0.1748877975,0.1476223636
4.414,-0.1345783097,0.1798964224
4.428,-0.08519817375,0.1906680401
4.442,-0.0389711055,0.178784572
4.456,-0.006453625637,0.1493172975
4.47,0.005763352481,0.1115759019
4.484,-0.003544930596,0.07708597692
4.498,-0.02917841182,0.05669070446
4.512,-0.06053644661,0.05648856305
4.526,-0.0858494547,0.07521841794
4.54,-0.09709929694,0.1056932977
4.554,-0.09192001643,0.1389840835
4.568,-0.0721185326,0.1676098083
4.582,-0.04163550117,0.1861749538
4.596,-0.005855112849,0.1910763751
4.61,0.02845964007,0.1809515112
4.624,0.05389599032,0.1577012151
4.638,0.06410337647,0.1272387287
4.652,0.05642672372,0.09919683709
4.666,0.03472833721,0.08437379329
4.68,0.009862237294,0.0895748931
4.694,-0.004649097354,0.1128011757
4.708,2.110507258E-05,0.1435070298
4.722,0.02349306686,0.1687784087
4.736,0.05828234692,0.180237649
4.75,0.09560226717,0.1760274742
4.764,0.1290117648,0.1580461604
4.778,0.1540132984,0.129132175
4.792,0.166642421,0.09304934899
4.806,0.1640248654,0.05570336441
4.82,0.1464921846,0.02486415876
4.834,0.1190393401,0.007765519452
4.848,0.09058552856,0.007817912345
4.862,0.07073005741,0.02234714179
4.876,0.06526830614,0.04337250178
4.89,0.07357643044,0.06186246663
4.904,0.0904596501,0.07248612558
4.918,0.1108384704,0.07453245576
4.932,0.1322187976,0.06859695054
4.946,0.1525305328,0.05378307134
4.96,0.1670531471,0.02944556057
4.974,0.1695800871,-0.0007402348248
4.988,0.1575265635,-0.02809877349
5.002,0.1355404379,-0.04359599739
5.016,0.1136242563,-0.04378668353
5.03,0.1012992893,-0.03297220975
5.044,0.1024104118,-0.02028565075
5.058,0.1138905944,-0.01423507886
5.072,0.1287806798,-0.0184318034
5.086,0.1410746708,-0.03121930064
5.1,0.1485214652,-0.04908801199
5.114,0.1511251848,-0.0702898738
5.128,0.1476115996,-0.09464911139
5.142,0.1347686637,-0.1200259201
5.156,0.1111424479,-0.1404601908
5.17,0.08068736216,-0.149340771
5.184,0.05148202432,-0.144591915
5.198,0.03047936472,-0.1301502596
5.212,0.01981203512,-0.1124446098
5.226,0.01778699199,-0.09614191484
5.24,0.02221237964,-0.08324350737
5.254,0.03201414395,-0.07514593428
5.268,0.0459238162,-0.0744282948
5.282,0.06018068751,-0.08406905243
5.296,0.06803702447,-0.1043888716
5.31,0.06264594083,-0.1302271422
5.324,0.04214007131,-0.1516653359
5.338,0.01268518356,-0.1594482824
5.352,-0.01442316991,-0.1514965946
5.366,-0.03028809023,-0.1344289967
5.38,-0.03396791562,-0.1181399793
5.394,-0.03102256235,-0.1085865379
5.408,-0.02735584267,-0.1055748077
5.422,-0.02510164166,-0.1064070537
5.436,-0.02389528772,-0.1101665305
5.45,-0.02458559989,-0.1180087288
5.464,-0.03066269702,-0.1300507891
5.478,-0.04598715034,-0.1426993911
5.492,-0.07102792285,-0.1492152837
5.506,-0.1008788871,-0.1434154351
5.52,-0.1270723959,-0.1239257928
5.534,-0.1423789753,-0.0954914014
5.548,-0.1448236386,-0.06580962261
5.562,-0.1372795083,-0.04062625335
5.576,-0.123474627,-0.02193685282
5.59,-0.1053736544,-0.01055437387
5.604,-0.08498236995,-0.008795716121
5.618,-0.06754835129,-0.01890576024
5.632,-0.06088115846,-0.03863564074
5.646,-0.07019351714,-0.05955363707
5.66,-0.09337197794,-0.07090735234
5.674,-0.1212840565,-0.06601911863
5.688,-0.1428850863,-0.04609309116
5.702,-0.1512339184,-0.0189825258
5.716,-0.1465346616,0.005815559859
5.73,-0.1345476651,0.02251815192
5.744,-0.1217162741,0.03111815558
5.758,-0.1110197077,0.03479833601
5.772,-0.1021603482,0.03554981453
5.786,-0.09525346984,0.03279892588
5.8,-0.09315015576,0.02637869104
5.814,-0.09920815103,0.01981766869
5.828,-0.1130368002,0.01948344093
5.842,-0.1291727583,0.03019416551
5.856,-0.1400099374,0.05177733096
5.87,-0.1399112489,0.07929897713
5.884,-0.1274175447,0.1057680351
5.898,-0.1051589224,0.1249958636
5.912,-0.07836646233,0.1335472938
5.926,-0.05268426223,0.1313692256
5.94,-0.03232497001,0.1208406185
5.954,-0.01975581278,0.1051815294
5.968,-0.01645488024,0.0879695959
5.982,-0.02272800153,0.07379001721
5.996,-0.03610870549,0.06781805304
6.01,-0.05069490484,0.07323606589
6.024,-0.05939907806,0.08869205612
6.038,-0.05762897265,0.1086295443
6.052,-0.04526065724,0.1262283237
6.066,-0.02596967014,0.1363705554
6.08,-0.005318005408,0.1371820007
6.094,0.01140515275,0.1304092972
6.108,0.02145592576,0.1205260962
6.122,0.02587726759,0.1121170092
6.136,0.02803896653,0.1069984858
6.15,0.03031610009,0.1039500463
6.164,0.03240625468,0.1015052684
6.178,0.03320261305,0.1004823402
6.192,0.03381762435,0.1031386356
6.206,0.03801210521,0.1099346351
6.22,0.04939633669,0.1175238321
6.234,0.06804366083,0.1200172559
6.248,0.0892860136,0.1125840934
6.262,0.1057170441,0.09501044616
6.276,0.1115992221,0.07271702843
6.29,0.1069205218,0.05373954863
6.304,0.0974560188,0.04317020039
6.318,0.08992017294,0.03979646355
6.332,0.08648657502,0.03857092195
6.346,0.08440242486,0.03652342738
6.36,0.08102142155,0.0355452567
6.374,0.07825873534,0.03894569678
6.388,0.08117786003,0.04598595263
6.402,0.09230763083,0.05083340761
6.416,0.1079695851,0.04723945085
6.43,0.1204838776,0.034216566
6.444,0.1242416605,0.01730866073
6.458,0.1202892036,0.004230795433
6.472,0.1153712265,-0.001572440958
6.486,0.1158292546,-0.003909200262
6.5,0.1214648575,-0.01017028482
6.514,0.1254655079,-0.02377811335
6.528,0.1212543248,-0.04013332188
6.542,0.1096880466,-0.05082447748
6.556,0.09878763745,-0.05226939318
6.57,0.09584113841,-0.04968323484
6.584,0.1000831144,-0.05203428055
6.598,0.1035047765,-0.06328750476
6.612,0.09863212587,-0.07882628631
6.626,0.08531474628,-0.09011378545
6.64,0.07033705795,-0.09256258788
6.654,0.06082912142,-0.08925516557
6.668,0.057767517,-0.08748574187
6.682,0.05543136759,-0.09147613939
6.696,0.04739723506,-0.09804051819
6.71,0.0335232595,-0.0996050459
6.724,0.02085479992,-0.09203204229
6.738,0.01705499319,-0.07939255033
6.752,0.02293351828,-0.07047101425
6.766,0.03195610461,-0.07059157223
6.78,0.03700239444,-0.0774900493
6.794,0.03675476052,-0.0852057668
6.808,0.03508776078,-0.09102162719
6.822,0.03498511033,-0.09775417434
6.836,0.03404786253,-0.1094954019
6.85,0.02617024055,-0.125763612
6.864,0.007521947567,-0.139999003
6.878,-0.01877680474,-0.1439297283
6.892,-0.04361558278,-0.1342210007
6.906,-0.05816601252,-0.1157341143
6.92,-0.06043671682,-0.09817437316
6.934,-0.05623661695,-0.08865068197
6.948,-0.05352552741,-0.08687696353
6.962,-0.05570798394,-0.08742038023
6.976,-0.06045144993,-0.08613098821
6.99,-0.06441251348,-0.08370516289
7.004,-0.06795613207,-0.08314097022
7.018,-0.07479047635,-0.08477843927
7.032,-0.08754100556,-0.08454533347
7.046,-0.1041299506,-0.07687083901
7.06,-0.1181388535,-0.05923616629
7.074,-0.1225445541,-0.03471616355
7.088,-0.1141343845,-0.01088647759
7.102,-0.09575265056,0.004246699853
7.116,-0.07473805115,0.006710140597
7.13,-0.05857529946,-0.001812894275
7.144,-0.05129180936,-0.01625283323
7.158,-0.05333248223,-0.03169301422
7.172,-0.0637691673,-0.04468430089
7.186,-0.08144095042,-0.05210500248
7.2,-0.1038452377,-0.05043646678
7.214,-0.1259886996,-0.03723786397
7.228,-0.1413838322,-0.01337604502
7.242,-0.1446963331,0.01628838334
7.256,-0.1341837328,0.04424837145
7.27,-0.11288002,0.06293064896
7.284,-0.08806623775,0.06779541453
7.298,-0.06852788567,0.05979017106
7.312,-0.06035100015,0.04519143826
7.326,-0.06405393111,0.0321557205
7.34,-0.07542913858,0.02642682828
7.354,-0.08900729615,0.02964479441
7.368,-0.1006945884,0.04082075508
7.382,-0.1077982952,0.05839484566
7.396,-0.1078253044,0.08060153875
7.41,-0.09821392997,0.1044225106
7.424,-0.07759851189,0.1247779179
7.438,-0.04781637249,0.1351790529
7.452,-0.01527418674,0.1302812246
7.466,0.01011235525,0.1096180488
7.48,0.01930678745,0.07991413753
7.494,0.009690690569,0.05297526228
7.508,-0.0128151415,0.03947811378
7.522,-0.03735128191,0.04331120024
7.536,-0.05439609773,0.06096791004
7.55,-0.05943951036,0.08550604475
7.564,-0.05220492319,0.1106020683
7.578,-0.03415380026,0.1315842395
7.592,-0.007512740366,0.1444020651
7.606,0.02382055406,0.1452238199
7.62,0.05339573156,0.1318974257
7.634,0.07321235202,0.1063619774
7.648,0.07705335149,0.07589376072
7.662,0.06457043409,0.05112466708
7.676,0.0428131219,0.04079816727
7.69,0.02281547113,0.04663494108
7.704,0.01312567705,0.06282472609
7.718,0.01568555003,0.08084278731
7.732,0.02739344866,0.09495036389
7.746,0.04472454475,0.1033419238
7.76,0.0659878023,0.1051660574
7.774,0.0893867173,0.09812729859
7.788,0.1102143561,0.07993485649
7.802,0.1212287557,0.05203172701
7.816,0.1166575496,0.02154115641
7.83,0.09677308193,-0.0009809452725
7.844,0.06936563759,-0.007023574608
7.858,0.04640406009,0.004678280462
7.872,0.03756104626,0.02712481179
7.886,0.04517574719,0.0494176467
7.9,0.06456422585,0.06314744479
7.914,0.08879956206,0.06547092295
7.928,0.1128508215,0.05712254517
7.942,0.1334676697,0.03908028612
7.956,0.1467596959,0.01232927851
7.97,0.1479985757,-0.01958789982
7.984,0.1347788932,-0.04941381497
7.998,0.1101382849,-0.06888069212
8.012,0.082136656,-0.07326407442
8.026,0.05999445463,-0.06403447649
8.04,0.04964663274,-0.04784026233
8.054,0.05149341878,-0.03282420594
8.068,0.06139793748,-0.02473950364
8.082,0.07389233374,-0.02528431384
8.096,0.08493194801,-0.03340669929
8.11,0.09203176246,-0.0476164777
8.124,0.09264359351,-0.06638881169
8.138,0.08392571756,-0.08640480931
8.152,0.06522486621,-0.10172537
8.166,0.04054697437,-0.1063270472
8.18,0.01754179716,-0.09817881624
8.194,0.003340480776,-0.08080433151
8.208,0.001001849016,-0.06097690244
8.222,0.009170991335,-0.04510214062
8.236,0.02400390375,-0.03721422996
8.25,0.04100784746,-0.03896115687
8.264,0.05580149782,-0.05021434247
8.278,0.06429259573,-0.06929494451
8.292,0.06306419242,-0.09275056364
8.306,0.05047339248,-0.1152690683
8.32,0.02818399759,-0.1307490319
8.334,0.001616862954,-0.1349408812
8.348,-0.0222274261,-0.1280557391
8.362,-0.03864040423,-0.1145910982
8.376,-0.04732101084,-0.09992276922
8.39,-0.05064919545,-0.08692447417
8.404,-0.05035526023,-0.07600397046
8.418,-0.04659588292,-0.06778728939
8.432,-0.04016805152,-0.06451732471
8.446,-0.03455713577,-0.06814326113
8.46,-0.03482636241,-0.07732869377
8.474,-0.04411707694,-0.086851958
8.488,-0.06097511709,-0.09027242353
8.502,-0.07975519445,-0.08378622921
8.516,-0.09382901432,-0.06846222533
8.53,-0.09936925879,-0.04927570555
8.544,-0.09693600451,-0.03162418176
8.558,-0.08964722819,-0.01819620206
8.572,-0.07988288966,-0.008992845525
8.586,-0.06817524155,-0.00405312821
8.6,-0.05544478172,-0.005149450596
8.614,-0.04539653119,-0.01385410623
8.628,-0.04333012283,-0.02809535353
8.642,-0.05195254892,-0.04164294417
8.656,-0.0685993311,-0.04776065214
8.67,-0.08680736565,-0.04359312035
8.684,-0.1006004819,-0.0313320548
8.698,-0.1076334836,-0.01571806432
8.712,-0.1090993447,-0.0005368424777
8.726,-0.1072347916,0.01310691714
8.74,-0.1028237135,0.02577430234
8.754,-0.09491699974,0.03714282914
8.768,-0.08315581731,0.0446099208
8.782,-0.07036304977,0.04505798498
8.796,-0.0620783787,0.03855411319
8.81,-0.06256242037,0.02999839476
8.824,-0.0709550243,0.02631289052
8.838,-0.08158583145,0.03152267987
8.852,-0.08811233063,0.04438422459
8.866,-0.08738152699,0.06026570927
8.88,-0.0799976215,0.07469092063
8.894,-0.06835766412,0.08530324406
8.908,-0.05467603689,0.09156638729
8.922,-0.04036889598,0.0935379494
8.936,-0.0266095234,0.09104715927
8.95,-0.01523778271,0.08392079682
8.964,-0.00892155689,0.07319782288
8.978,-0.009758608827,0.06215630807
8.992,-0.01712935716,0.05548426779
9.006,-0.02707587341,0.05657734654
9.02,-0.03433879945,0.06531086901
9.034,-0.03529053332,0.0784238148
9.048,-0.02914578019,0.0917967656
9.062,-0.01711803459,0.1022014365
9.076,-0.00128911584,0.1075564505
9.09,0.01574739565,0.106761633
9.104,0.03111848635,0.09993133558
9.118,0.04233040639,0.08849850339
9.132,0.04781101366,0.07478323824
9.146,0.04700062647,0.06158963721
9.16,0.0406184343,0.05207411411
9.174,0.0312855711,0.04904768025
9.188,0.02333737957,0.05337631271
9.202,0.02100299696,0.06285962025
9.216,0.02614221443,0.07307362784
9.23,0.03748599608,0.07964968039
9.244,0.05171645432,0.08012137583
9.258,0.06514839506,0.07439086348
9.272,0.07502137776,0.06421183636
9.286,0.08020260028,0.05218094736
9.3,0.08107371315,0.04052972146
9.314,0.07853002037,0.03051904292
9.328,0.07314228077,0.02310118961
9.342,0.06577955168,0.01986867494
9.356,0.05904654202,0.02239084868
9.37,0.05712698874,0.02996575389
9.384,0.06312334495,0.0384393289
9.398,0.07626005793,0.04212954916
9.412,0.09193783065,0.03744415702
9.426,0.1046713129,0.02488980548
9.44,0.1111726405,0.008009565708
9.454,0.1112612964,-0.009288653134
9.468,0.1065811177,-0.02471066449
9.482,0.09863500073,-0.03769578463
9.496,0.08780714506,-0.04799247577
9.51,0.07427249072,-0.05420172179
9.524,0.05997520622,-0.05417104528
9.538,0.04919300879,-0.04752318238
9.552,0.04602595411,-0.03778576278
9.566,0.05066266142,-0.03106328879
9.58,0.05847380769,-0.03165901705
9.594,0.06344876046,-0.03882698978
9.608,0.06274006419,-0.04798270382
9.622,0.05792405838,-0.05494655121
9.636,0.05230703005,-0.05887976154
9.65,0.04752264453,-0.06152778361
9.664,0.04267473035,-0.06429820875
9.678,0.03631261202,-0.06632386077
9.692,0.02902237672,-0.06526779431
9.706,0.02404876662,-0.06014850461
9.72,0.02493768207,-0.0535971714
9.734,0.03189157432,-0.05096152608
9.748,0.04038324552,-0.05627475673
9.762,0.04406346548,-0.06857844178
9.776,0.03967544409,-0.08244133001
9.79,0.0292087668,-0.09244232135
9.804,0.01726390959,-0.09715478362
9.818,0.006661447005,-0.09886791382
9.832,-0.003227029971,-0.1000265965
9.846,-0.01438410419,-0.1004571941
9.86,-0.02707403643,-0.09787022919
9.874,-0.03885875795,-0.09057362052
9.888,-0.04633033744,-0.07967597898
9.902,-0.04795408672,-0.06889961743
9.916,-0.04565000094,-0.06203765922
9.93,-0.04355561292,-0.06001353493
9.944,-0.04471545674,-0.06023703635
9.958,-0.04871610278,-0.0591584872
9.972,-0.05274007214,-0.05558714347
9.986,-0.05489710778,-0.05126345086
10,-0.05606900018,-0.0482296587
