"Freq [GHz]","dB(S(Antenna1_1_1,Antenna1_1_1)) []","ang_rad(S(Antenna1_1_1,Antenna1_1_1)) [rad]"
2.5,-20.3080579628798,0.982569963080971
2.505,-19.8095890917967,1.05019312926536
2.51,-19.2659365872944,1.10392084213568
2.515,-18.7051902326487,1.14481484245946
2.52,-18.1474055099598,1.17441624440562
2.525,-17.6058791055576,1.19437781176656
2.53,-17.0888370125524,1.20626578613074
2.535,-16.600949281336,1.21147514435576
2.54,-16.1444961406774,1.21120854643477
2.545,-15.7201974303375,1.20648609944898
2.55,-15.3277762188674,1.19816729157829
2.555,-14.9663308145312,1.18697564287516
2.56,-14.6345752262231,1.17352178845919
2.565,-14.3309917650005,1.15832340543108
2.57,-14.0539258158785,1.14182164410277
2.575,-13.8016432094193,1.12439432890895
2.58,-13.5723634975348,1.10636630594649
2.585,-13.364278309026,1.08801743169396
2.59,-13.1755606211545,1.06958858194489
2.595,-13.0043693083456,1.05128605938937
2.6,-12.8488516527036,1.03328468951911
2.605,-12.7071459772102,1.01572987189243
2.61,-12.5773861385498,0.99873882427392
2.615,-12.457708803236,0.982401225420485
2.62,-12.3462645055171,0.966779474922672
2.625,-12.2412329434854,0.951908779561525
2.63,-12.1408426188917,0.93779726595245
2.635,-12.043394549262,0.924426340831566
2.64,-11.9472892489954,0.91175147637167
2.645,-11.8510558216544,0.899703592145612
2.65,-11.7533814292354,0.888191149469026
2.655,-11.6531392272075,0.877103012960279
2.66,-11.5494126217301,0.866312061215751
2.665,-11.4415138494119,0.855679444023261
2.67,-11.3289951313082,0.845059310917144
2.675,-11.2116513666858,0.83430377659293
2.68,-11.0895137948411,0.823267851123048
2.685,-10.962835080298,0.811814062628232
2.69,-10.8320668094023,0.799816534360245
2.695,-10.6978310777394,0.787164317130713
2.7,-10.5608880726766,0.773763870386046
2.705,-10.4221018336218,0.759540641186155
2.71,-10.2824060601521,0.744439777400879
2.715,-10.1427717438707,0.728426061776934
2.72,-10.0041777988557,0.711483190226941
2.725,-9.86758560262438,0.693612546133482
2.73,-9.73391780893582,0.67483162016032
2.735,-9.60404151939906,0.655172214734096
2.74,-9.47875553027001,0.634678553352135
2.745,-9.35878129441711,0.613405393493939
2.75,-9.24475701107977,0.591416212565685
2.755,-9.13723431535484,0.568781518079015
2.76,-9.03667696713094,0.545577304680529
2.765,-8.94346103861123,0.521883674275621
2.77,-8.85787614439925,0.497783612531102
2.775,-8.78012734093513,0.473361910924704
2.78,-8.71033737353048,0.448704221363937
2.785,-8.64854908844598,0.423896209803881
2.79,-8.59472778895284,0.399022799693937
2.795,-8.54876354250104,0.374167467396801
2.8,-8.5104733226671,0.349411575939672
2.805,-8.47960305618374,0.32483371910732
2.81,-8.45582961947447,0.300509059416667
2.815,-8.43876293474918,0.276508641982892
2.82,-8.42794826644499,0.252898673898344
2.825,-8.42286894038559,0.229739759677444
2.83,-8.4229496841969,0.207086090885093
2.835,-8.42756080150023,0.184984597910142
2.84,-8.43602344647906,0.163474072615747
2.845,-8.44761619020742,0.142584284550628
2.85,-8.46158308623453,0.122335122475517
2.855,-8.47714338764966,0.102735795412909
2.86,-8.49350298391285,0.0837841438056753
2.865,-8.50986750384058,0.0654661109059642
2.87,-8.52545694939811,0.0477554324460024
2.875,-8.53952155278786,0.0306135954852197
2.88,-8.55135842024349,0.0139901215842887
2.885,-8.5603283203405,-0.00217679585099702
2.89,-8.56587201493194,-0.0179592742042631
2.895,-8.5675252406131,-0.0334383465253188
2.9,-8.56493163734692,-0.0487022152301399
2.905,-8.55785285283275,-0.0638442094980691
2.91,-8.54617521541779,-0.0789605133876084
2.915,-8.52991253287818,-0.0941477676630877
2.92,-8.50920487472735,-0.10950064343789
2.925,-8.48431334998148,-0.125109497281742
2.93,-8.45561120071333,-0.141058208203927
2.935,-8.42357175431436,-0.157422283268143
2.94,-8.38875388621344,-0.17426729197527
2.945,-8.35178578967997,-0.191647675091944
2.95,-8.31334780260512,-0.209605937708681
2.955,-8.27415509682726,-0.228172218635552
2.96,-8.23494085080396,-0.247364206467215
2.965,-8.19644040624885,-0.26718736269316
2.97,-8.15937685947285,-0.287635393727754
2.975,-8.12444824098763,-0.308690923958935
2.98,-8.09231643682742,-0.330326308841995
2.985,-8.06359783033163,-0.352504544882629
2.99,-8.03885554206419,-0.37518023052372
2.995,-8.01859312990883,-0.398300548067328
3,-8.00324954960071,-0.421806236733742
3.005,-7.9931951416294,-0.445632546764048
3.01,-7.98872847357567,-0.469710162655422
3.015,-7.99007380987233,-0.493966096364651
3.02,-7.99737905310404,-0.518324553414862
3.025,-8.01071404439838,-0.542707782824192
3.03,-8.03006912397661,-0.567036923692591
3.035,-8.05535390052401,-0.591232861370735
3.04,-8.08639626423457,-0.615217112000503
3.045,-8.12294167472779,-0.638912751149722
3.05,-8.16465285926263,-0.662245399706031
3.055,-8.21111007475556,-0.685144279814965
3.06,-8.26181216127832,-0.707543353325614
3.065,-8.31617864439323,-0.729382532447301
3.07,-8.37355320050544,-0.750608969281195
3.075,-8.4332087749223,-0.771178397380329
3.08,-8.49435474918141,-0.791056498931489
3.085,-8.5561463518193,-0.810220257432639
3.09,-8.61769665041084,-0.828659232947177
3.095,-8.6780911652288,-0.846376696949456
3.1,-8.73640509672236,-0.863390539557286
3.105,-8.79172296443764,-0.879733871128253
3.11,-8.84316015284316,-0.895455222321523
3.115,-8.88988569094005,-0.910618275725527
3.12,-8.9311453556705,-0.925301064380021
3.125,-8.96628390629518,-0.939594615808147
3.13,-8.99476534702263,-0.953601042289589
3.135,-9.01618988042097,-0.967431133313966
3.14,-9.0303065409362,-0.981201538162573
3.145,-9.03702057245976,-0.995031667034905
3.15,-9.03639511050883,-1.00904046669546
3.155,-9.02864699599858,-1.02334323448443
3.16,-9.01413705572773,-1.03804863534916
3.165,-8.99335555384825,-1.05325606587436
3.17,-8.96690375266956,-1.06905347401686
3.175,-8.9354728333675,-1.08551571046461
3.18,-8.89982134034502,-1.10270343897151
3.185,-8.86075239458038,-1.12066259584133
3.19,-8.81909167284864,-1.13942435863023
3.195,-8.77566699998784,-1.15900554997859
3.2,-8.73129016599096,-1.17940940268083
3.205,-8.68674126966149,-1.20062659403638
3.21,-8.64275580279806,-1.22263646337857
3.215,-8.60001435861053,-1.24540834215054
3.22,-8.55913486029628,-1.26890292618419
3.225,-8.52066702834695,-1.29307364321236
3.23,-8.48508876209332,-1.31786797310966
3.235,-8.45280418348941,-1.34322870112955
3.24,-8.42414295335045,-1.36909508584701
3.245,-8.39936063058972,-1.39540393570321
3.25,-8.37863985160999,-1.42209059940465
3.255,-8.3620920688803,-1.44908986870303
3.26,-8.34975975746366,-1.47633681267223
3.265,-8.34161898257092,-1.50376754237893
3.27,-8.33758219811627,-1.53131992646358
3.275,-8.33750135007137,-1.55893426166223
3.28,-8.34117120872,-1.58655390976639
3.285,-8.34833297766828,-1.61412590659483
3.29,-8.35867827191651,-1.64160154489846
3.295,-8.37185346142414,-1.66893693688794
3.3,-8.38746449186852,-1.69609354604058
3.305,-8.40508222456994,-1.72303868741346
3.31,-8.42424836107634,-1.74974598703467
3.315,-8.44448197805399,-1.77619578150914
3.32,-8.46528666683875,-1.8023754495781
3.325,-8.48615827586741,-1.82827965258132
3.33,-8.50659314824481,-1.85391046789492
3.335,-8.52609675977644,-1.8792773981894
3.34,-8.54419259183909,-1.90439723957612
3.345,-8.56043102217141,-1.92929379334855
3.35,-8.57439796805618,-1.95399742218727
3.355,-8.58572306315282,-1.9785444408767
3.36,-8.59408702527683,-2.00297635430533
3.365,-8.59922798133468,-2.02733895713936
3.37,-8.60094647305705,-2.05168131344261
3.375,-8.59910896549572,-2.07605465271196
3.38,-8.59364969966261,-2.1005112116208
3.385,-8.58457081521068,-2.12510306200145
3.39,-8.57194080132357,-2.14988096510598
3.395,-8.55589129716772,-2.17489328972868
3.4,-8.53661248087747,-2.20018502518719
3.405,-8.5143472178077,-2.22579692238374
3.41,-8.48938424875459,-2.25176477828054
3.415,-8.4620507273673,-2.27811887918045
3.42,-8.43270436346492,-2.30488360608956
3.425,-8.40172547876795,-2.33207720055782
3.43,-8.3695092184522,-2.35971167887163
3.435,-8.33645811146347,-2.38779288287789
3.44,-8.30297518003482,-2.41632064768897
3.445,-8.26945768066529,-2.44528906549842
3.45,-8.23629158060577,-2.47468682731744
3.455,-8.20384678358842,-2.50449762022504
3.46,-8.17247311831915,-2.53470056228856
3.465,-8.14249702477533,-2.56527066072145
3.47,-8.11421894475016,-2.59617927424364
3.475,-8.08791128475126,-2.62739457672579
3.48,-8.06381691525046,-2.65888200299184
3.485,-8.04214812928077,-2.69060468264773
3.49,-8.02308595089512,-2.72252384788041
3.495,-8.00677976330614,-2.75459921964741
3.5,-7.99334714989197,-2.78678937140297
3.505,-7.98287393647498,-2.81905206931614
3.51,-7.97541433327359,-2.85134459401831
3.515,-7.97099119005563,-2.88362404483643
3.52,-7.96959631159666,-2.91584763337729
3.525,-7.9711908225978,-2.94797296623956
3.53,-7.97570557357052,-2.97995832363103
3.535,-7.98304159915012,-3.01176293844131
3.54,-7.99307064380444,-3.04334727568524
3.545,-8.00563576671554,-3.07467332029179
3.55,-8.02055207536517,-3.10570487058982
3.555,-8.03760759413496,-3.13640784246953
3.56,-8.05656436131363,3.11643472348511
3.565,-8.0771597542088,3.08648111029075
3.57,-8.09910812608803,3.05694243944091
3.575,-8.12210279292538,3.02784110848514
3.58,-8.14581841880746,2.99919576985933
3.585,-8.16991384903224,2.97102101135644
3.59,-8.19403542117751,2.9433270580961
3.595,-8.21782076544955,2.91611950074843
3.6,-8.24090309453427,2.88939907014908
3.605,-8.26291597884011,2.8631614635508
3.61,-8.28349853579122,2.83739724117827
3.615,-8.30230095666781,2.81209180222911
3.62,-8.31899028923067,2.78722545496919
3.625,-8.33325631764848,2.76277358893381
3.63,-8.34481738377731,2.73870695633979
3.635,-8.35342598912481,2.71499206528645
3.64,-8.35887396777885,2.69159168406968
3.645,-8.36099704005737,2.66846545031856
3.65,-8.35967858661154,2.64557057044382
3.655,-8.35485245260594,2.62286259787506
3.66,-8.34650466400516,2.60029626560601
3.665,-8.33467396917063,2.57782634997105
3.67,-8.31945115261,2.5554085409474
3.675,-8.30097713514331,2.53300029189476
3.68,-8.27943991395705,2.51056162289324
3.685,-8.25507043901224,2.4880558527654
3.69,-8.22813757395205,2.46545024442502
3.695,-8.19894230484618,2.44271654145219
3.7,-8.16781138177371,2.41983139102619
3.705,-8.13509061186433,2.39677664197799
3.71,-8.1011379389734,2.37353952031399
3.715,-8.06631657192991,2.35011268355887
3.72,-8.03098824366235,2.32649415963518
3.725,-7.99550679292825,2.30268718010295
3.73,-7.96021216823741,2.278699919336
3.735,-7.92542491675097,2.25454514890292
3.74,-7.8914412706902,2.23023982161686
3.745,-7.85852883696885,2.20580459519981
3.75,-7.82692293483396,2.18126330972187
3.755,-7.79682359130332,2.15664242362326
3.76,-7.76839320968802,2.13197042400419
3.765,-7.74175489314622,2.10727721418571
3.77,-7.71699145934455,2.08259348941367
3.775,-7.69414507973491,2.05795010657246
3.78,-7.67321763681194,2.03337745472204
3.785,-7.65417170495689,2.00890483435528
3.79,-7.63693221406449,1.98455985127593
3.795,-7.62138878266859,1.960367835792
3.8,-7.60739870498824,1.93635129237122
3.805,-7.59479057989754,1.91252939410108
3.81,-7.58336856003431,1.88891752811103
3.815,-7.5729171864009,1.86552690658794
3.82,-7.56320671977363,1.84236425280489
3.825,-7.55399893308518,1.8194315741909
3.83,-7.54505320940398,1.79672603229435
3.835,-7.53613285064351,1.77423991751827
3.84,-7.52701143878013,1.75196073679012
3.845,-7.5174790838103,1.72987141373904
3.85,-7.50734837060262,1.7079506027032
3.855,-7.49645985918842,1.68617311075433
3.86,-7.4846869118761,1.66451041627889
3.865,-7.47193976718165,1.64293127262243
3.87,-7.45816864791834,1.62140237600855
3.875,-7.44336589798331,1.59988907783297
3.88,-7.42756702430083,1.57835611838143
3.885,-7.41085069731762,1.55676835684094
3.89,-7.39333770905496,1.53509147503554
3.895,-7.37518900406316,1.51329263451739
3.9,-7.35660289119684,1.49134106424134
3.905,-7.33781159119803,1.4692085712241
3.91,-7.3190772922272,1.44686995669115
3.915,-7.30068789291851,1.42430333868801
3.92,-7.28295260476369,1.40149037602564
3.925,-7.26619758930629,1.37841640033471
3.93,-7.25076179160823,1.35507046013271
3.935,-7.23699306351565,1.33144529246538
3.94,-7.22524470784302,1.30753722815104
3.945,-7.21587249980354,1.28334604814273
3.95,-7.20923225499159,1.25887480497469
3.955,-7.20567792327209,1.23412962112288
3.96,-7.2055602513641,1.20911948022464
3.965,-7.20922596214043,1.18385602137075
3.97,-7.21701743211494,1.15835334755099
3.975,-7.22927282099417,1.13262786116595
3.98,-7.2463265926225,1.10669812921459
3.985,-7.26851036248189,1.08058479069002
3.99,-7.29615403476228,1.05431050770683
3.995,-7.3295871395859,1.02789996789366
4,-7.36914032883691,1.00137994044576
