"Freq [GHz]","dB(S(Antenna1_1_1,Antenna1_1_1)) []","ang_rad(S(Antenna1_1_1,Antenna1_1_1)) [rad]"
2.5,-20.2109728359613,0.984436344991249
2.505,-19.7195114802535,1.04925535615311
2.51,-19.1879125056764,1.10082206803419
2.515,-18.6416879889724,1.14021486642744
2.52,-18.0990040872944,1.16890432685279
2.525,-17.5719330804021,1.18843894292753
2.53,-17.0679896137487,1.2002775263392
2.535,-16.5914852314511,1.20571834617073
2.54,-16.1445681166648,1.2058824741172
2.545,-15.727964840709,1.20172345578592
2.55,-15.3414871303021,1.19404742587808
2.555,-14.9843685425254,1.1835355537031
2.56,-14.6554835088423,1.17076509549015
2.565,-14.3534871732604,1.15622764327267
2.57,-14.0769026091616,1.14034424238032
2.575,-13.8241736100613,1.12347760420707
2.58,-13.5936950656231,1.10594171876585
2.585,-13.3838292490381,1.08800930473282
2.59,-13.1929133029484,1.06991742106655
2.595,-13.0192620399064,1.05187157189228
2.6,-12.8611685300865,1.03404855486998
2.605,-12.7169045975038,1.01659828409389
2.61,-12.5847229270317,0.999644796218259
2.615,-12.4628618202633,0.983286621817571
2.62,-12.3495537140715,0.967596709485258
2.625,-12.2430381250042,0.952622110833307
2.63,-12.1415793874705,0.938383607836774
2.635,-12.0434891938263,0.924875513623379
2.64,-11.9471534157107,0.912065842837341
2.645,-11.8510622829943,0.899897048594983
2.65,-11.7538423914005,0.888287490134078
2.655,-11.6542885663683,0.877133735481717
2.66,-11.5513933738507,0.866313733383232
2.665,-11.4443718892729,0.855690801759473
2.67,-11.3326795754055,0.845118291314843
2.675,-11.2160215635162,0.834444700032782
2.68,-11.0943523104154,0.823518960584155
2.685,-10.9678654263959,0.812195586507427
2.69,-10.8369744181154,0.800339393382917
2.695,-10.7022857373592,0.787829526323133
2.7,-10.564566124257,0.77456262757732
2.705,-10.4247065987461,0.760455034924172
2.71,-10.2836852967861,0.74544400631849
2.715,-10.142531337548,0.72948803229114
2.72,-10.0022912795209,0.712566352816574
2.725,-9.86399942253992,0.694677836209699
2.73,-9.72865266166255,0.6758393851101
2.735,-9.59719007835437,0.656084034101936
2.74,-9.47047721916343,0.635458880276194
2.745,-9.34929464908273,0.614022969410984
2.75,-9.23433022977918,0.591845231014128
2.755,-9.12617455882881,0.56900252237106
2.76,-9.02531886994769,0.545577822066223
2.765,-8.93215486039136,0.521658595631702
2.77,-8.84697588704888,0.497335329445277
2.775,-8.76997911828016,0.47270022854975
2.78,-8.70126827744686,0.447846059275201
2.785,-8.64085672986321,0.422865112291169
2.79,-8.58867070728698,0.397848266415167
2.795,-8.54455263476476,0.372884121602502
2.8,-8.50826445038958,0.348058184366812
2.805,-8.47949101226251,0.323452079814757
2.81,-8.45784360213334,0.299142772176252
2.815,-8.44286371250394,0.275201785731624
2.82,-8.43402722764356,0.251694410985501
2.825,-8.43074916917197,0.228678898817614
2.83,-8.43238924347879,0.206205645339214
2.835,-8.43825832778752,0.184316379381023
2.84,-8.44762610328095,0.163043373104955
2.845,-8.45972997843351,0.142408699723866
2.85,-8.47378536134335,0.122423577878814
2.855,-8.48899734918895,0.1030878376725
2.86,-8.50457369408046,0.0843895556460971
2.865,-8.51973891931281,0.066304901886039
2.87,-8.53374923962172,0.0487982457377541
2.875,-8.54590788083857,0.0318225497669536
2.88,-8.55558026832551,0.0153200820313203
2.885,-8.56220846813763,-0.00077654574822511
2.89,-8.56532425244023,-0.0165430261237635
2.895,-8.56456012746953,-0.0320617158867796
2.9,-8.55965776445523,-0.0474197579268868
2.905,-8.55047337563643,-0.0627070371983552
2.91,-8.53697975881523,-0.0780140438853975
2.915,-8.51926483262156,-0.0934297385283284
2.92,-8.49752689810658,-0.109039501150779
2.925,-8.47206678123864,-0.124923247463189
2.93,-8.4432774153038,-0.141153778371411
2.935,-8.41163138443848,-0.157795414258239
2.94,-8.37766707960767,-0.174902940318763
2.945,-8.34197412817547,-0.192520876065123
2.95,-8.30517867396272,-0.210683056986514
2.955,-8.26792907084835,-0.229412504389896
2.96,-8.23088240374658,-0.248721549971193
2.965,-8.1946921093023,-0.268612168969419
2.97,-8.15999697126542,-0.289076478927978
2.975,-8.12741146523662,-0.310097359556982
2.98,-8.09751754455033,-0.331649152455793
2.985,-8.07085773046607,-0.353698405326752
2.99,-8.04792937234144,-0.376204634597466
2.995,-8.02917995781157,-0.399121082532246
3,-8.0150032347672,-0.422395455257628
3.005,-8.00573600887249,-0.445970636565281
3.01,-8.00165542616788,-0.469785372368904
3.015,-8.00297657766552,-0.493774933023562
3.02,-8.00985032761463,-0.517871756426332
3.025,-8.02236123111543,-0.54200608751802
3.03,-8.0405255269708,-0.566106625661148
3.035,-8.06428913390701,-0.590101195399464
3.04,-8.09352570306895,-0.613917457699928
3.045,-8.12803478404218,-0.637483679748202
3.05,-8.16754021204686,-0.660729576876333
3.055,-8.21168886729872,-0.683587240507889
3.06,-8.26005005616757,-0.705992169664514
3.065,-8.31211573213517,-0.727884399379311
3.07,-8.36730191185769,-0.74920973624796
3.075,-8.42495156819772,-0.769921082829748
3.08,-8.4843394424661,-0.789979833015427
3.085,-8.54467905666626,-0.809357301194115
3.09,-8.60513229453682,-0.828036133903917
3.095,-8.66482175233207,-0.84601164294779
3.1,-8.72284600796473,-0.863292974490803
3.105,-8.7782976936603,-0.879904032701523
3.11,-8.83028411084671,-0.895884053964491
3.115,-8.87794982122039,-0.911287745967647
3.12,-8.92050042401931,-0.926184906734685
3.125,-8.95722639643527,-0.940659473185514
3.13,-8.98752585662711,-0.954807968056881
3.135,-9.01092479227717,-0.968737372050524
3.14,-9.02709355662721,-0.982562482887266
3.145,-9.03585840147712,-0.996402870295681
3.15,-9.03720729916626,-1.01037957828379
3.155,-9.0312895241901,-1.02461174529482
3.16,-9.01840909901775,-1.03921332242637
3.165,-8.99901250495686,-1.05429006335793
3.17,-8.97367155815461,-1.06993693083865
3.175,-8.94306262659795,-1.08623602470495
3.18,-8.90794343491235,-1.10325509810941
3.185,-8.86912888138391,-1.12104667286781
3.19,-8.82746702904581,-1.13964773351618
3.195,-8.78381636566406,-1.15907993700787
3.2,-8.73902511525543,-1.17935026138582
3.205,-8.69391313736534,-1.20045200042651
3.21,-8.64925671155039,-1.22236600278595
3.215,-8.60577624964055,-1.24506207889071
3.22,-8.56412685197995,-1.26850048687827
3.225,-8.52489147485615,-1.29263343996683
3.23,-8.48857635883105,-1.3174065813945
3.235,-8.45560848453364,-1.34276039713449
3.24,-8.42633457836716,-1.36863154023882
3.245,-8.40102146335228,-1.39495405607848
3.25,-8.37985741438589,-1.42166050875078
3.255,-8.36295429172972,-1.4486830061011
3.26,-8.35035026698765,-1.47595413640222
3.265,-8.342013042245,-1.5034078225839
3.27,-8.33784336145133,-1.53098010627251
3.275,-8.33767891023754,-1.55860987075232
3.28,-8.34129845053451,-1.58623951192919
3.285,-8.34842628793106,-1.61381556422151
3.29,-8.35873704909951,-1.64128928425352
3.295,-8.37186084635191,-1.66861719616335
3.3,-8.38738884800543,-1.69576159297292
3.305,-8.40487930492118,-1.72269098734208
3.31,-8.42386408285965,-1.74938051183216
3.315,-8.44385568940611,-1.7758122441947
3.32,-8.46435477194203,-1.80197545467725
3.325,-8.48485807359036,-1.8278667564457
3.33,-8.5048667335543,-1.85349014300807
3.335,-8.52389479075388,-1.87885690076323
3.34,-8.54147776218566,-1.90398538533531
3.345,-8.55718106209308,-1.92890065013986
3.35,-8.57060802870469,-1.95363393060727
3.355,-8.58140734386233,-1.97822198082915
3.36,-8.58927956208691,-2.00270627819526
3.365,-8.59398254249413,-2.02713211064636
3.37,-8.59533555602123,-2.05154756855217
3.375,-8.5932219521019,-2.0760024755292
3.38,-8.58759025184577,-2.10054728579608
3.385,-8.57845366516482,-2.12523198512716
3.39,-8.56588807647107,-2.15010503127756
3.395,-8.55002858218924,-2.1752123655899
3.4,-8.53106480650558,-2.20059652227292
3.405,-8.50923514764885,-2.22629586201586
3.41,-8.48482024602574,-2.25234394246143
3.415,-8.45813591927059,-2.27876903387844
3.42,-8.42952582993251,-2.30559378560097
3.425,-8.39935412401861,-2.33283503412747
3.43,-8.36799824927754,-2.3605037461564
3.435,-8.33584214818935,-2.38860508087764
3.44,-8.30326995036669,-2.41713855555204
3.445,-8.27066027199604,-2.44609829596459
3.45,-8.23838116092813,-2.47547335260969
3.455,-8.20678573484874,-2.50524806781739
3.46,-8.17620850377835,-2.53540247282438
3.465,-8.14696230843492,-2.56591270556469
3.47,-8.11933588028963,-2.59675143321461
3.475,-8.09359192493858,-2.62788827289318
3.48,-8.06996566562674,-2.65929019991924
3.485,-8.04866380462968,-2.69092194307521
3.49,-8.02986378190339,-2.72274635885951
3.495,-8.01371333130471,-2.75472478690947
3.5,-8.00033020535794,-2.78681738561262
3.505,-7.98980209950002,-2.81898344991651
3.51,-7.98218665424298,-2.85118171084637
3.515,-7.97751155050813,-2.88337062372023
3.52,-7.97577467867139,-2.91550864647124
3.525,-7.97694433211731,-2.94755451170741
3.53,-7.98095946020171,-2.97946749495332
3.535,-7.98772996560135,-3.01120768760685
3.54,-7.99713706243333,-3.04273627180315
3.545,-8.00903373566997,-3.07401580541665
3.55,-8.02324531393156,-3.10501051407004
3.555,-8.03957019522513,-3.13568659676056
3.56,-8.05778079854303,3.11717276427348
3.565,-8.07762475722658,3.08722584807459
3.57,-8.09882641599336,3.05768390337841
3.575,-8.12108871590708,3.02856957945522
3.58,-8.14409545849171,2.99990189553326
3.585,-8.16751404982045,2.97169591198452
3.59,-8.19099872520539,2.94396242041299
3.595,-8.21419428759133,2.91670766063524
3.6,-8.23674035074532,2.88993308298243
3.605,-8.25827607280458,2.86363516190529
3.61,-8.27844533736049,2.83780528034567
3.615,-8.29690228321494,2.81242969464343
3.62,-8.31331709159863,2.78748959392771
3.625,-8.32738189597636,2.76296126288403
3.63,-8.33881663439044,2.73881635621794
3.635,-8.3473746839778,2.71502228547275
3.64,-8.35284806559525,2.69154271912086
3.645,-8.35507202571879,2.66833818837579
3.65,-8.35392882467509,2.64536678503239
3.655,-8.34935054664621,2.62258493756078
3.66,-8.34132080386735,2.59994824171964
3.665,-8.32987526177582,2.57741232272831
3.67,-8.31510091322865,2.55493370058783
3.675,-8.29713414966886,2.53247063476775
3.68,-8.27615765233999,2.50998391853951
3.685,-8.25239624332753,2.48743760207225
3.69,-8.22611181956177,2.4647996230678
3.695,-8.19759755996759,2.44204233001527
3.7,-8.16717159095794,2.4191428875699
3.705,-8.13517032604767,2.39608355665115
3.71,-8.10194163929198,2.37285185363988
3.715,-8.06783809985992,2.34944058596067
3.72,-8.0332103928827,2.32584777681791
3.725,-7.99840107742548,2.30207648453573
3.73,-7.96373880628631,2.27813453199457
3.735,-7.92953304441155,2.25403415511221
3.74,-7.89606941430457,2.22979158638656
3.745,-7.86360563187101,2.20542658099568
3.75,-7.83236811457773,2.1809619040623
3.755,-7.8025492282562,2.15642278008092
3.76,-7.77430518789202,2.1318363234656
3.765,-7.74775460252219,2.10723095024631
3.77,-7.7229776649555,2.08263578265449
3.775,-7.70001594249361,2.0580800529666
3.78,-7.6788728130713,2.03359251015522
3.785,-7.65951450234636,2.00920083858296
3.79,-7.64187172178526,1.98493109242379
3.795,-7.62584192584719,1.96080715596321
3.8,-7.61129214868815,1.93685023306834
3.805,-7.59806242692377,1.91307837855685
3.81,-7.58596977847284,1.88950607753949
3.815,-7.57481270972492,1.86614388368227
3.82,-7.56437617158752,1.84299812609678
3.825,-7.554436940375,1.82007069532094
3.83,-7.54476928517712,1.79735891603251
3.835,-7.53515083867229,1.77485551564263
3.84,-7.52536853809088,1.75254869558673
3.845,-7.51522448218402,1.73042230428884
3.85,-7.50454154658393,1.70845611702338
3.855,-7.49316861245066,1.6866262154067
3.86,-7.48098521813547,1.66490545735114
3.865,-7.4679055419025,1.64326403050669
3.87,-7.45388152022,1.62167006871468
3.875,-7.4389050912569,1.60009031473281
3.88,-7.4230094266654,1.57849080974547
3.885,-7.40626920431551,1.55683758621869
3.89,-7.38879988982075,1.53509734283717
3.895,-7.37075613011255,1.51323808218814
3.9,-7.3523293396019,1.49122969104157
3.905,-7.33374461542283,1.46904445218688
3.91,-7.31525713376752,1.44665747137989
3.915,-7.29714818500326,1.42404701935206
3.92,-7.27972101041486,1.40119478098578
3.925,-7.2632966149508,1.37808601655427
3.93,-7.24820968624318,1.35470963831097
3.935,-7.23480475467056,1.33105821317927
3.94,-7.22343269277489,1.30712789925573
3.945,-7.21444764520757,1.28291832917575
3.95,-7.20820443948069,1.2584324543818
3.955,-7.20505650611086,1.23367636163371
3.96,-7.20535432350737,1.20865907550754
3.965,-7.20944438031038,1.1833923588807
3.97,-7.21766861773194,1.1578905209399
3.975,-7.23036434564318,1.13217024622129
3.98,-7.24786455739035,1.1062504485838
3.985,-7.27049860051544,1.08015216226986
3.99,-7.29859316576522,1.05389847240684
3.995,-7.33247351427775,1.02751449347428
4,-7.37246489628288,1.00102739938618
