"Freq [GHz]","dB(S(Antenna1_1_1,Antenna1_1_1)) []","ang_rad(S(Antenna1_1_1,Antenna1_1_1)) [rad]"
2.5,-20.1200584759385,0.845793409548438
2.505,-19.9055120258128,0.914015553026108
2.51,-19.6185673869064,0.97655712897789
2.515,-19.2722250189275,1.03235277638251
2.52,-18.8802180552732,1.08079759695042
2.525,-18.4557496763505,1.12169504660865
2.53,-18.0106645807585,1.15516875690351
2.535,-17.5550439311889,1.18156656821436
2.54,-17.097123132958,1.20137500415304
2.545,-16.6434111500562,1.21515213334166
2.55,-16.1989097929238,1.22347966981516
2.555,-15.7673637874269,1.22693156231683
2.56,-15.3515013610283,1.22605518034852
2.565,-14.953246220086,1.22136138871637
2.57,-14.5738945989308,1.21332050072916
2.575,-14.2142581797345,1.20236192444364
2.58,-13.8747765794331,1.18887592622281
2.585,-13.5556045548429,1.17321653887273
2.59,-13.2566784443321,1.15570494274117
2.595,-12.9777663576211,1.13663293571922
2.6,-12.7185054154259,1.11626626064997
2.605,-12.4784289751813,1.09484765440441
2.61,-12.2569861591343,1.07259957275897
2.615,-12.0535553367804,1.04972654391466
2.62,-11.8674530055526,1.02641715797222
2.625,-11.697939219386,1.00284569756371
2.63,-11.5442203045164,0.979173407894132
2.635,-11.4054498238411,0.955549429893914
2.64,-11.2807282124097,0.9321114012032
2.645,-11.1691018104888,0.908985734907777
2.65,-11.0695618044219,0.886287594622034
2.655,-10.9810436451449,0.864120575819673
2.66,-10.9024274581168,0.842576120895882
2.665,-10.8325400585372,0.821732695714037
2.67,-10.7701591214134,0.801654776528148
2.675,-10.7140199817647,0.782391694921621
2.68,-10.662825621139,0.763976434950457
2.685,-10.6152600525768,0.746424456395149
2.69,-10.5700053945755,0.729732674276955
2.695,-10.5257624307826,0.713878701335153
2.7,-10.4812743261846,0.698820498943812
2.705,-10.4353527027629,0.684496542044805
2.71,-10.3869050222812,0.67082661585952
2.715,-10.3349618404257,0.657713299172995
2.72,-10.2787022944585,0.64504416620923
2.725,-10.2174761145424,0.632694660574627
2.73,-10.1508205588363,0.620531542411247
2.735,-10.0784709461337,0.608416756828688
2.74,-10.000363848864,0.596211515595851
2.745,-9.91663271824035,0.583780370833603
2.75,-9.82759618464435,0.570995054792791
2.755,-9.73373993088206,0.557737878967228
2.76,-9.63569342640416,0.543904540051346
2.765,-9.53420316956716,0.529406227297944
2.77,-9.43010414496065,0.514170987288798
2.775,-9.32429108644927,0.498144368738183
2.78,-9.2176910466679,0.481289409400108
2.785,-9.11123827318358,0.46358605916738
2.79,-9.00585225699361,0.445030167816471
2.795,-8.90241928498003,0.425632147071984
2.8,-8.80177764945714,0.405415435707283
2.805,-8.70470639783606,0.384414865438209
2.81,-8.61191726356482,0.362675017001842
2.815,-8.5240494321662,0.340248627961666
2.82,-8.44166663127835,0.317195103400849
2.825,-8.36525608841047,0.293579157971974
2.83,-8.29522889028492,0.269469601599097
2.835,-8.23192135515378,0.244938277177132
2.84,-8.17559705380529,0.220059137727091
2.845,-8.12644916012841,0.194907458411346
2.85,-8.08460294455045,0.169559162614283
2.855,-8.05011817498579,0.144090243513747
2.86,-8.02299131686941,0.118576262731872
2.865,-8.00315744715112,0.0930919034290389
2.87,-7.99049184230429,0.0677105585412861
2.875,-7.98481119424706,0.0425039306843708
2.88,-7.98587454957857,0.0175416279112468
2.885,-7.99338396285635,-0.00710926332806444
2.89,-8.00698500403386,-0.0313846493419369
2.895,-8.02626723680589,-0.0552239506846157
2.9,-8.05076485286732,-0.0785706931053689
2.905,-8.07995757884215,-0.101373171940833
2.91,-8.11327220477949,-0.123585193833076
2.915,-8.15008485952106,-0.145166891946987
2.92,-8.18972438371571,-0.166085606920289
2.925,-8.23147702080964,-0.186316815197281
2.93,-8.27459272325685,-0.205845073083294
2.935,-8.31829324410426,-0.224664943078773
2.94,-8.36178221451448,-0.242781852836997
2.945,-8.40425724298575,-0.260212829709506
2.95,-8.44492397292232,-0.276987044708628
2.955,-8.48301189131257,-0.293146108547342
2.96,-8.51779148453067,-0.308744043057644
2.965,-8.54859218356703,-0.323846882258012
2.97,-8.57482037242429,-0.338531860997445
2.975,-8.59597658035397,-0.352886170784117
2.98,-8.61167097787051,-0.36700529385753
2.985,-8.62163621886334,-0.380990958143864
2.99,-8.6257368403846,-0.394948777598371
2.995,-8.62397453042185,-0.408985679435676
3,-8.61648894845222,-0.423207231294758
3.005,-8.60355390282755,-0.437714994401546
3.01,-8.58556914268608,-0.452604024663377
3.015,-8.56304824212941,-0.467960634609948
3.02,-8.53660326599881,-0.483860501208768
3.025,-8.50692709141079,-0.500367184822522
3.03,-8.47477431559289,-0.517531086398675
3.035,-8.44094166259099,-0.535388843893059
3.04,-8.40624868165721,-0.55396314518634
3.045,-8.37151945112975,-0.573262909952597
3.05,-8.33756578768281,-0.593283782930026
3.055,-8.30517228535882,-0.614008876098658
3.06,-8.27508335771114,-0.63540969172541
3.065,-8.2479923286938,-0.657447169656053
3.07,-8.22453243167722,-0.680072805771094
3.075,-8.2052696064609,-0.70322979451178
3.08,-8.19069681194613,-0.726854171845518
3.085,-8.18122964197156,-0.750875928654055
3.09,-8.17720300237006,-0.775220090229395
3.095,-8.17886856132143,-0.799807750913559
3.1,-8.18639286426547,-0.824557073465419
3.105,-8.19985584234961,-0.84938426058144
3.11,-8.21924970182918,-0.874204509608406
3.115,-8.24447807158913,-0.898932971085038
3.12,-8.27535540864364,-0.923485725374099
3.125,-8.31160675251673,-0.947780797424425
3.13,-8.35286789763826,-0.971739223735345
3.135,-8.39868616392826,-0.995286189329673
3.14,-8.4485220255874,-1.01835223923715
3.145,-8.5017518328151,-1.04087456539863
3.15,-8.55767197820708,-1.06279836887392
3.155,-8.61550483862221,-1.0840782697787
3.16,-8.67440683952378,-1.10467973832123
3.165,-8.73347894268551,-1.12458050158214
3.17,-8.79177981389306,-1.14377186077702
3.175,-8.84834176092261,-1.16225984727143
3.18,-8.90218940373924,-1.18006612977504
3.185,-8.95236081556869,-1.19722858207077
3.19,-8.99793056624756,-1.21380141732115
3.195,-9.0380339844665,-1.22985481561693
3.2,-9.07189151475,-1.24547398303733
3.205,-9.09883202439076,-1.26075761849551
3.21,-9.11831375878725,-1.2758158070014
3.215,-9.12994158903341,-1.29076739303544
3.22,-9.13347951947039,-1.30573694729685
3.225,-9.12885749906124,-1.32085146129737
3.23,-9.11617214085379,-1.33623694340541
3.235,-9.09568127516894,-1.35201509273329
3.24,-9.067792775004,-1.36830022119452
3.245,-9.03304850075705,-1.38519656787
3.25,-8.99210439781963,-1.40279612304738
3.255,-8.9457081306857,-1.42117701799343
3.26,-8.89467547665252,-1.44040251034049
3.265,-8.83986679872327,-1.46052053869344
3.27,-8.7821645979619,-1.48156379510217
3.275,-8.72245299050148,-1.50355023733618
3.28,-8.66159968323896,-1.52648394966684
3.285,-8.60044071128373,-1.55035625677906
3.29,-8.53976809481932,-1.57514700660974
3.295,-8.48032026265624,-1.60082593766011
3.3,-8.42277506917557,-1.62735406672374
3.305,-8.36774509434532,-1.65468504687358
3.31,-8.31577485141883,-1.68276645564816
3.315,-8.26733962754838,-1.71154099132893
3.32,-8.22284553389114,-1.74094756341451
3.325,-8.18263053382777,-1.77092226917807
3.33,-8.14696613073673,-1.80139926417568
3.335,-8.11605952147363,-1.83231152803495
3.34,-8.09005603145606,-1.86359153723343
3.345,-8.06904168334028,-1.89517185943674
3.35,-8.05304580663746,-1.92698567481157
3.355,-8.04204363379211,-1.9589672461758
3.36,-8.03595880605475,-1.99105234370914
3.365,-8.03466582256949,-2.02317863607712
3.37,-8.03799241601596,-2.05528606212009
3.375,-8.04572185346604,-2.08731718634113
3.38,-8.05759527002303,-2.11921755059756
3.385,-8.07331402332819,-2.1509360221492
3.39,-8.09254213324443,-2.18242514731054
3.395,-8.11490893627124,-2.21364150611341
3.4,-8.14001193114542,-2.2445460736242
3.405,-8.16741996460251,-2.27510458177703
3.41,-8.19667678938955,-2.30528787439537
3.415,-8.22730505183469,-2.33507225575975
3.42,-8.2588107794249,-2.36443981614682
3.425,-8.29068839224046,-2.39337872346167
3.43,-8.32242625034536,-2.42188347360214
3.435,-8.3535127097234,-2.44995507525703
3.44,-8.38344269150023,-2.47760116257992
3.445,-8.41172461631299,-2.50483601410635
3.45,-8.43788766718119,-2.53168046622045
3.455,-8.46148915455845,-2.55816170867982
3.46,-8.48212188781096,-2.58431295326913
3.465,-8.49942127538636,-2.61017296643678
3.47,-8.51307197552118,-2.63578547688209
3.475,-8.52281385414495,-2.66119845181935
3.48,-8.52844705808646,-2.68646326206844
3.485,-8.52983594661775,-2.71163375244948
3.49,-8.52691179699857,-2.73676524018105
3.495,-8.5196741142657,-2.76191346942065
3.5,-8.50819051458001,-2.78713354899182
3.505,-8.4925951505195,-2.81247891252813
3.51,-8.47308580748407,-2.83800031804884
3.515,-8.44991970638032,-2.86374492730183
3.52,-8.42340821684307,-2.88975547899167
3.525,-8.39391067358363,-2.91606957708462
3.53,-8.36182752612938,-2.94271910808451
3.535,-8.32759300170662,-2.96972978860045
3.54,-8.29166754779086,-2.99712084742594
3.545,-8.25453022593863,-3.02490483770079
3.55,-8.2166712583209,-3.05308756693412
3.555,-8.17858482910589,-3.08166813460946
3.56,-8.14076230221085,-3.11063906676013
3.565,-8.10368587813648,-3.13998652551354
3.57,-8.06782279256766,3.11349471956097
3.575,-8.03361999509714,3.08345973631203
3.58,-8.00149938023033,3.05312490756719
3.585,-7.97185346743329,3.02252630758434
3.59,-7.94504155104522,2.99170459511319
3.595,-7.92138620266565,2.96070458588327
3.6,-7.90117014835727,2.92957481426816
3.605,-7.88463339075062,2.8983670849186
3.61,-7.87197057605045,2.86713601532309
3.615,-7.86332855990228,2.83593856707105
3.62,-7.85880412142556,2.80483355858806
3.625,-7.85844182470852,2.77388115702526
3.63,-7.86223205238104,2.74314234173052
3.635,-7.87010919042852,2.71267833180734
3.64,-7.88195004551446,2.6825499702935
3.645,-7.89757255373437,2.65281706071662
3.65,-7.91673488156529,2.62353764490449
3.655,-7.93913501743918,2.59476722508237
3.66,-7.96441104298279,2.5665579216679
3.665,-7.99214222422162,2.53895757700462
3.67,-8.0218511043136,2.51200880597042
3.675,-8.05300683532463,2.48574800947047
3.68,-8.08502988843667,2.4602043716845
3.685,-8.11729836729307,2.43539886808337
3.69,-8.14915602884399,2.41134331764274
3.695,-8.17992210244372,2.3880395268355
3.7,-8.20890290541245,2.3654785699601
3.705,-8.23540510079622,2.34364025968999
3.71,-8.25875042415888,2.32249286628945
3.715,-8.27829140094525,2.30199312663517
3.72,-8.2934276398066,2.28208659259481
3.725,-8.30362196972039,2.26270834123159
3.73,-8.30841577212053,2.24378405402832
3.735,-8.30744269650899,2.22523145624836
3.74,-8.30044003519211,2.20696207151284
3.745,-8.28725709767518,2.18888323333396
3.75,-8.26786013007596,2.17090027191427
3.755,-8.24233339909258,2.15291877487975
3.76,-8.2108764685603,2.13484682760086
3.765,-8.17379778708139,2.11659712511833
3.77,-8.1315050266952,2.09808886859819
3.775,-8.08449272997391,2.07924937722532
3.78,-8.0333279711734,2.06001535724319
3.785,-7.97863480723148,2.04033380963916
3.79,-7.92107823903843,2.02016256960617
3.795,-7.86134838487079,1.99947049667943
3.8,-7.80014542613802,1.97823734845522
3.805,-7.73816579807268,1.95645338735944
3.81,-7.67608991338009,1.93411876810292
3.815,-7.61457160588944,1.91124275950117
3.82,-7.55422936202725,1.88784285499257
3.825,-7.49563930213397,1.86394381052038
3.83,-7.43932980021098,1.83957665557584
3.835,-7.38577760152537,1.81477770372659
3.84,-7.33540527669542,1.78958758653462
3.845,-7.28857978105436,1.7640503285176
3.85,-7.2456119825517,1.73821247333077
3.855,-7.20675698746003,1.71212226380468
3.86,-7.17221509412119,1.68582888182509
3.865,-7.14213328398799,1.6593817405076
3.87,-7.11660715876749,1.63282983193208
3.875,-7.09568321340028,1.60622112008738
3.88,-7.07936146846916,1.57960197916254
3.885,-7.06759836837966,1.55301667201071
3.89,-7.06030998529093,1.52650686427906
3.895,-7.05737551539145,1.5001111748949
3.9,-7.05864105343232,1.47386476136347
3.905,-7.06392371395831,1.44779894341182
3.91,-7.07301605080625,1.42194086264746
3.915,-7.08569084452475,1.39631319225898
3.92,-7.10170618925054,1.3709338949895
3.925,-7.12081092293738,1.34581603976754
3.93,-7.14275032709567,1.32096768629317
3.935,-7.16727207797549,1.29639184084822
3.94,-7.19413233514159,1.27208649928345
3.945,-7.22310193160803,1.24804477425173
3.95,-7.25397251277222,1.22425511672336
3.955,-7.28656253128931,1.20070163415258
3.96,-7.320722951995,1.17736450227562
3.965,-7.35634256403504,1.15422046906478
3.97,-7.39335272546593,1.1312434417084
3.975,-7.43173150396346,1.10840514961218
3.98,-7.47150704600231,1.08567586743846
3.985,-7.5127601727544,1.06302518563142
3.99,-7.55562613753449,1.04042281300044
3.995,-7.60029556315034,1.01783939384814
4,-7.64701460553293,0.995247326473618
