"Freq [GHz]","dB(S(Antenna1_1_1,Antenna1_1_1)) []","ang_rad(S(Antenna1_1_1,Antenna1_1_1)) [rad]"
2.5,-19.4054991218035,0.731443827091936
2.505,-19.4280292518485,0.782105220041355
2.51,-19.4096107739947,0.834771827843218
2.515,-19.3418105477948,0.888973911975574
2.52,-19.2170918799179,0.943838326772509
2.525,-19.0302874331346,0.99813980341629
2.53,-18.7797828448335,1.05043002048439
2.535,-18.4680650909895,1.09921946772884
2.54,-18.1014764951272,1.14316568253268
2.545,-17.6892882254579,1.18121960277345
2.55,-17.2424163291634,1.21270093462671
2.555,-16.7721473970842,1.23730108354065
2.56,-16.2891353087515,1.25503319028812
2.565,-15.8027709866229,1.26615598003154
2.57,-15.3208986897899,1.27109405071479
2.575,-14.8497882876117,1.27036846944946
2.58,-14.3942627272976,1.26454326782059
2.585,-13.9578993569422,1.2541880384438
2.59,-13.5432499173403,1.23985409522423
2.595,-13.15204814313,1.22206088722252
2.6,-12.7853901953522,1.20128959357143
2.605,-12.4438836620522,1.17798139488426
2.61,-12.1277662709297,1.1525386396984
2.615,-11.8369979725909,1.12532760517238
2.62,-11.5713306098179,1.09668205487268
2.625,-11.3303596137125,1.06690705866017
2.63,-11.1135610232784,1.0362827570996
2.635,-10.920317256568,1.00506789016539
2.64,-10.7499336815018,0.973502994596245
2.645,-10.6016479988221,0.941813212737532
2.65,-10.4746338811468,0.910210688155201
2.655,-10.3679999210031,0.87889653088641
2.66,-10.2807847188515,0.848062337745331
2.665,-10.2119488758202,0.817891244798644
2.67,-10.1603645636725,0.788558481689885
2.675,-10.1248031362191,0.760231381454445
2.68,-10.1039218167209,0.733068807640611
2.685,-10.0962500314057,0.707219930502013
2.69,-10.1001768433912,0.68282230751703
2.695,-10.1139406844839,0.659999223109124
2.7,-10.1356233876907,0.638856282581483
2.705,-10.1631504673211,0.619477290929907
2.71,-10.1943002207212,0.601919538862699
2.715,-10.2267239625528,0.586208694875203
2.72,-10.2579797521747,0.572333652879414
2.725,-10.2855810795161,0.560241783997261
2.73,-10.3070608409338,0.549835166720872
2.735,-10.3200492710172,0.540968449274578
2.74,-10.3223619637673,0.533448968110258
2.745,-10.3120922027889,0.527039634943962
2.75,-10.2876996317618,0.521464855548202
2.755,-10.2480862414438,0.516419383581728
2.76,-10.1926511516329,0.51157962638597
2.765,-10.121317446664,0.506616522690339
2.77,-10.0345276315242,0.501208864118668
2.775,-9.93320811812912,0.495055863740013
2.78,-9.81870726447862,0.487887883350272
2.785,-9.69271408353372,0.47947453793099
2.79,-9.55716667532601,0.46962978708638
2.795,-9.41415893886213,0.458214009052903
2.8,-9.2658532424854,0.445133396971048
2.805,-9.11440436812306,0.43033722117474
2.81,-8.96189778808436,0.41381360645235
2.815,-8.81030326869436,0.39558444112752
2.82,-8.66144307894909,0.375699971326866
2.825,-8.51697306951968,0.354233503421316
2.83,-8.3783742446703,0.331276499035768
2.835,-8.24695243786006,0.306934250373252
2.84,-8.12384372336498,0.281322203113249
2.845,-8.0100235316972,0.254562953481444
2.85,-7.90631789992836,0.226783868147182
2.855,-7.81341546436715,0.198115274830321
2.86,-7.73187931632265,0.168689141675558
2.865,-7.66215799041144,0.13863816686497
2.87,-7.60459518489834,0.108095199470232
2.875,-7.55943778957914,0.0771929209973681
2.88,-7.52684216934294,0.0460637197549366
2.885,-7.50687850716095,0.0148397043821646
2.89,-7.49953314272155,-0.0163472062970207
2.895,-7.50470894902361,-0.047365157348102
2.9,-7.52222373613001,-0.0780822557041338
2.905,-7.5518066091862,-0.108366529069965
2.91,-7.59309250466932,-0.138086012206886
2.915,-7.64561490887318,-0.167108999207594
2.92,-7.70879693108619,-0.195304539349093
2.925,-7.78194105574375,-0.222543234726738
2.93,-7.86421798567974,-0.248698413928942
2.935,-7.9546551451542,-0.273647755291156
2.94,-8.05212574247179,-0.297275437085997
2.945,-8.15533951680534,-0.319474872282547
2.95,-8.26283668120791,-0.340152064420259
2.955,-8.37298682782291,-0.359229598429207
2.96,-8.48399495949119,-0.37665118213308
2.965,-8.59391695525256,-0.39238661677089
2.97,-8.70068659430125,-0.406436936372419
2.975,-8.80215605949836,-0.418839350536765
2.98,-8.8961507664075,-0.429671509066166
2.985,-8.98053806494273,-0.43905451908177
2.99,-9.05330753035328,-0.447154104676876
2.995,-9.11265825479681,-0.454179368620973
3,-9.15708681133132,-0.460378781389572
3.005,-9.18546774779584,-0.466033293521461
3.01,-9.19711833823494,-0.471446827299191
3.015,-9.19184016532491,-0.476934783406665
3.02,-9.1699324431426,-0.482811489184004
3.025,-9.132175418493,-0.489377701207999
3.03,-9.07978587003815,-0.496909260927284
3.035,-9.01435007912028,-0.505647811005307
3.04,-8.93774174503251,-0.515794170350833
3.045,-8.85203332376168,-0.527504585443272
3.05,-8.75940860147334,-0.54088972675318
3.055,-8.66208284164288,-0.556016041500744
3.06,-8.56223471347428,-0.572908889189484
3.065,-8.46195220615384,-0.591556878169958
3.07,-8.36319272310321,-0.611916823833601
3.075,-8.26775646058368,-0.63391885785043
3.08,-8.1772710060386,-0.657471338804939
3.085,-8.09318506448364,-0.682465324166581
3.09,-8.0167689256261,-0.708778474303472
3.095,-7.94911954584802,-0.736278323429398
3.1,-7.89116851371082,-0.764824945516859
3.105,-7.84369129176838,-0.794273037711601
3.11,-7.80731670351796,-0.8244735064247
3.115,-7.78253575866753,-0.855274625523783
3.12,-7.76970911818109,-0.886522852284119
3.125,-7.76907294469825,-0.918063383460608
3.13,-7.78074264552141,-0.949740525480102
3.135,-7.80471445255138,-0.981397962657169
3.14,-7.84086472163347,-1.01287899123201
3.145,-7.88894691375588,-1.04402679374694
3.15,-7.94858631907396,-1.07468483696044
3.155,-8.01927269704937,-1.10469746392533
3.16,-8.10035109175444,-1.13391077082205
3.165,-8.19101123745024,-1.16217385786858
3.17,-8.29027624176911,-1.18934054390587
3.175,-8.39699138914426,-1.21527163753497
3.18,-8.50981440173508,-1.23983784130915
3.185,-8.62720870833794,-1.26292335371337
3.19,-8.7474417784874,-1.28443016549172
3.195,-8.86859095526886,-1.30428302243535
3.2,-8.98855934138595,-1.32243488568148
3.205,-9.10510441009379,-1.33887263680313
3.21,-9.21588148537136,-1.35362263256773
3.215,-9.31850331772407,-1.36675554634427
3.22,-9.41061546270447,-1.37838987365822
3.225,-9.48998486020285,-1.38869338184883
3.23,-9.55459676226091,-1.39788189087788
3.235,-9.60275242871636,-1.40621492440675
3.24,-9.63315862001997,-1.41398812502746
3.245,-9.64499918710477,-1.42152272216495
3.25,-9.63798021307577,-1.42915278770312
3.255,-9.61234315735861,-1.43721136985598
3.26,-9.56884425614507,-1.44601678407118
3.265,-9.50870285934825,-1.45586031341162
3.27,-9.43352529398751,-1.46699634290597
3.275,-9.34521298196528,-1.47963555029393
3.28,-9.24586470376526,-1.4939413554661
3.285,-9.13768162273091,-1.51002941048921
3.29,-9.02288211867701,-1.52796964203843
3.295,-8.90363072236465,-1.54779017764559
3.3,-8.78198316803611,-1.5694824647908
3.305,-8.65984749849204,-1.59300696262066
3.31,-8.53895966534863,-1.61829887998601
3.315,-8.420871451713,-1.64527361111202
3.32,-8.30694797336,-1.67383162109813
3.325,-8.1983722990028,-1.70386265919393
3.33,-8.09615482895198,-1.73524927345046
3.335,-8.0011456309743,-1.76786964166473
3.34,-7.91404818116144,-1.80159977789347
3.345,-7.83543340492817,-1.83631520259794
3.35,-7.76575330355532,-1.87189214493095
3.355,-7.705353562664,-1.90820837710613
3.36,-7.65448484545032,-1.94514374492765
3.365,-7.61331263830034,-1.98258046456261
3.37,-7.58192551739501,-2.02040325284961
3.375,-7.56034183295517,-2.05849932426526
3.38,-7.54851491461667,-2.09675831820893
3.385,-7.54633679750581,-2.13507217583241
3.39,-7.55364052597559,-2.17333500782846
3.395,-7.57020127788049,-2.21144297903008
3.4,-7.59573617789794,-2.24929423712846
3.405,-7.62990312033138,-2.28678891026166
3.41,-7.67229862661535,-2.32382919440331
3.415,-7.72245486320986,-2.36031956535932
3.42,-7.77983606568282,-2.39616713081807
3.425,-7.84383456396533,-2.43128214868303
3.43,-7.91376667958439,-2.46557874480129
3.435,-7.98886883373645,-2.49897583687285
3.44,-8.06829435150272,-2.53139829917769
3.445,-8.15111138521371,-2.56277836294296
3.45,-8.23630267498415,-2.59305726226056
3.455,-8.32276770016216,-2.62218709774333
3.46,-8.40932806008295,-2.65013288886013
3.465,-8.49473678224729,-2.6768747358789
3.47,-8.57769216761266,-2.70241001189946
3.475,-8.65685678382084,-2.72675543675192
3.48,-8.73088179889702,-2.74994889184847
3.485,-8.79843644683751,-2.77205077539148
3.49,-8.8582420995099,-2.79314472354263
3.495,-8.90910959312925,-2.81333750128065
3.5,-8.94997815008876,-2.83275791800727
3.505,-8.97995341058874,-2.85155468607328
3.51,-8.99834223869352,-2.86989321078487
3.515,-9.00468138457748,-2.8879514121502
3.52,-8.99875776462935,-2.90591476827793
3.525,-8.98061857786475,-2.92397086508877
3.53,-8.95057028716858,-2.94230380308185
3.535,-8.90916657114085,-2.96108879493894
3.54,-8.85718632194473,-2.98048731120578
3.545,-8.79560350143288,-3.00064303477547
3.55,-8.72555142412974,-3.02167880478854
3.555,-8.64828399798191,-3.0436946291662
3.56,-8.56513657182097,-3.06676675039883
3.565,-8.47748856789411,-3.09094766114344
3.57,-8.38672967521771,-3.11626692645105
3.575,-8.29423058874331,3.14045269962315
3.58,-8.20131903711101,3.11285219242437
3.585,-8.10926101681858,3.08414600812944
3.59,-8.01924702315381,3.0543786743017
3.595,-7.93238269794184,3.02360795708495
3.6,-7.84968322866477,2.99190284296977
3.605,-7.77207069544575,2.95934171205199
3.61,-7.70037365030819,2.92601073040466
3.615,-7.63532829203338,2.89200248024207
3.62,-7.57758055041429,2.85741481939492
3.625,-7.52768859144458,2.82234996189276
3.63,-7.48612536710605,2.78691374792672
3.635,-7.45328074905394,2.75121508846233
3.64,-7.42946305243029,2.71536554147306
3.645,-7.41489970221375,2.67947899460058
3.65,-7.40973685139601,2.64367141391867
3.655,-7.41403782341258,2.60806063138706
3.66,-7.42778031343687,2.57276611751514
3.665,-7.45085230082636,2.53790871619871
3.67,-7.48304662401473,2.5036102833207
3.675,-7.52405434527557,2.4699931825824
3.68,-7.57345697993808,2.43717959369905
3.685,-7.63071789532397,2.40529056424931
3.69,-7.695173170499,2.37444475279951
3.695,-7.76602253278338,2.34475680115933
3.7,-7.8423210754937,2.31633527736888
3.705,-7.92297267441009,2.28928015088757
3.71,-8.00672651633995,2.26367977021777
3.715,-8.09217796150919,2.23960736223943
3.72,-8.17777567364467,2.21711711056525
3.725,-8.26183659982105,2.19623994617676
3.73,-8.34257053780496,2.17697925341395
3.735,-8.41811562842276,2.15930679814137
3.74,-8.48658521604527,2.14315925332058
3.745,-8.54612570651055,2.12843577408087
3.75,-8.59498345303161,2.11499707473917
3.755,-8.6315771277698,2.10266643318999
3.76,-8.65457064444355,2.09123290624891
3.765,-8.66294047809465,2.08045683898238
3.77,-8.65603093588062,2.07007749212914
3.775,-8.63359158583998,2.05982232922004
3.78,-8.59579257129907,2.04941727614743
3.785,-8.54321608148259,2.03859710587196
3.79,-8.47682493800786,2.02711509711004
3.795,-8.39791179861195,2.0147512129323
3.8,-8.30803443644549,2.00131826421907
3.805,-8.2089434997886,1.9866658002873
3.81,-8.10250902538238,1.97068172700649
3.815,-7.99065108259794,1.95329189128924
3.82,-7.87527864850366,1.93445801837733
3.825,-7.75823896557279,1.91417444863706
3.83,-7.6412784063695,1.89246414379788
3.835,-7.52601450852626,1.86937435683793
3.84,-7.41391812198544,1.84497228837148
3.845,-7.30630401613552,1.81934097892563
3.85,-7.20432828880523,1.79257557692278
3.855,-7.10899083092854,1.76478006412584
3.86,-7.02114129858784,1.73606447574598
3.865,-6.94148728976215,1.70654258563903
3.87,-6.87060380856362,1.67633002986504
3.875,-6.80894299589968,1.6455428140568
3.88,-6.75684383577722,1.61429614065645
3.885,-6.71454121520379,1.5827035056769
3.89,-6.68217424742724,1.55087600093561
3.895,-6.65979365773476,1.51892177454597
3.9,-6.6473682039446,1.48694560498029
3.905,-6.64479018117178,1.45504854641185
3.91,-6.65188001552993,1.4233276080454
3.915,-6.66839017466426,1.39187544461155
3.92,-6.69400841021737,1.36078002852358
3.925,-6.72836057724947,1.3301242805612
3.93,-6.77101323313315,1.29998565223558
3.935,-6.82147616815126,1.27043563178336
3.94,-6.87920517391706,1.24153918864515
3.945,-6.94360528763105,1.21335413462762
3.95,-7.01403474593431,1.18593041752026
3.955,-7.08980999645509,1.15930935935789
3.96,-7.17021195261253,1.13352285603528
3.965,-7.25449385181121,1.10859256972919
3.97,-7.34189080027352,1.08452915582297
3.975,-7.4316312662552,1.06133156632204
3.98,-7.52295046122856,1.03898649513089
3.985,-7.61510562671876,1.01746801317242
3.99,-7.70739294677902,0.99673747594756
3.995,-7.79916573724928,0.97674374571668
4,-7.8898534020235,0.957423792543797
