"Freq [GHz]","dB(S(Antenna1_1_1,Antenna1_1_1)) []","ang_rad(S(Antenna1_1_1,Antenna1_1_1)) [rad]"
2.5,-19.8831244577316,1.06906457058634
2.505,-19.2470004738359,1.12044095467024
2.51,-18.6146973929953,1.15641018534301
2.515,-18.0070832366275,1.17962137223924
2.52,-17.4358594036938,1.192533258678
2.525,-16.9067605176486,1.19726072832201
2.53,-16.4218441271302,1.19555972099014
2.535,-15.9809853230505,1.18886745674459
2.54,-15.5828036207699,1.17835730338958
2.545,-15.2252186496314,1.16499124709152
2.55,-14.9057735486325,1.14956421077302
2.555,-14.6218160171797,1.13273932315634
2.56,-14.3705936761107,1.1150750042786
2.565,-14.1492985503864,1.0970452227926
2.57,-13.9550822109978,1.07905417526392
2.575,-13.7850553972234,1.06144652178695
2.58,-13.6362810103529,1.0445139889276
2.585,-13.5057670209995,1.02849909263509
2.59,-13.3904640580492,1.0135965360705
2.595,-13.2872718339874,0.999952861608471
2.6,-13.1930575345554,0.987664899858088
2.605,-13.1046885671858,0.976777643236876
2.61,-13.0190811623089,0.967282224413864
2.615,-12.9332641366304,0.959114740919805
2.62,-12.8444555727511,0.952156656322037
2.625,-12.750147504918,0.946237450457428
2.63,-12.6481917364314,0.94113995141202
2.635,-12.5368780867115,0.936608510189469
2.64,-12.4149962578865,0.932359747099538
2.645,-12.2818734427443,0.928095228284566
2.65,-12.1373824405759,0.923515078553452
2.655,-11.9819186321014,0.918331366520752
2.66,-11.8163483405048,0.912280125273214
2.665,-11.6419343231901,0.905131067933202
2.67,-11.4602465786371,0.89669441343696
2.675,-11.273067391753,0.886824642884259
2.68,-11.082298704945,0.875421350897332
2.685,-10.8898783640194,0.862427654299139
2.69,-10.6977093794757,0.847826763945449
2.695,-10.5076042255414,0.831637354341129
2.7,-10.3212442028619,0.813908326359542
2.705,-10.1401526558312,0.79471344855898
2.71,-9.96567987746362,0.774146227260313
2.715,-9.79899738879303,0.752315247332405
2.72,-9.64109911872004,0.729340095448975
2.725,-9.49280734741768,0.705347918962417
2.73,-9.35478160642192,0.680470599089924
2.735,-9.22752907540978,0.654842484612786
2.74,-9.11141540508612,0.628598612031113
2.745,-9.00667519213557,0.601873329876157
2.75,-8.91342157630854,0.574799242361454
2.755,-8.83165467306046,0.547506397477656
2.76,-8.76126871890987,0.520121639069096
2.765,-8.70205785913256,0.49276806699702
2.77,-8.65372067186685,0.46556454173384
2.775,-8.61586362050484,0.43862518500114
2.78,-8.58800356222348,0.412058837275827
2.785,-8.56956970542066,0.385968428510997
2.79,-8.55990518555238,0.360450239684311
2.795,-8.55826882344735,0.335593030335222
2.8,-8.56383735895032,0.311477023249734
2.805,-8.57570869575162,0.288172739784876
2.81,-8.59290668035019,0.265739703381168
2.815,-8.61438790355742,0.244225037811735
2.82,-8.63905106767927,0.223662005752342
2.825,-8.66574933579142,0.204068554659558
2.83,-8.69330601102041,0.185445955872203
2.835,-8.72053365518509,0.167777642961167
2.84,-8.74625656115923,0.151028364620088
2.845,-8.76933616805162,0.13514377805217
2.85,-8.78869860682247,0.12005059514197
2.855,-8.80336331793572,0.105657383008681
2.86,-8.81247128675187,0.0918560770013581
2.865,-8.81531126555216,0.0785242184618173
2.87,-8.81134227704697,0.0655278782809194
2.875,-8.80021082904409,0.0527251505716275
2.88,-8.78176153028974,0.0399700633596478
2.885,-8.75604024528796,0.0271166951519735
2.89,-8.72328962187606,0.0140232737960911
2.895,-8.68393720784174,0.00055603037043801
2.9,-8.63857715201044,-0.0134073899696879
2.905,-8.58794682669513,-0.027975118081573
2.91,-8.53289996571888,-0.0432389468581805
2.915,-8.47437800495155,-0.0592729560876597
2.92,-8.41338133425101,-0.0761328494026909
2.925,-8.3509417237819,-0.0938559403764991
2.93,-8.28809710081465,-0.112461690468059
2.935,-8.22586936555614,-0.131952677444125
2.94,-8.16524561195745,-0.152315874017121
2.945,-8.10716289665776,-0.173524122910835
2.95,-8.05249633760351,-0.195537706502413
2.955,-8.00205027407493,-0.218305925604227
2.96,-7.95655205621978,-0.241768629020386
2.965,-7.91664796048887,-0.265857649941718
2.97,-7.88290078791134,-0.290498118949676
2.975,-7.85578866608215,-0.315609648312168
2.98,-7.83570465312967,-0.341107386136383
2.985,-7.82295680157671,-0.366902949764002
2.99,-7.81776836855921,-0.392905258288547
2.995,-7.82027798139677,-0.419021283828985
3,-7.83053954787597,-0.445156748873651
3.005,-7.84852186275931,-0.471216797303421
3.01,-7.87410783190866,-0.497106667349617
3.015,-7.90709335906793,-0.522732398533741
3.02,-7.9471859492608,-0.548001599474404
3.025,-7.99400319978633,-0.572824305324596
3.03,-8.0470714025486,-0.597113952683152
3.035,-8.10582450610295,-0.620788489103453
3.04,-8.16960384639526,-0.643771636907582
3.045,-8.23765906286521,-0.66599431506043
3.05,-8.30915067552226,-0.687396214205068
3.055,-8.38315490247256,-0.707927499913961
3.06,-8.45867127528454,-0.727550616198236
3.065,-8.53463352556737,-0.746242106966267
3.07,-8.60992427059752,-0.763994387534882
3.075,-8.68339366789152,-0.78081734947186
3.08,-8.75388216242697,-0.796739667094533
3.085,-8.82024694488302,-0.811809672994999
3.09,-8.88139147179567,-0.82609565173201
3.095,-8.93629691313345,-0.839685434374949
3.1,-8.98405402147481,-0.852685192940214
3.105,-9.02389360538568,-0.865217401350498
3.11,-9.05521359489749,-0.877417977078618
3.115,-9.0776007659224,-0.889432705982532
3.12,-9.09084546471957,-0.901413111414704
3.125,-9.09494806692037,-0.913512000419649
3.13,-9.09011672017455,-0.925878937881102
3.135,-9.07675645705869,-0.938655925086448
3.14,-9.05545062865982,-0.951973527374051
3.145,-9.02693605166009,-0.965947649169829
3.15,-8.99207377120845,-0.980677091240356
3.155,-8.95181739947747,-0.996241951959796
3.16,-8.90718099418313,-1.01270286049406
3.165,-8.85920817704114,-1.03010097639412
3.17,-8.80894379331723,-1.0484586449689
3.175,-8.75740912340169,-1.06778056739676
3.18,-8.70558104138579,-1.08805535250199
3.185,-8.65437538715383,-1.1092573032857
3.19,-8.60463434102468,-1.13134832532375
3.195,-8.55711747866106,-1.1542798546533
3.2,-8.5124960596908,-1.17799473100099
3.205,-8.47134998433379,-1.20242896408788
3.21,-8.43416692261781,-1.22751335728737
3.215,-8.40134310233916,-1.25317497798133
3.22,-8.37318530786028,-1.2793384686484
3.225,-8.34991374787495,-1.30592720764277
3.23,-8.33166543646106,-1.33286432937822
3.235,-8.31849796237419,-1.36007362674755
3.24,-8.31039335837829,-1.38748035044053
3.245,-8.30726207110062,-1.41501192680579
3.25,-8.30894693824841,-1.44259861002025
3.255,-8.31522717047637,-1.47017408828727
3.26,-8.32582235649753,-1.49767605547651
3.265,-8.34039660754641,-1.52504675848271
3.27,-8.35856280401051,-1.55223353067772
3.275,-8.37988718231084,-1.57918931053268
3.28,-8.40389424139778,-1.60587314797535
3.285,-8.43007213598023,-1.63225069288606
3.29,-8.45787863065338,-1.65829465480652
3.295,-8.4867476912346,-1.68398522549621
3.3,-8.51609674971216,-1.70931044172174
3.305,-8.54533464684044,-1.73426647164955
3.31,-8.57387027115529,-1.75885780552347
3.315,-8.6011217207161,-1.78309732195643
3.32,-8.62652589401985,-1.80700621458127
3.325,-8.64954833474247,-1.83061375621001
3.33,-8.66969299570554,-1.85395688833634
3.335,-8.68651170395291,-1.87707962739192
3.34,-8.69961296481862,-1.90003229177867
3.345,-8.70866977043034,-1.92287055127881
3.35,-8.71342611130415,-1.94565433111929
3.355,-8.71370189568889,-1.96844658770854
3.36,-8.7093960650099,-1.99131200006183
3.365,-8.70048777190606,-2.01431561648162
3.37,-8.68703555415242,-2.03752150447272
3.375,-8.66917458937692,-2.06099144675478
3.38,-8.64711213330563,-2.0847837306759
3.385,-8.62112138822712,-2.10895206301544
3.39,-8.59153410275576,-2.13354464270703
3.395,-8.55873218576969,-2.15860341445851
3.4,-8.52313873048393,-2.18416350213751
3.405,-8.48520875490151,-2.21025283828207
3.41,-8.44541997047127,-2.23689196991619
3.415,-8.40426387050332,-2.26409403146255
3.42,-8.3622373428436,-2.29186486190252
3.425,-8.31983497528392,-2.32020325030096
3.43,-8.27754215378657,-2.34910127536606
3.435,-8.23582902982224,-2.37854472340098
3.44,-8.19514534904019,-2.40851355947279
3.445,-8.15591612387117,-2.43898242804948
3.45,-8.11853808915467,-2.46992117315123
3.455,-8.08337687729479,-2.50129535702435
3.46,-8.05076481567634,-2.53306676936749
3.465,-8.0209992644373,-2.56519392306425
3.47,-7.9943413879658,-2.59763252142145
3.475,-7.97101528133613,-2.63033590790961
3.48,-7.95120737843178,-2.66325548539707
3.485,-7.9350660653065,-2.69634111610676
3.49,-7.9227014183559,-2.72954149960166
3.495,-7.91418506541358,-2.76280453343635
3.5,-7.90955008572983,-2.79607766592825
3.505,-7.908790986852,-2.8293082379035
3.51,-7.91186367669553,-2.86244382659649
3.515,-7.91868549479016,-2.89543259376044
3.52,-7.92913531300304,-2.92822364345953
3.525,-7.94305370558646,-2.96076739379845
3.53,-7.960243258445,-2.99301596889779
3.535,-7.98046907652677,-3.02492361173778
3.54,-8.00345953603413,-3.05644712007347
3.545,-8.02890738759829,-3.08754630766879
3.55,-8.05647125245898,-3.11818448365496
3.555,-8.08577764327931,3.13485635621294
3.56,-8.11642356796565,3.10523379287433
3.565,-8.14797983182014,3.07615632062013
3.57,-8.17999504798613,3.04764162644249
3.575,-8.21200050279387,3.01970143376059
3.58,-8.2435157976156,2.99234108969823
3.585,-8.27405534881975,2.96555922298271
3.59,-8.30313562424644,2.93934749677701
3.595,-8.33028306467692,2.91369047548305
3.6,-8.35504248785465,2.88856563295354
3.605,-8.37698580491391,2.86394351632097
3.61,-8.39572078084266,2.83978808271019
3.615,-8.41089950976195,2.81605721181348
3.62,-8.42222633429767,2.7927033994072
3.625,-8.42946483183675,2.76967461837149
3.63,-8.43244357626841,2.74691532773269
3.635,-8.43106040105373,2.72436760362954
3.64,-8.42528492064039,2.70197235537421
3.645,-8.41515920107361,2.67967058686685
3.65,-8.40079650599085,2.65740465325908
3.655,-8.38237817700337,2.63511947630833
3.66,-8.36014875954472,2.61276366990231
3.665,-8.33440960515989,2.59029054026522
3.67,-8.3055112203123,2.56765893310054
3.675,-8.27384466545887,2.54483390863211
3.68,-8.23983234607308,2.52178722807322
3.685,-8.20391852043629,2.4984976539749
3.69,-8.16655983265348,2.47495107003115
3.695,-8.12821613216362,2.4511404300904
3.7,-8.08934180184905,2.42706555746062
3.705,-8.05037779495554,2.40273281215812
3.71,-8.01174442709981,2.37815464960285
3.715,-7.97383509561249,2.35334909393579
3.72,-7.93701086102081,2.32833914278127
3.725,-7.90159595904571,2.30315212675314
3.73,-7.8678741766285,2.27781903739889
3.735,-7.83608605545873,2.25237383669126
3.74,-7.8064268967029,2.22685276092857
3.745,-7.77904547496811,2.20129362448647
3.75,-7.75404344685037,2.1757351322913
3.755,-7.73147537651879,2.15021620491431
3.76,-7.71134937391341,2.12477531784152
3.765,-7.69362830276054,2.09944986222537
3.77,-7.67823153898839,2.07427552526271
3.775,-7.66503727619313,2.04928569751939
3.78,-7.65388538432343,2.0245109099244
3.785,-7.64458079723602,1.99997830463665
3.79,-7.63689744068654,1.97571114717248
3.795,-7.63058269097746,1.95172838910122
3.8,-7.62536233537622,1.92804428634371
3.805,-7.6209459989248,1.90466808552337
3.81,-7.61703299512075,1.88160378894551
3.815,-7.61331851485091,1.85885000487514
3.82,-7.60950003622492,1.83639989585534
3.825,-7.60528388301125,1.81424123021584
3.83,-7.60039173152824,1.79235654367855
3.835,-7.59456694521448,1.77072341021924
3.84,-7.58758055282778,1.74931482548868
3.845,-7.57923670870043,1.72809968958315
3.85,-7.56937745139666,1.70704338635892
3.855,-7.55788665260459,1.68610844040519
3.86,-7.54469298562012,1.66525523199225
3.865,-7.52977189738734,1.64444275549853
3.87,-7.51314646278744,1.62362939045108
3.875,-7.49488720670904,1.6027736672814
3.88,-7.47511086250015,1.58183500210047
3.885,-7.45397822918073,1.56077438206352
3.89,-7.43169117898915,1.53955497957717
3.895,-7.40848903138866,1.51814268658419
3.9,-7.38464442241784,1.49650655433813
3.905,-7.36045884860273,1.47461913851474
3.91,-7.33625808133433,1.45245674455768
3.915,-7.31238759762018,1.42999958067027
3.92,-7.28920816446489,1.40723182345347
3.925,-7.26709172548061,1.38414160747446
3.93,-7.24641767119946,1.36072094798174
3.935,-7.22756955443387,1.33696561391971
3.94,-7.21093232323298,1.31287495943342
3.945,-7.19689005225734,1.28845173118827
3.95,-7.18582423212728,1.26370186243153
3.955,-7.17811253034666,1.23863426403465
3.96,-7.17412805828728,1.21326062516584
3.965,-7.17423905636446,1.18759523099778
3.97,-7.17880897507159,1.1616548041026
3.975,-7.18819691080812,1.13545837959289
3.98,-7.20275830791787,1.10902721378523
3.985,-7.22284591130685,1.08238473707909
3.99,-7.24881090771562,1.05555654781725
3.995,-7.28100419749504,1.02857045790181
4,-7.31977775499937,1.00145658618239
