"Freq [GHz]","dB(S(Antenna1_1_1,Antenna1_1_1)) []","ang_rad(S(Antenna1_1_1,Antenna1_1_1)) [rad]"
2.5,-19.5203666261543,0.909488708686876
2.505,-19.202317524347,0.960139043663843
2.51,-18.8564738439778,1.00347631157679
2.515,-18.4941665078499,1.03997735344901
2.52,-18.1239887639641,1.07025428067253
2.525,-17.7521892671522,1.0949576164728
2.53,-17.3831512094623,1.11471713336682
2.535,-17.019847775859,1.13011056823605
2.54,-16.6642271418367,1.14165075164522
2.545,-16.3175160762649,1.14978382943783
2.55,-15.9804484994104,1.15489353750062
2.555,-15.6534316461679,1.1573083020787
2.56,-15.3366632615457,1.15730925108937
2.565,-15.0302118539034,1.15513805907116
2.57,-14.7340697916526,1.15100406655872
2.575,-14.4481870051603,1.14509046534788
2.58,-14.1724909444507,1.13755946264277
2.585,-13.9068973392232,1.12855650735413
2.59,-13.6513147550801,1.11821364842549
2.595,-13.4056454088309,1.10665215798302
2.6,-13.1697837243945,1.09398452972218
2.605,-12.9436137239426,1.08031595912298
2.61,-12.7270062109816,1.0657454287313
2.615,-12.5198159728322,1.05036645622921
2.62,-12.3218794325639,1.03426760268564
2.625,-12.1330129096103,1.01753279201599
2.63,-11.9530114506355,1.00024149355851
2.635,-11.7816483617216,0.982468807018017
2.64,-11.6186753048905,0.964285482412593
2.645,-11.4638229473475,0.945757901022557
2.65,-11.3168020983573,0.926948032451702
2.655,-11.1773052554969,0.907913382639296
2.66,-11.0450084726914,0.888706948608037
2.665,-10.9195735142285,0.869377181145683
2.67,-10.8006502209419,0.849967962703121
2.675,-10.6878790114546,0.83051860898996
2.68,-10.5808935139601,0.81106388944005
2.685,-10.4793232151396,0.791634073330033
2.69,-10.3827961577394,0.7722550004343
2.695,-10.2909415916221,0.752948173946922
2.7,-10.2033925880094,0.733730879138843
2.705,-10.1197885518436,0.714616322470385
2.71,-10.0397776514852,0.695613791767547
2.715,-9.9630191117665,0.676728835790783
2.72,-9.88918538406287,0.657963460092493
2.725,-9.81796416240026,0.639316339568838
2.73,-9.74906024504678,0.620783044187008
2.735,-9.68219726754247,0.602356276623897
2.74,-9.61711922784886,0.584026123231829
2.745,-9.55359189059916,0.565780313190412
2.75,-9.49140401160076,0.547604488541379
2.755,-9.43036838618614,0.529482482022035
2.76,-9.37032272293943,0.511396605137719
2.765,-9.31113033399733,0.493327943498332
2.77,-9.25268062315181,0.475256656977039
2.775,-9.19488936287191,0.457162289558373
2.78,-9.13769874813304,0.43902408141672
2.785,-9.08107720273451,0.420821283917293
2.79,-9.02501893521053,0.402533475049825
2.795,-8.96954322678605,0.384140872035025
2.8,-8.91469343732688,0.365624637562652
2.805,-8.86053574707566,0.346967175131345
2.81,-8.80715760270315,0.328152411921362
2.815,-8.75466591598693,0.309166060774957
2.82,-8.70318498648179,0.289995861032064
2.825,-8.65285421648323,0.270631792938102
2.83,-8.6038256016744,0.25106625999044
2.835,-8.55626105995087,0.231294241041841
2.84,-8.5103296217291,0.211313403082168
2.845,-8.46620451912574,0.19112418035048
2.85,-8.42406021800158,0.170729812008512
2.855,-8.38406943179431,0.150136342460167
2.86,-8.34640015430939,0.129352582806494
2.865,-8.31121274187685,0.108390034157396
2.87,-8.27865709916128,0.0872627742067075
2.875,-8.2488699667528,0.0659873080768819
2.88,-8.22197237840495,0.0445823870418246
2.885,-8.19806727637325,0.0230687936565677
2.89,-8.17723734015901,0.00146909847835529
2.895,-8.1595430220998,-0.0201926110029135
2.9,-8.14502085468582,-0.0418910288960544
2.905,-8.1336819913682,-0.0635999510276967
2.91,-8.1255110657338,-0.0852926181845974
2.915,-8.12046535339508,-0.106942078432928
2.92,-8.1184742804914,-0.128521565190826
2.925,-8.1194392969595,-0.150004890065864
2.93,-8.12323415391207,-0.171366844942538
2.935,-8.12970560732071,-0.192583608518724
2.94,-8.13867456968756,-0.213633153683487
2.945,-8.14993775260497,-0.234495647851056
2.95,-8.16326979527678,-0.255153837721756
2.955,-8.17842589972543,-0.275593414386028
2.96,-8.1951449778675,-0.295803341170254
2.965,-8.21315327871847,-0.315776142849753
2.97,-8.23216846727211,-0.335508138785446
2.975,-8.25190410080591,-0.354999612244551
2.98,-8.27207442235281,-0.374254904208718
2.985,-8.29239937460531,-0.393282424415708
2.99,-8.31260971551554,-0.41209457008058
2.995,-8.33245207526593,-0.430707549170179
3,-8.35169385044041,-0.449141106896025
3.005,-8.37012770913593,-0.467418156935214
3.01,-8.38757560986989,-0.48556432343291
3.015,-8.40389214471476,-0.503607405783337
3.02,-8.41896708723011,-0.521576778808173
3.025,-8.43272704228121,-0.539502745777772
3.03,-8.44513612724924,-0.557415866356412
3.035,-8.45619565063998,-0.575346278626873
3.04,-8.46594278884145,-0.593323038388254
3.045,-8.47444832105519,-0.611373497814735
3.05,-8.48181351466443,-0.629522740619281
3.055,-8.48816625494308,-0.647793092130196
3.06,-8.49365660233807,-0.666203717392074
3.065,-8.49845189998597,-0.684770313193752
3.07,-8.50273161210322,-0.703504903421026
3.075,-8.5066820692124,-0.722415734407815
3.08,-8.51049125671363,-0.741507268666745
3.085,-8.51434378864586,-0.760780272365069
3.09,-8.51841620284936,-0.780231986053159
3.095,-8.52287265285849,-0.799856367673605
3.1,-8.52786107772516,-0.819644400112255
3.105,-8.53350990743471,-0.83958444797103
3.11,-8.53992532446134,-0.859662652535347
3.115,-8.54718910062793,-0.879863356940497
3.12,-8.55535699809451,-0.900169544781013
3.125,-8.5644577328547,-0.920563292632719
3.13,-8.57449247355435,-0.941026217842748
3.135,-8.58543483125002,-0.961539923275585
3.14,-8.59723134517598,-0.982086428859279
3.145,-8.609802395205,-1.00264858479282
3.15,-8.62304353335878,-1.02321046578362
3.155,-8.63682720244536,-1.04375773784762
3.16,-8.65100480333633,-1.06427799763662
3.165,-8.66540909444513,-1.08476108079442
3.17,-8.67985689483386,-1.10519933476873
3.175,-8.69415205910554,-1.12558785371257
3.18,-8.70808871230436,-1.1459246721247
3.185,-8.72145469557132,-1.16621091403511
3.19,-8.73403519402181,-1.18645089199827
3.195,-8.74561650649939,-1.20665215512706
3.2,-8.75598990544468,-1.22682548026592
3.205,-8.76495552241364,-1.24698480440042
3.21,-8.77232620670214,-1.26714709629478
3.215,-8.77793125132029,-1.28733216414052
3.22,-8.78161994275989,-1.30756240347387
3.225,-8.78326482447141,-1.32786248249519
3.23,-8.78276457576371,-1.34825897169814
3.235,-8.78004646143198,-1.36877992267248
3.24,-8.77506822021405,-1.38945440463732
3.245,-8.76781938042043,-1.41031200647707
3.25,-8.75832191119602,-1.43138231883924
3.255,-8.74663019518848,-1.45269440455074
3.26,-8.73283030670703,-1.47427627670366
3.265,-8.71703861982081,-1.49615439027582
3.27,-8.69939975544682,-1.5183531681914
3.275,-8.68008394704827,-1.54089456747799
3.28,-8.65928389798207,-1.56379770078619
3.285,-8.63721119001978,-1.58707851763283
3.29,-8.61409239693945,-1.61074955484384
3.295,-8.5901649505654,-1.63481975970734
3.3,-8.56567291138748,-1.65929438506433
3.305,-8.54086272226134,-1.6841749585725
3.31,-8.51597904873136,-1.70945932169181
3.315,-8.49126081100957,-1.73514173436905
3.32,-8.46693744249948,-1.7612130404711
3.325,-8.44322549117232,-1.78766088439536
3.33,-8.42032556401218,-1.8144699757594
3.335,-8.39841968250812,-1.84162239074085
3.34,-8.37766907436985,-1.86909790377617
3.345,-8.35821238801375,-1.89687434153335
3.35,-8.34016436560688,-1.92492795232462
3.355,-8.32361496491633,-1.95323378390022
3.36,-8.30862889685941,-1.98176606314454
3.365,-8.29524560363629,-2.01049857095066
3.37,-8.28347962786663,-2.03940500913208
3.375,-8.27332135652364,-2.0684593508706
3.38,-8.26473813119161,-2.09763617444666
3.385,-8.2576756754842,-2.12691097209655
3.39,-8.25205981319426,-2.15626043226486
3.395,-8.24779846781375,-2.18566269226145
3.4,-8.24478386347683,-2.2150975559937
3.405,-8.24289493409089,-2.24454667722688
3.41,-8.24199986592929,-2.27399370224972
3.415,-8.24195874711554,-2.30342437475843
3.42,-8.24262626402562,-2.3328265981298
3.425,-8.24385441470575,-2.36219045613436
3.43,-8.24549517204476,-2.3915081938527
3.435,-8.2474030426331,-2.42077415680875
3.44,-8.24943751113443,-2.44998469446074
3.445,-8.25146526549289,-2.47913802694142
3.45,-8.25336222205094,-2.50823408239501
3.455,-8.25501526248875,-2.53727430711569
3.46,-8.2563237083474,-2.5662614546631
3.465,-8.25720045731881,-2.59519935920537
3.47,-8.25757281354036,-2.62409269930392
3.475,-8.25738298832085,-2.65294675837516
3.48,-8.25658829114687,-2.68176718560419
3.485,-8.25516101241737,-2.71055976598834
3.49,-8.25308803356325,-2.73933020178898
3.495,-8.25037019031674,-2.76808391014011
3.5,-8.24702142609704,-2.79682584000077
3.505,-8.24306776163561,-2.82556031245109
3.51,-8.23854614272077,-2.854290882677
3.515,-8.23350318033732,-2.88302022663741
3.52,-8.22799383118351,-2.91175005170789
3.525,-8.22208005004025,-2.94048102896733
3.53,-8.21582944409218,-2.96921274799485
3.535,-8.20931394252077,-2.99794368982147
3.54,-8.20260851069768,-3.02667121606268
3.545,-8.1957899127213,-3.05539157520168
3.55,-8.18893553806286,-3.08409991856176
3.555,-8.18212227292277,-3.11279032750475
3.56,-8.1754254455651,-3.14145584963749
3.565,-8.16891781257702,3.11309676608494
3.57,-8.16266859997411,3.08450579140243
3.575,-8.15674256804314,3.05596630733343
3.58,-8.15119912452132,3.02748891585782
3.585,-8.14609144611708,2.99908498065223
3.59,-8.14146563200407,2.9707665555085
3.595,-8.13735986643579,2.94254630362643
3.6,-8.13380360808302,2.91443740975854
3.605,-8.13081680855668,2.88645348131628
3.61,-8.12840915835934,2.85860843910683
3.615,-8.12657939310847,2.83091639510315
3.62,-8.12531466938788,2.80339151802422
3.625,-8.12459002374351,2.77604788498149
3.63,-8.12436795744984,2.74889931979041
3.635,-8.12459815656494,2.72195921848138
3.64,-8.12521738755494,2.69524036340191
3.645,-8.12614958151659,2.66875472889543
3.65,-8.12730615817138,2.64251327789502
3.655,-8.12858658067213,2.61652575883957
3.66,-8.1298791836544,2.59080050075682
3.665,-8.13106228384581,2.56534421662549
3.67,-8.13200556026179,2.54016181781822
3.675,-8.13257172870119,2.51525624564566
3.68,-8.13261847047404,2.49062832776485
3.685,-8.13200059978753,2.46627666294388
3.69,-8.13057243816456,2.44219754236514
3.695,-8.12819033896361,2.41838491038048
3.7,-8.1247153047934,2.39483037039325
3.705,-8.12001563983126,2.37152323641135
3.71,-8.11396955278406,2.34845063464763
3.715,-8.10646763846981,2.32559765144917
3.72,-8.09741516997479,2.3029475270937
3.725,-8.086734111642,2.28048189085333
3.73,-8.07436481138517,2.25818103127279
3.735,-8.06026729457858,2.23602419429777
3.74,-8.0444221448147,2.21398990045375
3.745,-8.02683092183978,2.19205627195907
3.75,-8.00751615048833,2.17020136070817
3.755,-7.98652084553263,2.14840346427886
3.76,-7.96390764709381,2.12664142694041
3.765,-7.9397575798666,2.10489491133744
3.77,-7.91416852040688,2.08314463915224
3.775,-7.88725340184455,2.06137259417249
3.78,-7.85913827496521,2.03956218458734
3.785,-7.82996024754556,2.01769836414595
3.79,-7.79986540562342,1.99576771251824
3.795,-7.76900676420401,1.97375847767098
3.8,-7.73754229794277,1.95166058188137
3.805,-7.70563310210831,1.92946559847842
3.81,-7.67344171696511,1.90716670163699
3.815,-7.64113062390732,1.88475859544142
3.82,-7.60886093424332,1.86223742823591
3.825,-7.57679127458266,1.83960069468841
3.83,-7.54507684034218,1.81684713171606
3.835,-7.51386862252867,1.79397661082402
3.84,-7.48331279761731,1.77099002922946
3.845,-7.4535502298172,1.74788920171751
3.85,-7.42471609687871,1.72467675474418
3.855,-7.3969396222963,1.7013560219393
3.86,-7.37034387137345,1.67793094237749
3.865,-7.34504564665257,1.6544059591884
3.87,-7.32115543810794,1.63078591956939
3.875,-7.29877745518696,1.6070759740392
3.88,-7.27800973776616,1.58328147503858
3.885,-7.25894435613457,1.5594078745704
3.89,-7.24166770705963,1.53546062015371
3.895,-7.22626093771391,1.51144505176918
3.9,-7.21280048856933,1.48736629792289
3.905,-7.20135878998874,1.46322917669881
3.91,-7.19200510830134,1.43903809941117
3.915,-7.184806568332,1.41479698479024
3.92,-7.17982932754448,1.39050918355756
3.925,-7.17713992894474,1.36617741788644
3.93,-7.17680681092286,1.34180374041725
3.935,-7.17890195523343,1.31738951519891
3.94,-7.18350265138987,1.29293542608992
3.945,-7.19069336422089,1.26844151279944
3.95,-7.20056765916166,1.243907240213
3.955,-7.21323014430734,1.21933160130081
3.96,-7.22879840298564,1.19471325524936
3.965,-7.2474048664819,1.17005070147544
3.97,-7.26919858278183,1.14534248805132
3.975,-7.29434686187957,1.1205874556754
3.98,-7.32303674206836,1.09578501239564
3.985,-7.35547625910262,1.07093543862248
3.99,-7.39189550463061,1.04604021968355
3.995,-7.43254744615552,1.02110240228126
4,-7.47770852266662,0.996126972736241
