"Freq [GHz]","re(S(Antenna1_1_1,Antenna1_1_1)) []","im(S(Antenna1_1_1,Antenna1_1_1)) []"
6,-0.113263430208961,0.031002496345774
6.001,-0.113378018375809,0.0312951984408328
6.002,-0.11349213419137,0.031589442846832
6.003,-0.113605745050072,0.0318852451251561
6.004,-0.113718817860039,0.0321826200559606
6.005,-0.113831319054118,0.0324815816302713
6.006,-0.113943214615897,0.0327821430360787
6.007,-0.114054470097719,0.0330843166454366
6.008,-0.114165050636708,0.0333881140065602
6.009,-0.114274920977781,0.0336935458289207
6.01,-0.114384045495572,0.0340006219773457
6.011,-0.114492388210542,0.0343093514591137
6.012,-0.114599912813905,0.034619742417055
6.013,-0.114706582686636,0.0349318021186453
6.014,-0.114812360921294,0.0352455369491081
6.015,-0.114917210343734,0.0355609524065082
6.016,-0.115021093534426,0.0358780530878518
6.017,-0.115123972850567,0.0361968426901855
6.018,-0.115225810448394,0.0365173239986912
6.019,-0.115326568305107,0.0368394988857882
6.02,-0.115426208241172,0.0371633683012271
6.021,-0.115524691943243,0.0374889322741925
6.022,-0.11562198098667,0.0378161899023982
6.023,-0.115718036857815,0.038145139354186
6.024,-0.115812820977663,0.0384757778646271
6.025,-0.115906294723932,0.0388081017306166
6.026,-0.11599841945458,0.0391421063139755
6.027,-0.11608915653058,0.0394777860365466
6.028,-0.116178467339035,0.0398151343812968
6.029,-0.116266313316086,0.0401541438934124
6.03,-0.116352655970274,0.0404948061783995
6.031,-0.116437456905357,0.0408371119081847
6.032,-0.1165206778433,0.0411810508182106
6.033,-0.116602280647388,0.0415266117105385
6.034,-0.116682227344927,0.0418737824599445
6.035,-0.116760480150457,0.0422225500150215
6.036,-0.116837001488058,0.0425729004032757
6.037,-0.116911754014457,0.0429248187362288
6.038,-0.116984700641235,0.0432782892125148
6.039,-0.117055804557234,0.0436332951269802
6.04,-0.117125029251062,0.0439898188747854
6.041,-0.117192338532899,0.0443478419605004
6.042,-0.1172576965568,0.0447073450022091
6.043,-0.117321067842004,0.0450683077446033
6.044,-0.117382417294936,0.0454307090620882
6.045,-0.117441710229908,0.0457945269728775
6.046,-0.117498912390527,0.0461597386440944
6.047,-0.117553989970598,0.0465263204068735
6.048,-0.117606909636121,0.0468942477644569
6.049,-0.1176576385423,0.0472634954022977
6.05,-0.117706144356542,0.047634037203156
6.051,-0.117752395276458,0.0480058462542027
6.052,-0.117796360049863,0.0483788948661157
6.053,-0.117838007995782,0.0487531545831831
6.054,-0.117877309018442,0.0491285961964004
6.055,-0.117914233632279,0.0495051897565715
6.056,-0.117948752972933,0.04988290459241
6.057,-0.11798083882225,0.0502617093256362
6.058,-0.118010463617278,0.0506415718820806
6.059,-0.118037600476267,0.0510224595107804
6.06,-0.118062223207664,0.0514043388020825
6.061,-0.118084306332116,0.0517871756987417
6.062,-0.11810382509146,0.0521709355200207
6.063,-0.118120755471725,0.0525555829727922
6.064,-0.118135074212124,0.0529410821756356
6.065,-0.118146758822052,0.0533273966719409
6.066,-0.118155787595083,0.0537144894510046
6.067,-0.118162139619961,0.0541023229661341
6.068,-0.118165794796595,0.0544908591557437
6.069,-0.118166733848057,0.0548800594604572
6.07,-0.118164938330571,0.0552698848452075
6.071,-0.118160390647509,0.0556602958173355
6.072,-0.118153074058382,0.0560512524486922
6.073,-0.118142972691836,0.0564427143976359
6.074,-0.118130071550638,0.0568346409254356
6.075,-0.118114356527673,0.0572269909219669
6.076,-0.118095814411932,0.0576197229255163
6.077,-0.118074432893505,0.0580127951441778
6.078,-0.11805020057757,0.0584061654785541
6.079,-0.118023106987381,0.0587997915430573
6.08,-0.117993142572264,0.0591936306883066
6.081,-0.117960298714598,0.0595876400238313
6.082,-0.117924567734808,0.0599817764403668
6.083,-0.117885942896355,0.0603759966323582
6.084,-0.11784441840972,0.0607702571210572
6.085,-0.117799989437393,0.0611645142769232
6.086,-0.11775265209786,0.0615587243432231
6.087,-0.117702403464591,0.0619528434583299
6.088,-0.117649241575024,0.0623468276792443
6.089,-0.117593165426554,0.0627406330045212
6.09,-0.117534174978511,0.0631342153975434
6.091,-0.117472271155157,0.0635275308096168
6.092,-0.117407455844659,0.0639205352029722
6.093,-0.117339731896081,0.0643131845740961
6.094,-0.117269103123361,0.064705434976996
6.095,-0.117195574297303,0.0650972425457842
6.096,-0.117119151149552,0.0654885635180732
6.097,-0.11703984036358,0.0658793542578783
6.098,-0.116957649576668,0.0662695712783138
6.099,-0.116872587373887,0.0666591712643948
6.1,-0.116784663283081,0.0670481110958338
6.101,-0.116693887767846,0.0674363478695412
6.102,-0.11660027222751,0.0678238389217248
6.103,-0.116503828987116,0.0682105418505858
6.104,-0.116404571289399,0.0685964145378219
6.105,-0.116302513291765,0.0689814151712213
6.106,-0.116197670054273,0.0693655022657662
6.107,-0.116090057535611,0.069748634684327
6.108,-0.115979692579072,0.0701307716624634
6.109,-0.115866592908538,0.0705118728239233
6.11,-0.11575077711645,0.0708918982077381
6.111,-0.11563226465279,0.0712708082823253
6.112,-0.115511075813053,0.0716485639705824
6.113,-0.115387231732229,0.0720251266679894
6.114,-0.115260754365772,0.0724004582627019
6.115,-0.11513166648558,0.0727745211546543
6.116,-0.114999991657967,0.0731472782756536
6.117,-0.114865754238639,0.0735186931074789
6.118,-0.114728979354666,0.0738887296979804
6.119,-0.114589692891459,0.0742573526841733
6.12,-0.11444792147974,0.0746245273063399
6.121,-0.114303692477515,0.0749902194261235
6.122,-0.114157033957047,0.0753543955426276
6.123,-0.11400797468883,0.0757170228145126
6.124,-0.113856544124556,0.0760780690660924
6.125,-0.113702772382092,0.076437502814433
6.126,-0.113544454362444,0.0767935616834471
6.127,-0.113383940423733,0.0771478453469943
6.128,-0.113221266020161,0.0775003274799738
6.129,-0.113056467101984,0.0778509826034248
6.13,-0.112889580098478,0.0781997860986201
6.131,-0.11272064189191,0.078546714216164
6.132,-0.112549689803505,0.0788917440860891
6.133,-0.112376761561414,0.0792348537249504
6.134,-0.112201895288682,0.0795760220489242
6.135,-0.112025129475215,0.0799152288749013
6.136,-0.111846502958147,0.0802524549365849
6.137,-0.111666054897806,0.0805876818825847
6.138,-0.111483824756579,0.0809208922885146
6.139,-0.111299852275579,0.0812520696620854
6.14,-0.111114177452411,0.0815811984472018
6.141,-0.110926840517634,0.081908264028059
6.142,-0.110737881912526,0.0822332527342339
6.143,-0.11054734226565,0.0825561518467844
6.144,-0.110355262370015,0.0828769495953404
6.145,-0.110161683159943,0.083195635166202
6.146,-0.109966645688026,0.083512198702431
6.147,-0.109770191101793,0.0838266313029467
6.148,-0.109572360620871,0.0841389250266213
6.149,-0.109373195513544,0.0844490728923712
6.15,-0.10917273707402,0.0847570688742545
6.151,-0.108971026599115,0.0850629079075608
6.152,-0.108768105365188,0.0853665858829094
6.153,-0.108564014605428,0.0856680996433386
6.154,-0.108358795486868,0.0859674469854021
6.155,-0.108152489087589,0.0862646266552611
6.156,-0.107945136374052,0.0865596383407773
6.157,-0.107736778178688,0.0868524826746067
6.158,-0.10752745517702,0.0871431612242904
6.159,-0.107317207866129,0.0874316764863506
6.16,-0.107106076541603,0.0877180318863792
6.161,-0.106894101276501,0.0880022317651337
6.162,-0.106681321898706,0.0882842813786262
6.163,-0.106467777969879,0.0885641868852176
6.164,-0.106253508763822,0.0888419553427094
6.165,-0.106038553245624,0.0891175946954331
6.166,-0.105822950050126,0.089391113768345
6.167,-0.105606737461566,0.0896625222571147
6.168,-0.105389953393541,0.089931830718218
6.169,-0.105172635366757,0.0901990505580273
6.17,-0.104954820492782,0.0904641940219014
6.171,-0.104736545452302,0.0907272741852789
6.172,-0.104517846472372,0.0909883049387651
6.173,-0.104298759314368,0.0912473009782259
6.174,-0.104079319250939,0.0915042777888745
6.175,-0.103859561045961,0.0917592516393642
6.176,-0.103639518942485,0.0920122395588756
6.177,-0.103419226637691,0.0922632593312089
6.178,-0.103198717271835,0.0925123294758707
6.179,-0.102978023406203,0.0927594692331644
6.18,-0.102757177011057,0.0930046985542798
6.181,-0.102536209446587,0.0932480380793803
6.182,-0.10231515144686,0.0934895091256934
6.183,-0.102094033104768,0.0937291336675968
6.184,-0.101872883859975,0.0939669343267095
6.185,-0.101651732477867,0.0942029343469771
6.186,-0.1014306070435,0.0944371575827607
6.187,-0.101209534939543,0.094669628479926
6.188,-0.100988542841232,0.0949003720569278
6.189,-0.100767656694308,0.0951294138868998
6.19,-0.100546901712971,0.0953567800807401
6.191,-0.100326302357819,0.0955824972661991
6.192,-0.100105882332801,0.0958065925699649
6.193,-0.0998856645681544,0.0960290935977503
6.194,-0.099665671214353,0.09625002841538
6.195,-0.0994459236270527,0.0964694255298744
6.196,-0.0992264423650329,0.0966873138665378
6.197,-0.0990072471721424,0.0969037227520416
6.198,-0.0987883569762404,0.0971186818905121
6.199,-0.0985697898781416,0.0973322213481127
6.2,-0.0983515631435564,0.0975443715256322
6.201,-0.0981336931960357,0.0977551631430664
6.202,-0.0979161956129108,0.0979646272160042
6.203,-0.0976990851162353,0.0981727950352123
6.204,-0.097482375569727,0.0983796981446174
6.205,-0.0972660799747074,0.0985853683207921
6.206,-0.0970502104590441,0.0987898375505361
6.207,-0.0968347782840881,0.0989931380101626
6.208,-0.0966197938316164,0.0991953020430784
6.209,-0.0964052666057701,0.0993963621385683
6.21,-0.0961912052309927,0.0995963509099782
6.211,-0.0959776174499707,0.0997953010724958
6.212,-0.0957645101185699,0.0999932454222352
6.213,-0.0955518892117752,0.100190216813516
6.214,-0.0953397598186273,0.100386248137559
6.215,-0.0951281261451604,0.100581372300861
6.216,-0.0949169915143392,0.100775622203175
6.217,-0.0947063583659954,0.100969030715983
6.218,-0.0944962282637643,0.101161630661032
6.219,-0.0942866018910205,0.101353454788551
6.22,-0.0940774790608142,0.101544535756086
6.221,-0.0938688587108053,0.101734906107134
6.222,-0.0936607389192004,0.101924598249827
6.223,-0.0934531168956851,0.10211364443601
6.224,-0.0932459889993603,0.102302076740322
6.225,-0.0930393507346757,0.102489927039171
6.226,-0.0928331967623622,0.102677226990817
6.227,-0.0926275209053677,0.10286400801395
6.228,-0.0924223161567874,0.103050301268365
6.229,-0.0922175746827994,0.103236137634642
6.23,-0.092013287837594,0.103421547694128
6.231,-0.0918094461673084,0.103606561709805
6.232,-0.0916060394179574,0.103791209606576
6.233,-0.0914030565513641,0.103975520952037
6.234,-0.0912004857470926,0.104159524938458
6.235,-0.090998314418377,0.104343250363655
6.236,-0.0907965292200538,0.104526725611966
6.237,-0.0905951160614897,0.104709978639333
6.238,-0.0903940601155144,0.104893036951371
6.239,-0.0901933458353469,0.105075927588447
6.24,-0.0899929569615272,0.105258677108754
6.241,-0.0897928765378444,0.105441311570384
6.242,-0.0895930869242644,0.105623856518408
6.243,-0.0893935698088598,0.105806336961945
6.244,-0.089194306223736,0.105988777366237
6.245,-0.088995276560961,0.106171201633726
6.246,-0.0887964605794906,0.106353633087123
6.247,-0.0885978374300971,0.106536094459485
6.248,-0.0883993856632952,0.106718607877284
6.249,-0.0882010832492682,0.106901194846484
6.25,-0.0880029075917954,0.107083876239611
6.251,-0.0878048355431761,0.107266672284825
6.252,-0.0876068434241568,0.107449602550992
6.253,-0.0874089070378551,0.107632685935756
6.254,-0.0872110016876861,0.10781594065561
6.255,-0.0870131021952856,0.107999384233967
6.256,-0.0868151829154348,0.108183033487231
6.257,-0.0866172177569854,0.108366904520866
6.258,-0.0864191801997814,0.108551012714467
6.259,-0.0862210433105848,0.108735372713831
6.26,-0.0860227797649966,0.108919998421025
6.261,-0.0858243618613816,0.109104902989455
6.262,-0.0856257615451892,0.109290098810937
6.263,-0.0854269504214773,0.109475597511762
6.264,-0.0852278997786336,0.109661409942768
6.265,-0.0850285806050962,0.109847546175407
6.266,-0.0848289636092779,0.110034015492811
6.267,-0.0846290192381836,0.110220826388861
6.268,-0.0844287176971352,0.110407986555256
6.269,-0.0842280289692883,0.110595502884575
6.27,-0.0840269228346554,0.110783381459347
6.271,-0.0838253688900251,0.110971627555119
6.272,-0.0836233365681805,0.111160245628516
6.273,-0.0834207951577211,0.111349239324313
6.274,-0.0832177138225796,0.111538611464496
6.275,-0.0830140616217427,0.111728364049329
6.276,-0.0828098075285682,0.11191849825842
6.277,-0.082604920450585,0.11210901444578
6.278,-0.0823993692490698,0.112299912139894
6.279,-0.0821931227584855,0.112491190047781
6.28,-0.0819861498059993,0.112682846048057
6.281,-0.0817784192306981,0.112874877198002
6.282,-0.0815698999034287,0.113067279732618
6.283,-0.0813605607454509,0.113260049064694
6.284,-0.0811503707480375,0.113453179788868
6.285,-0.0809392989911872,0.113646665683691
6.286,-0.0807273146632435,0.113840499714684
6.287,-0.080514387078709,0.114034674037403
6.288,-0.0803004856978601,0.114229179999501
6.289,-0.0800855801450646,0.114424008149782
6.29,-0.079869640226893,0.11461914823827
6.291,-0.0796526359507377,0.114814589221264
6.292,-0.079434537542823,0.115010319271397
6.293,-0.0792153154661225,0.1152063257767
6.294,-0.0789949404381716,0.115402595351656
6.295,-0.0787733834483806,0.115599113844261
6.296,-0.0785506157758504,0.115795866339084
6.297,-0.0783266090056824,0.115992837166321
6.298,-0.0781013350476944,0.116190009909858
6.299,-0.0778747661513313,0.116387367416324
6.3,-0.0776468749225789,0.11658489180215
6.301,-0.0774176343408745,0.116782564459625
6.302,-0.0771870177750206,0.116980366071955
6.303,-0.0769549989970959,0.117178276617315
6.304,-0.076721552204365,0.117376275379909
6.305,-0.0764866520231932,0.117574340963022
6.306,-0.0762502735379537,0.117772451293077
6.307,-0.0760123922929416,0.11797058363669
6.308,-0.0757729843162813,0.118168714607724
6.309,-0.0755320261288392,0.118366820178341
6.31,-0.0752894947621336,0.118564875691061
6.311,-0.0750453677672417,0.118762855873811
6.312,-0.074799623232713,0.118960734843979
6.313,-0.0745514430774752,0.119159844565469
6.314,-0.0743007133097465,0.119360103604748
6.315,-0.0740481813749411,0.119560104274907
6.316,-0.0737938301615808,0.119759814255704
6.317,-0.0735376432822022,0.11995920075862
6.318,-0.0732796050762633,0.120158230539911
6.319,-0.0730197006230549,0.120356869920655
6.32,-0.0727579157546048,0.120555084800806
6.321,-0.0724942370565882,0.12075284067824
6.322,-0.0722286518842322,0.12095010266381
6.323,-0.0719611483642261,0.121146835500391
6.324,-0.0716917154066246,0.121343003580933
6.325,-0.0714203427077576,0.121538570962505
6.326,-0.0711470207631352,0.121733501387346
6.327,-0.070871740867353,0.121927758299615
6.328,-0.0705944951230005,0.122121304862534
6.329,-0.070315276448564,0.122314103976339
6.33,-0.0700340785803346,0.122506118296725
6.331,-0.0697508960773118,0.122697310252795
6.332,-0.0694657243291096,0.122887642064603
6.333,-0.0691785595558617,0.123077075762103
6.334,-0.0688893988161244,0.123265573202291
6.335,-0.0685982400067836,0.123453096088455
6.336,-0.0683050818669565,0.123639605987616
6.337,-0.0680099239838985,0.123825064349172
6.338,-0.0677127667909041,0.124009432523148
6.339,-0.0674136115712132,0.124192671778232
6.34,-0.0671124604599134,0.124374743320623
6.341,-0.0668093164458421,0.124555608311674
6.342,-0.0665041833694923,0.124735227886653
6.343,-0.0661970659259128,0.124913563172861
6.344,-0.0658879696666131,0.12509057530791
6.345,-0.0655769009954635,0.125266225458181
6.346,-0.0652638671686003,0.125440474836657
6.347,-0.0649488762983246,0.125613284721495
6.348,-0.0646319373450073,0.125784616474096
6.349,-0.0643130601219889,0.125954431557047
6.35,-0.0639922552884809,0.126122691552459
6.351,-0.0636695343514691,0.126289358180009
6.352,-0.0633449096596116,0.126454393314675
6.353,-0.0630183944011431,0.126617759004879
6.354,-0.0626900026037729,0.126779417490324
6.355,-0.0623597491265873,0.12693933121973
6.356,-0.0620276496599496,0.127097462868676
6.357,-0.0616937207173986,0.127253775357131
6.358,-0.061357979635552,0.127408231867498
6.359,-0.0610204445640024,0.127560795860045
6.36,-0.0606811344642203,0.127711431094145
6.361,-0.0603400691034505,0.127860101643709
6.362,-0.0599972690456152,0.128006771910323
6.363,-0.0596527556502083,0.128151406649283
6.364,-0.0593065510601989,0.128293970977629
6.365,-0.058958678199928,0.12843443039718
6.366,-0.0586091607640055,0.128572750808569
6.367,-0.0582580232142124,0.128708898528273
6.368,-0.0579052907653953,0.12884284030465
6.369,-0.0575509893843676,0.128974543336971
6.37,-0.0571951457768041,0.129103975289452
6.371,-0.0568377873781419,0.129231104307286
6.372,-0.0564789423494768,0.129355899032672
6.373,-0.0561186395614592,0.129478328622854
6.374,-0.055756908589194,0.129598362765143
6.375,-0.0553937797001347,0.129715971690955
6.376,-0.0550292838459836,0.129831126190836
6.377,-0.0546634526465853,0.129943797632495
6.378,-0.0542963183868254,0.130053957976831
6.379,-0.053927913997527,0.130161579785964
6.38,-0.0535582730503444,0.130266636247264
6.381,-0.053187429741663,0.130369101181377
6.382,-0.0528154188804911,0.130468949059255
6.383,-0.0524422758783598,0.130566155015184
6.384,-0.0520680367332148,0.130660694863809
6.385,-0.0516927380203155,0.130752545110161
6.386,-0.0513164168741262,0.130841682964687
6.387,-0.050939110977215,0.130928086358271
6.388,-0.0505608585471476,0.131011733953262
6.389,-0.0501816983173801,0.131092605159502
6.39,-0.0498016695283571,0.131170680141345
6.391,-0.0494208119084029,0.131245939837686
6.392,-0.0490391656596189,0.131318365966984
6.393,-0.0486567714421754,0.131387941045284
6.394,-0.0482736703583073,0.131454648393244
6.395,-0.0478899039360078,0.131518472153154
6.396,-0.0475055141124204,0.131579397291961
6.397,-0.0471205432167359,0.131637409620288
6.398,-0.0467350339535821,0.131692495800462
6.399,-0.0463490293849208,0.131744643352529
6.4,-0.0459625729123379,0.131793840672278
6.401,-0.0455757082595387,0.13184007703226
6.402,-0.0451884794532405,0.131883342598812
6.403,-0.0448009308050629,0.13192362843607
6.404,-0.0444131068924852,0.131960926516996
6.405,-0.0440250525394538,0.13199522973139
6.406,-0.043636812797179,0.132026531892916
6.407,-0.0432484329242235,0.132054827747112
6.408,-0.0428599583666978,0.132080112979414
6.409,-0.0424714347377893,0.132102384222172
6.41,-0.0420829077972367,0.132121639059665
6.411,-0.0416944234310207,0.13213787603612
6.412,-0.0413060276298538,0.132151094656725
6.413,-0.0409177664681757,0.13216129540065
6.414,-0.04052968608254,0.132168479719057
6.415,-0.0401418326505101,0.132172650042119
6.416,-0.0397542523677459,0.132173809782031
6.417,-0.0393669914270981,0.132171963338028
6.418,-0.0389800959952982,0.132167116098395
6.419,-0.0385936121911467,0.132159274440485
6.42,-0.038207586062408,0.132148445737726
6.421,-0.0378220635636967,0.132134638357639
6.422,-0.0374370905324719,0.132117861661847
6.423,-0.0370527126654233,0.132098126010088
6.424,-0.036668975499865,0.132075442757225
6.425,-0.0362859243821225,0.132049824253261
6.426,-0.0359036044504251,0.132021283844342
6.427,-0.0355220606117941,0.131989835866774
6.428,-0.0351413375109324,0.131955495647032
6.429,-0.0347614795161151,0.131918279502763
6.43,-0.0343825306880773,0.131878204730803
6.431,-0.0340045347589059,0.131835289611181
6.432,-0.0336275351089251,0.131789553398127
6.433,-0.0332515747405893,0.13174101631608
6.434,-0.0328766962553703,0.131689699554698
6.435,-0.0325029418316448,0.13163562526186
6.436,-0.0321303531955863,0.131578816533676
6.437,-0.0317589716050504,0.131519297413491
6.438,-0.0313888378174664,0.131457092877892
6.439,-0.0310199920707226,0.131392228830711
6.44,-0.030652474061058,0.131324732090034
6.441,-0.030286322913948,0.131254630384198
6.442,-0.029921577164993,0.131181952334803
6.443,-0.0295582747338075,0.131106727450708
6.444,-0.029196452902906,0.131028986109041
6.445,-0.0288361482955937,0.130948759551195
6.446,-0.0284773968478512,0.130866079861835
6.447,-0.0281202337922245,0.130780979959896
6.448,-0.0277646936307104,0.130693493580589
6.449,-0.0274108101156462,0.130603655262397
6.45,-0.0270586162235959,0.130511500332077
6.451,-0.026708144141236,0.130417064884661
6.452,-0.026359425234246,0.130320385767456
6.453,-0.0260124900361918,0.130221500564039
6.454,-0.0256673682204159,0.130120447576363
