"Freq [GHz]","re(S(Antenna1_1_1,Antenna1_1_1)) []","im(S(Antenna1_1_1,Antenna1_1_1)) []"
6,-0.113267575884961,0.030869709227774
6.001,-0.113385234766809,0.0311626324408328
6.002,-0.11350241209537,0.031457163764832
6.003,-0.113619074091072,0.0317533184211561
6.004,-0.113735186500039,0.0320511108399606
6.005,-0.113850714603118,0.0323505546542713
6.006,-0.113965623243897,0.0326516626850787
6.007,-0.114079876841719,0.0329544469284366
6.008,-0.114193439411708,0.0332589185495602
6.009,-0.114306274586081,0.0335650878679207
6.01,-0.114418345632272,0.0338729643483457
6.011,-0.114529615472542,0.0341825565911137
6.012,-0.114640046705105,0.034493872325055
6.013,-0.114749601624336,0.0348069183956453
6.014,-0.114858242241094,0.0351217007601081
6.015,-0.114965930304134,0.0354382244765082
6.016,-0.115072627320826,0.0357564936978518
6.017,-0.115178294578767,0.0360765116641855
6.018,-0.115282893166994,0.0363982806996912
6.019,-0.115386383998007,0.0367218022027882
6.02,-0.115488727829472,0.0370470766442271
6.021,-0.115589885286443,0.0373741035581925
6.022,-0.11568981688337,0.0377028815423982
6.023,-0.115788483046425,0.038033408252186
6.024,-0.115885844136263,0.0383656803966271
6.025,-0.115981860470252,0.0386996937386166
6.026,-0.11607649234539,0.0390354430879754
6.027,-0.11616970006086,0.0393729223045466
6.028,-0.116261443941035,0.0397121242962968
6.029,-0.116351684358586,0.0400530410164124
6.03,-0.116440381756974,0.0403956634633995
6.031,-0.116527496673656,0.0407399816851847
6.032,-0.1166129897633,0.0410859847782106
6.033,-0.116696821820488,0.0414336608875385
6.034,-0.116778953803027,0.0417829972099445
6.035,-0.116859346854857,0.0421339800000215
6.036,-0.116937962328758,0.0424865945682757
6.037,-0.117014761809857,0.0428408252882288
6.038,-0.117089707137835,0.0431966556015148
6.039,-0.117162760430334,0.0435540680199802
6.04,-0.117233884105162,0.0439130441357854
6.041,-0.117303040902799,0.0442735646215004
6.042,-0.1173701939107,0.0446356092432091
6.043,-0.117435306582004,0.0449991568626033
6.044,-0.117498342761936,0.0453641854490882
6.045,-0.117559266705908,0.0457306720858775
6.046,-0.117618043104527,0.0460985929780944
6.047,-0.117674637102597,0.0464679234658735
6.048,-0.117729014325121,0.046838638029457
6.049,-0.1177811408923,0.0472107103052977
6.05,-0.117830983445542,0.047584113093156
6.051,-0.117878509165458,0.0479588183682027
6.052,-0.117923685793863,0.0483347972961157
6.053,-0.117966481653782,0.0487120202431831
6.054,-0.118006865668442,0.0490904567904004
6.055,-0.118044807382279,0.0494700757465715
6.056,-0.118080276979933,0.04985084516341
6.057,-0.11811324530425,0.0502327323506362
6.058,-0.118143683876278,0.0506157038910806
6.059,-0.118171564911267,0.0509997256557804
6.06,-0.118196861341664,0.0513847628200825
6.061,-0.118219546829116,0.0517707798807417
6.062,-0.11823959578246,0.0521577406750207
6.063,-0.118256983379725,0.0525456083937922
6.064,-0.118271685578124,0.0529343456046356
6.065,-0.118283679132052,0.0533239142669409
6.066,-0.118292941609083,0.0537142757520046
6.067,-0.118299451406961,0.0541053908631341
6.068,-0.118303187763595,0.0544972198517437
6.069,-0.118304130775057,0.0548897224444572
6.07,-0.118302261405571,0.0552828578542075
6.071,-0.118297561505509,0.0556765848113355
6.072,-0.118290013818382,0.0560708615747922
6.073,-0.118279601996836,0.0564656459621359
6.074,-0.118266310611638,0.0568608953657356
6.075,-0.118250125166673,0.0572565667775669
6.076,-0.118231032102932,0.0576526168105163
6.077,-0.118209018815505,0.0580490017220778
6.078,-0.11818407365557,0.0584456774362541
6.079,-0.118156185945381,0.0588425995680573
6.08,-0.118125345983264,0.0592397234458066
6.081,-0.118091545051598,0.0596370041356313
6.082,-0.118054775424808,0.0600343964651668
6.083,-0.118015030374355,0.0604318550475582
6.084,-0.11797230417372,0.0608293343059572
6.085,-0.117926592107393,0.0612267884979232
6.086,-0.11787789046986,0.0616241717399231
6.087,-0.117826196575591,0.0620214380322899
6.088,-0.117771508757024,0.0624185412839043
6.089,-0.117713826370553,0.0628154353372212
6.09,-0.117653149795511,0.0632120739933234
6.091,-0.117589480440157,0.0636084110369168
6.092,-0.117522820738659,0.0640044002618722
6.093,-0.117453174150081,0.0643999954956961
6.094,-0.117380545163361,0.064795150625496
6.095,-0.117304939290303,0.0651898196227842
6.096,-0.117226363067552,0.0655839565686732
6.097,-0.11714482405158,0.0659775156789783
6.098,-0.117060330818668,0.0663704513297138
6.099,-0.116972892956887,0.0667627180816948
6.1,-0.116882521065081,0.0671542707053338
6.101,-0.116789226747846,0.0675450642062412
6.102,-0.11669302260751,0.0679350538490248
6.103,-0.116593922239116,0.0683241951822858
6.104,-0.116491940225399,0.0687124440642219
6.105,-0.116387092124765,0.0690997566832213
6.106,-0.116279394467273,0.0694860895877662
6.107,-0.116168864744611,0.069871399704327
6.108,-0.116055521399072,0.0702556443634634
6.109,-0.115939383817538,0.0706387813259232
6.11,-0.11582047231345,0.0710207688007381
6.111,-0.11569880812579,0.0714015654723253
6.112,-0.115574413398053,0.0717811305205824
6.113,-0.115447311170229,0.0721594236439894
6.114,-0.115317525368772,0.0725364050817019
6.115,-0.11518508078358,0.0729120356356543
6.116,-0.115050003065967,0.0732862766906536
6.117,-0.114912318703639,0.0736590902364789
6.118,-0.114772055012666,0.0740304388869804
6.119,-0.11462924011746,0.0744002859021733
6.12,-0.11448390293874,0.0747685952073399
6.121,-0.114336073172515,0.0751353314101235
6.122,-0.114185781274047,0.0755004598246276
6.123,-0.11403305844183,0.0758639464845127
6.124,-0.113877936599556,0.0762257581630924
6.125,-0.113720448376092,0.076585862391433
6.126,-0.113558281777444,0.0769423611084471
6.127,-0.113393905785733,0.0772969824509943
6.128,-0.113227358692161,0.0776496995759738
6.129,-0.113058679308984,0.0780004865774248
6.13,-0.112887906942478,0.0783493184916201
6.131,-0.11271508137391,0.078696171311164
6.132,-0.112540242832505,0.0790410219980891
6.133,-0.112363431969414,0.0793838484869504
6.134,-0.112184689836682,0.0797246296979243
6.135,-0.112004057859215,0.0800633455479013
6.136,-0.111821577808347,0.0803999769535849
6.137,-0.111637291782106,0.0807345058395847
6.138,-0.111451242174279,0.0810669151475146
6.139,-0.111263471650779,0.0813971888410854
6.14,-0.111074023123811,0.0817253119072018
6.141,-0.110882939725934,0.082051270368059
6.142,-0.110690264783926,0.0823750512772339
6.143,-0.11049604179305,0.0826966427287844
6.144,-0.110300314390715,0.0830160338563404
6.145,-0.110103126330543,0.083333214836202
6.146,-0.109904521456226,0.083648176889431
6.147,-0.109704543675193,0.0839609122799467
6.148,-0.109503236933171,0.0842714143146213
6.149,-0.109300645187184,0.0845796773473712
6.15,-0.10909681238061,0.0848856967712545
6.151,-0.108891782416565,0.0851894690185608
6.152,-0.108685599132368,0.0854909915599094
6.153,-0.108478306273898,0.0857902628993386
6.154,-0.108269947469968,0.0860872825674021
6.155,-0.108060566206989,0.0863820511232611
6.156,-0.107850205803452,0.0866745701417773
6.157,-0.107638909385388,0.0869648422126067
6.158,-0.10742671986092,0.0872528709302904
6.159,-0.107213679896229,0.0875386608913506
6.16,-0.106999831890603,0.0878222176803792
6.161,-0.106785217952401,0.0881035478651336
6.162,-0.106569879875406,0.0883826589886262
6.163,-0.106353859114879,0.0886595595552176
6.164,-0.106137196764322,0.0889342590257094
6.165,-0.105919933532524,0.0892067678004331
6.166,-0.105702109720926,0.089477097213345
6.167,-0.105483765200866,0.0897452595161147
6.168,-0.105264939390541,0.090011267866218
6.169,-0.105045671238757,0.0902751363170273
6.17,-0.104825999193782,0.0905368798009014
6.171,-0.104605961191302,0.0907965141142789
6.172,-0.104385594631372,0.0910540559077651
6.173,-0.104164936356368,0.0913095226642259
6.174,-0.103944022632939,0.0915629326898745
6.175,-0.103722889132961,0.0918143050943642
6.176,-0.103501570912485,0.0920636597738756
6.177,-0.103280102397691,0.0923110173992089
6.178,-0.103058517363835,0.0925563993888707
6.179,-0.102836848917203,0.0927998279011644
6.18,-0.102615129483057,0.0930413258112798
6.181,-0.102393390782587,0.0932809166913803
6.182,-0.10217166382286,0.0935186247956934
6.183,-0.101949978876768,0.0937544750365968
6.184,-0.101728365471975,0.0939884929687095
6.185,-0.101506852374867,0.0942207047669771
6.186,-0.1012854675775,0.0944511372077607
6.187,-0.101064238283543,0.094679817645926
6.188,-0.100843190896232,0.0949067739959277
6.189,-0.100622351006308,0.0951320347098998
6.19,-0.100401743378971,0.0953556287557401
6.191,-0.100181391945819,0.0955775855971991
6.192,-0.0999613197938013,0.0957979351699649
6.193,-0.0997415491521544,0.0960167078607503
6.194,-0.099522101387353,0.09623393448338
6.195,-0.0993029969930527,0.0964496462608744
6.196,-0.099084255579033,0.0966638747955378
6.197,-0.0988658958701425,0.0968766520540416
6.198,-0.0986479356932404,0.0970880103376121
6.199,-0.0984303919741416,0.0972979822638127
6.2,-0.0982132807315564,0.0975066007415322
6.201,-0.0979966170700357,0.0977138989480664
6.202,-0.0977804151799108,0.0979199103057042
6.203,-0.0975646883292353,0.0981246684588123
6.204,-0.097349448860727,0.0983282072504174
6.205,-0.0971347081917074,0.0985305606984921
6.206,-0.0969204768090441,0.0987317629730361
6.207,-0.0967067642710881,0.0989318483727626
6.208,-0.0964935792036164,0.0991308513014784
6.209,-0.0962809292987701,0.0993288062449683
6.21,-0.0960688213209927,0.0995257477480782
6.211,-0.0958572610989707,0.0997217103910958
6.212,-0.0956462535355699,0.0999167287670752
6.213,-0.0954358026057752,0.100110837458886
6.214,-0.0952259113566273,0.100304071016169
6.215,-0.0950165819151604,0.100496463932811
6.216,-0.0948078154903392,0.100688050624535
6.217,-0.0945996123759954,0.100878865406183
6.218,-0.0943919719567643,0.101068942469632
6.219,-0.0941848927110205,0.101258315862051
6.22,-0.0939783722218142,0.101447019463586
6.221,-0.0937724071758053,0.101635086966134
6.222,-0.0935669933762004,0.101822551851727
6.223,-0.0933621257476851,0.10200944737141
6.224,-0.0931577983443603,0.102195806524322
6.225,-0.0929540043566757,0.102381662037071
6.226,-0.0927507361213623,0.102567046343217
6.227,-0.0925479851333677,0.10275199156325
6.228,-0.0923457420487874,0.102936529484765
6.229,-0.0921439967017994,0.103120691542842
6.23,-0.091942738110594,0.103304508801428
6.231,-0.0917419544903084,0.103488011932705
6.232,-0.0915416332649574,0.103671231199576
6.233,-0.0913417610783641,0.103854196441037
6.234,-0.0911423238060926,0.104036937045458
6.235,-0.090943306567377,0.104219481942655
6.236,-0.0907446937400538,0.104401859579966
6.237,-0.0905464689734897,0.104584097909333
6.238,-0.0903486152005144,0.104766224368371
6.239,-0.0901511146513469,0.104948265866447
6.24,-0.0899539488725272,0.105130248767754
6.241,-0.0897570987358444,0.105312198875384
6.242,-0.0895605444562644,0.105494141418408
6.243,-0.0893642656068598,0.105676101035945
6.244,-0.089168241132736,0.105858101763237
6.245,-0.088972449370961,0.106040167019726
6.246,-0.0887768680614906,0.106222319592123
6.247,-0.0885814743670971,0.106404581626485
6.248,-0.0883862448892952,0.106586974611284
6.249,-0.0881911556852682,0.106769519369484
6.25,-0.0879961822827953,0.106952236044611
6.251,-0.087801299699176,0.107135144088825
6.252,-0.0876064824611568,0.107318262254992
6.253,-0.0874117046168551,0.107501608586756
6.254,-0.0872169397586861,0.10768520040261
6.255,-0.0870221610392856,0.107869054297967
6.256,-0.0868273411884348,0.108053186124231
6.257,-0.0866324525339854,0.108237610987866
6.258,-0.0864374670177813,0.108422343242467
6.259,-0.0862423562145848,0.108607396476831
6.26,-0.0860470913529966,0.108792783510025
6.261,-0.0858516433303817,0.108978516387455
6.262,-0.0856559827339892,0.109164606371937
6.263,-0.0854600798603773,0.109351063937762
6.264,-0.0852639047317336,0.109537898766768
6.265,-0.0850674271165962,0.109725119741407
6.266,-0.0848706165484779,0.109912734944811
6.267,-0.0846734423445836,0.110100751651861
6.268,-0.0844758736248351,0.110289176329256
6.269,-0.0842778793313883,0.110478014628575
6.27,-0.0840794282465554,0.110667271389347
6.271,-0.0838804890130251,0.110856950631119
6.272,-0.0836810301517805,0.111047055554516
6.273,-0.0834810200815211,0.111237588541313
6.274,-0.0832804271376796,0.111428551148496
6.275,-0.0830792195907427,0.111619944112329
6.276,-0.0828773656654182,0.11181176734742
6.277,-0.082674833559368,0.11200401994678
6.278,-0.0824715914615798,0.112196700178894
6.279,-0.0822676075710655,0.112389805494781
6.28,-0.0820628501154993,0.112583332525057
6.281,-0.0818572873690981,0.112777277085002
6.282,-0.0816508876714287,0.112971634172618
6.283,-0.0814436194452509,0.113166397974694
6.284,-0.0812354512148375,0.113361561869868
6.285,-0.0810263516232872,0.113557118428691
6.286,-0.0808162894510435,0.113753059420684
6.287,-0.080605233633209,0.113949375816403
6.288,-0.0803931532766601,0.114146057793501
6.289,-0.0801800176783646,0.114343094739782
6.29,-0.079965796341493,0.11454047525827
6.291,-0.0797504589932377,0.114738187174264
6.292,-0.079533975601523,0.114936217540397
6.293,-0.0793163163919225,0.1151345526407
6.294,-0.0790974518621716,0.115333177999656
6.295,-0.0788773528023806,0.115532078389261
6.296,-0.0786559903088504,0.115731237832084
6.297,-0.0784333357986824,0.115930639613321
6.298,-0.0782093610296944,0.116130266283858
6.299,-0.0779840381113313,0.116330099671324
6.3,-0.0777573395225789,0.11653012088915
6.301,-0.0775292381288745,0.116730310339625
6.302,-0.0772997071920206,0.116930647729955
6.303,-0.0770687203910959,0.117131112074315
6.304,-0.076836251833365,0.117331681706909
6.305,-0.0766022760671932,0.117532334292022
6.306,-0.0763667681019537,0.117733046830077
6.307,-0.0761297034159416,0.11793379567269
6.308,-0.0758910579722813,0.118134556527724
6.309,-0.0756508082348392,0.118335304473341
6.31,-0.0754089311781336,0.118536013967061
6.311,-0.0751654043022417,0.118736658858811
6.312,-0.074920205644713,0.118937212396979
6.313,-0.0746724692334752,0.119139038716469
6.314,-0.0744220791397465,0.119342052657748
6.315,-0.0741698300499411,0.119544811644907
6.316,-0.0739157048985808,0.119747282451704
6.317,-0.0736596873442022,0.11994943138662
6.318,-0.0734017617732633,0.120151224306911
6.319,-0.0731419133150549,0.120352626637655
6.32,-0.0728801278496048,0.120553603381806
6.321,-0.0726163920115882,0.12075411914224
6.322,-0.0723506932052322,0.12095413813381
6.323,-0.0720830196102261,0.121153624202391
6.324,-0.0718133601866246,0.121352540839933
6.325,-0.0715417046877576,0.121550851202505
6.326,-0.0712680436601352,0.121748518123446
6.327,-0.070992368460353,0.121945504135715
6.328,-0.0707146712490005,0.122141771484634
6.329,-0.070434945009564,0.122337282146639
6.33,-0.0701531835453346,0.122531997846325
6.331,-0.0698693814883118,0.122725880073895
6.332,-0.0695835343051096,0.122918890102103
6.333,-0.0692956382988617,0.123110989004403
6.334,-0.0690056906191244,0.123302137671891
6.335,-0.0687136892597836,0.123492296831655
6.336,-0.0684196330669565,0.123681427064016
6.337,-0.0681235217428985,0.123869488820672
6.338,-0.0678253558459041,0.124056442442448
6.339,-0.0675251367972132,0.124242248177632
6.34,-0.0672228668819134,0.124426866199453
6.341,-0.0669185492488421,0.124610256624644
6.342,-0.0666121879174923,0.124792379531475
6.343,-0.0663037877749128,0.124973194977991
6.344,-0.0659933545796131,0.12515266302021
6.345,-0.0656808949624635,0.125330743730581
6.346,-0.0653664164256003,0.125507397216257
6.347,-0.0650499273443246,0.125682583637295
6.348,-0.0647314369660073,0.125856263225496
6.349,-0.0644109554119889,0.126028396302547
6.35,-0.0640884936704809,0.126198943298459
6.351,-0.0637640636054691,0.126367864770209
6.352,-0.0634376779446116,0.126535121420375
6.353,-0.0631093502851431,0.126700674115179
6.354,-0.0627790950877729,0.126864483903324
6.355,-0.0624469276765873,0.12702651203463
6.356,-0.0621128642339496,0.127186719978276
6.357,-0.0617769217973986,0.127345069441231
6.358,-0.061439118258552,0.127501522387498
6.359,-0.0610994723570024,0.127656041055045
6.36,-0.0607580036742203,0.127808587975145
6.361,-0.0604147326344505,0.127959125991709
6.362,-0.0600696804936152,0.128107618279323
6.363,-0.0597228693372083,0.128254028358283
6.364,-0.0593743220751989,0.128398320118629
6.365,-0.059024062431928,0.12854045783218
6.366,-0.0586721149430055,0.128680406176569
6.367,-0.0583185049482124,0.128818130249273
6.368,-0.0579632585833953,0.12895359558765
6.369,-0.0576064027723676,0.129086768183971
6.37,-0.0572479652188041,0.129217614508452
6.371,-0.0568879743981419,0.129346101522286
6.372,-0.0565264595504768,0.129472196695672
6.373,-0.0561634506674592,0.129595868029854
6.374,-0.055798978488194,0.129717084069143
6.375,-0.0554330744831347,0.129835813919955
6.376,-0.0550657708469836,0.129952027270836
6.377,-0.0546971004885852,0.130065694403495
6.378,-0.0543270970198254,0.130176786216831
6.379,-0.053955794739527,0.130285274237964
6.38,-0.0535832286283444,0.130391130640264
6.381,-0.053209434330663,0.130494328263377
6.382,-0.0528344481464911,0.130594840623255
6.383,-0.0524583070153598,0.130692641932184
6.384,-0.0520810485012148,0.130787707113809
6.385,-0.0517027107853155,0.130880011818161
6.386,-0.0513233326441262,0.130969532439687
6.387,-0.050942953439215,0.131056246126271
6.388,-0.0505616131021476,0.131140130800262
6.389,-0.0501793521153801,0.131221165170502
6.39,-0.0497962115004571,0.131299328747345
6.391,-0.0494122328013029,0.131374601855686
6.392,-0.0490274580650189,0.131446965649984
6.393,-0.0486419298271754,0.131516402126284
6.394,-0.0482556910939073,0.131582894138244
6.395,-0.0478687853237078,0.131646425406154
6.396,-0.0474812564101204,0.131706980532961
6.397,-0.0470931486626359,0.131764545016288
6.398,-0.0467045067882821,0.131819105256462
6.399,-0.0463153758720208,0.131870648572529
6.4,-0.0459258013579379,0.131919163212278
6.401,-0.0455358290285387,0.13196463836126
6.402,-0.0451455049849405,0.132007064154812
6.403,-0.0447548756266629,0.13204643168707
6.404,-0.0443639876299752,0.132082733022996
6.405,-0.0439728879273438,0.13211596120239
6.406,-0.043581623685639,0.132146110256916
6.407,-0.0431902422843235,0.132173175208112
6.408,-0.0427987912935978,0.132197152082414
6.409,-0.0424073184514893,0.132218037919172
6.41,-0.0420158716415367,0.132235830770665
6.411,-0.0416244988697207,0.13225052971612
6.412,-0.0412332482415538,0.132262134861725
6.413,-0.0408421679376757,0.13227064734965
6.414,-0.04045130619134,0.132276069362057
6.415,-0.0400607112636101,0.132278404123119
6.416,-0.0396704314192459,0.132277655908031
6.417,-0.0392805149027981,0.132273830039028
6.418,-0.0388910099134982,0.132266932894395
6.419,-0.0385019645811467,0.132256971908485
6.42,-0.038113426939908,0.132243955569726
6.421,-0.0377254449036967,0.132227893427639
6.422,-0.0373380662434719,0.132208796088847
6.423,-0.0369513385584233,0.132186675218088
6.424,-0.036565309249865,0.132161543537225
6.425,-0.0361800255001225,0.132133414823261
6.426,-0.0357955342414251,0.132102303906342
6.427,-0.0354118821367941,0.132068226669774
6.428,-0.0350291155469324,0.132031200039032
6.429,-0.0346472805081151,0.131991241988763
6.43,-0.0342664227070773,0.131948371525803
6.431,-0.0338865874539059,0.131902608694181
6.432,-0.0335078196559251,0.131853974562127
6.433,-0.0331301637915893,0.13180249122008
6.434,-0.0327536638853703,0.131748181768698
6.435,-0.0323783634836448,0.13169107031386
6.436,-0.0320043056245863,0.131631181958676
6.437,-0.0316315328170504,0.131568542790491
6.438,-0.0312600870124664,0.131503179872892
6.439,-0.0308900095827226,0.131435121235711
6.44,-0.030521341289058,0.131364395860034
6.441,-0.030154122264948,0.131291033672198
6.442,-0.029788391983993,0.131215065522803
6.443,-0.0294241892398075,0.131136523179708
6.444,-0.029061552120906,0.131055439310041
6.445,-0.0287005179855937,0.130971847469195
6.446,-0.0283411234398512,0.130885782079835
6.447,-0.0279834043132245,0.130797278417896
6.448,-0.0276273956337104,0.130706372597589
6.449,-0.0272731316076462,0.130613101552397
6.45,-0.0269206455965959,0.130517503014077
6.451,-0.026569970094236,0.130419615498661
6.452,-0.026221136705246,0.130319478281456
6.453,-0.0258741761251918,0.130217131381039
6.454,-0.0255291181194159,0.130112615537063
