"Freq [GHz]","re(S(Antenna1_1_1,Antenna1_1_1)) []","im(S(Antenna1_1_1,Antenna1_1_1)) []"
6,-0.110655843463961,0.042266830031774
6.001,-0.110489352078809,0.0424940282068328
6.002,-0.11032400276437,0.042715829789832
6.003,-0.110159932603072,0.0429322892321561
6.004,-0.109997277273039,0.0431434643219606
6.005,-0.109836170976118,0.0433494161522713
6.006,-0.109676746352897,0.0435502090850787
6.007,-0.109519134406719,0.0437459107154366
6.008,-0.109363464422708,0.0439365918355602
6.009,-0.109209863896781,0.0441223263869207
6.01,-0.109058458451672,0.0443031914273457
6.011,-0.108909371765942,0.0444792670771137
6.012,-0.108762725502005,0.044650636481055
6.013,-0.108618639226136,0.0448173857576453
6.014,-0.108477230343494,0.0449796039481081
6.015,-0.108338614024134,0.0451373829655082
6.016,-0.108202903133026,0.0452908175438518
6.017,-0.108070208160067,0.0454400051821855
6.018,-0.107940637159094,0.0455850460866912
6.019,-0.107814295673907,0.0457260431157882
6.02,-0.107691286680272,0.0458631017172271
6.021,-0.107571710519943,0.0459963298681925
6.022,-0.10745566483867,0.0461258380163982
6.023,-0.107343244526215,0.046251739008186
6.024,-0.107234541658363,0.0463741480286271
6.025,-0.107129645440932,0.0464931825336166
6.026,-0.10702864215079,0.0466089621799754
6.027,-0.10693161508386,0.0467216087565466
6.028,-0.106838644504135,0.0468312461122968
6.029,-0.106749807590686,0.0469380000844124
6.03,-0.106665178388674,0.0470419984253995
6.031,-0.106584827765357,0.0471433707251847
6.032,-0.1065088233591,0.0472422483382106
6.033,-0.106437229542388,0.0473387643055385
6.034,-0.106370107374827,0.0474330532759445
6.035,-0.106307514563157,0.0475252514260215
6.036,-0.106249505429258,0.0476154963822757
6.037,-0.106196130868157,0.0477039271352288
6.038,-0.106147438307035,0.0477906839635148
6.039,-0.106103471694234,0.0478759083449802
6.04,-0.106064271441262,0.0479597428767854
6.041,-0.106029874433799,0.0480423311895004
6.042,-0.1060003139417,0.0481238178612091
6.043,-0.105975619679004,0.0482043483312033
6.044,-0.105955817693936,0.0482840688152882
6.045,-0.105940930418908,0.0483631262170775
6.046,-0.105930976610527,0.0484416680403044
6.047,-0.105925971349597,0.0485198423009735
6.048,-0.105925926021121,0.048597797438757
6.049,-0.1059308483243,0.0486756822274977
6.05,-0.105940742232542,0.048753645686356
6.051,-0.105955607983458,0.0488318369902027
6.052,-0.105975442118863,0.0489104053791157
6.053,-0.106000237414782,0.0489895000681831
6.054,-0.106029982951442,0.0490692701604004
6.055,-0.106064664053279,0.0491498645515715
6.056,-0.106104262338933,0.04923143184241
6.057,-0.10614875567125,0.0493141202496362
6.058,-0.106198118246278,0.0493980775130806
6.059,-0.106252320518267,0.0494834508097804
6.06,-0.106311329264664,0.0495703866580825
6.061,-0.106375107583116,0.0496590308337417
6.062,-0.10644361490646,0.0497495282770207
6.063,-0.106516807024725,0.0498420230067922
6.064,-0.106594636105124,0.0499366580276356
6.065,-0.106677050712052,0.0500335752459409
6.066,-0.106763995837083,0.0501329153810046
6.067,-0.106855412917961,0.0502348178751341
6.068,-0.106951239873595,0.0503394208127437
6.069,-0.107051411135057,0.0504468608284572
6.07,-0.107155857673571,0.0505572730262075
6.071,-0.107264507042509,0.0506707908923355
6.072,-0.107377283408382,0.0507875462146922
6.073,-0.107494107594836,0.0509076689957359
6.074,-0.107614897117638,0.0510312873746356
6.075,-0.107739566237673,0.0511585275433669
6.076,-0.107868025995932,0.0512895136708163
6.077,-0.108000184266505,0.0514243678188778
6.078,-0.10813594580457,0.0515632098665541
6.079,-0.108275212295381,0.0517061574350573
6.08,-0.108417882410264,0.0518533258089066
6.081,-0.108563851858598,0.0520048278650313
6.082,-0.108713013443808,0.0521607739978668
6.083,-0.108865257124355,0.0523212720484582
6.084,-0.10902047007272,0.0524864272315572
6.085,-0.109178536735393,0.0526563420697232
6.086,-0.10933933889586,0.0528311163254231
6.087,-0.109502755744591,0.0530108469331299
6.088,-0.109668663940024,0.0531956279364243
6.089,-0.109836937678554,0.0533855504230912
6.09,-0.110007448765511,0.0535807024652234
6.091,-0.110180066686157,0.0537811690613168
6.092,-0.110354658677659,0.0539870320733722
6.093,-0.110531089802081,0.0541983701749961
6.094,-0.110709223025361,0.054415258793496
6.095,-0.110888919292303,0.0546377700599842
6.096,-0.111070037603552,0.0548659727514732
6.097,-0.11125243509758,0.0550999322589783
6.098,-0.111435967129668,0.0553397105106138
6.099,-0.111620487354887,0.0555853659596948
6.1,-0.111805847812081,0.0558369535248338
6.101,-0.111991899004846,0.0560945245200412
6.102,-0.11217848998951,0.0563581266948248
6.103,-0.112365468460116,0.0566278040942858
6.104,-0.112552680837399,0.0569035971192219
6.105,-0.112739972353765,0.0571855424062213
6.106,-0.112927187145573,0.0574736728677662
6.107,-0.113114168340711,0.057768017622327
6.108,-0.113300758149672,0.0580686019944634
6.109,-0.113486797957038,0.0583754474449232
6.11,-0.11367212841285,0.0586885716007381
6.111,-0.11385658952579,0.0590079882053253
6.112,-0.114040020755753,0.0593337070985824
6.113,-0.114222261107429,0.0596657342069894
6.114,-0.114403149224772,0.0600040715537019
6.115,-0.11458252348358,0.0603487171886543
6.116,-0.114760222088967,0.0606996652386536
6.117,-0.114936083170639,0.0610569058674789
6.118,-0.115109944871666,0.0614204252759804
6.119,-0.115281645454459,0.0617902057021733
6.12,-0.11545102338774,0.0621662254313399
6.121,-0.115617917444515,0.0625484587761235
6.122,-0.115782166801047,0.0629368760966276
6.123,-0.11594361112783,0.0633314438005126
6.124,-0.116102090687556,0.0637321243530924
6.125,-0.116257446432092,0.064138876287433
6.126,-0.116407672264444,0.0645638954744471
6.127,-0.116553888317733,0.0649948061629943
6.128,-0.116695941102161,0.0654315353559738
6.129,-0.116833678805984,0.0658740062864248
6.13,-0.116966951382478,0.0663221384546201
6.131,-0.11709561064491,0.066775847665164
6.132,-0.117219510353505,0.0672350460750891
6.133,-0.117338506305414,0.0676996422399504
6.134,-0.117452456418682,0.0681695411619243
6.135,-0.117561220821215,0.0686446443399013
6.136,-0.117664661936747,0.0691248498235849
6.137,-0.117762644563806,0.0696100522675847
6.138,-0.117855035964679,0.0701001429865146
6.139,-0.117941705938379,0.0705950100180854
6.14,-0.118022526907611,0.0710945381802018
6.141,-0.118097373992734,0.071598609135059
6.142,-0.118166125090726,0.0721071014532339
6.143,-0.11822866094715,0.0726198906787844
6.144,-0.118284865234115,0.0731368494013404
6.145,-0.118334624617243,0.073657847321202
6.146,-0.118377828829626,0.074182751324431
6.147,-0.118414370740793,0.0747114255569467
6.148,-0.118444146419671,0.0752437314946213
6.149,-0.118467055202544,0.0757795280253712
6.15,-0.11848299975602,0.0763186715242545
6.151,-0.118491886136985,0.0768610159345608
6.152,-0.118493623855568,0.0774064128489094
6.153,-0.118488125926098,0.0779547115913386
6.154,-0.118475308930068,0.0785057593014021
6.155,-0.118455093067089,0.0790594010212611
6.156,-0.118427402198852,0.0796154797807773
6.157,-0.118392163914088,0.0801738366846067
6.158,-0.11834930955252,0.0807343110042904
6.159,-0.118298774285829,0.0812967402663506
6.16,-0.118240497137603,0.0818609603423792
6.161,-0.118174420993301,0.0824268055481336
6.162,-0.118100492710206,0.0829941087286262
6.163,-0.118018663087379,0.0835627013572176
6.164,-0.117928886955622,0.0841324136307094
6.165,-0.117831123167424,0.0847030745654331
6.166,-0.117725334626926,0.085274512093345
6.167,-0.117611488359866,0.0858465531591147
6.168,-0.117489555473541,0.086419023821218
6.169,-0.117359511256757,0.0869917493500273
6.17,-0.117221335129782,0.0875645543248014
6.171,-0.117075010694302,0.0881372627370789
6.172,-0.116920525753372,0.0887096980898051
6.173,-0.116757872311368,0.0892816834987259
6.174,-0.116587046603939,0.0898530417931745
6.175,-0.116408049077961,0.0904235956185642
6.176,-0.116220884411485,0.0909931675378756
6.177,-0.116025561523691,0.0915615801322089
6.178,-0.115822093564835,0.0921286561048707
6.179,-0.115610497916203,0.0926942183851644
6.18,-0.115390796210057,0.0932580902262798
6.181,-0.115163014279587,0.0938200953083803
6.182,-0.11492718218886,0.0943800578436934
6.183,-0.114683334172768,0.0949378026775968
6.184,-0.114431508706975,0.0954931553857095
6.185,-0.114171748397867,0.0960459423809771
6.186,-0.1139041000225,0.0965959910117607
6.187,-0.113628614498543,0.097143129661926
6.188,-0.113345346834232,0.0976871878539277
6.189,-0.113054356148308,0.0982279963438998
6.19,-0.112755705589971,0.0987653872247401
6.191,-0.11244946234882,0.0992991940231991
6.192,-0.112135697595801,0.0998292517939649
6.193,-0.111814486467154,0.10035539722375
6.194,-0.111485908014353,0.10087746872038
6.195,-0.111150045166053,0.101395306512874
6.196,-0.110806984687033,0.101908752742538
6.197,-0.110456817135142,0.102417651557042
6.198,-0.11009963681124,0.102921849205512
6.199,-0.109735541711142,0.103421194124613
6.2,-0.109364633472556,0.103915537034632
6.201,-0.108987017327036,0.104404731022566
6.202,-0.108602802037911,0.104888631632204
6.203,-0.108212099843235,0.105367096953212
6.204,-0.107815026399727,0.105839987701217
6.205,-0.107411700717707,0.106307167304892
6.206,-0.107002245096044,0.106768501984036
6.207,-0.106586785059088,0.107223860837663
6.208,-0.106165449285616,0.107673115915078
6.209,-0.10573836954177,0.108116142296968
6.21,-0.105305680604993,0.108552818172478
6.211,-0.104867520194971,0.108983024910296
6.212,-0.10442402889357,0.109406647132735
6.213,-0.103975350070775,0.109823572787816
6.214,-0.103521629803627,0.110233693214349
6.215,-0.10306301679616,0.110636903215011
6.216,-0.102599662297339,0.111033101102435
6.217,-0.102131720015995,0.111422188811283
6.218,-0.101659346033764,0.111804071880332
6.219,-0.101182698722021,0.112178659594551
6.22,-0.100701938648814,0.112545864985186
6.221,-0.100217228492805,0.112905604909834
6.222,-0.0997287329482004,0.113257800082527
6.223,-0.0992366186326851,0.11360237516381
6.224,-0.0987410539943603,0.113939258790822
6.225,-0.0982422092186757,0.114268383577371
6.226,-0.0977402561263623,0.114589686244017
6.227,-0.0972353680793677,0.11490310758815
6.228,-0.0967277198837874,0.115208592564065
6.229,-0.0962174876847994,0.115506090293042
6.23,-0.095704848873594,0.115795554133428
6.231,-0.0951899819773084,0.116076941650705
6.232,-0.0946730665633574,0.116350214727576
6.233,-0.0941542831344641,0.116615339514037
6.234,-0.0936338130231926,0.116872286527458
6.235,-0.093111838288867,0.117121030592655
6.236,-0.0925885416120538,0.117361550931966
6.237,-0.0920641061890897,0.117593831145333
6.238,-0.0915387156256144,0.117817859240371
6.239,-0.0910125538303469,0.118033627632447
6.24,-0.0904858049085272,0.118241133164754
6.241,-0.0899586530518444,0.118440377108384
6.242,-0.0894312824352644,0.118631365172408
6.243,-0.0889038771078598,0.118814107503945
6.244,-0.088376620881736,0.118988618678237
6.245,-0.087849697227961,0.119154917698726
6.246,-0.0873232891694906,0.119313028017123
6.247,-0.0867975791680971,0.119462977493485
6.248,-0.0862727490232952,0.119604798386284
6.249,-0.0857489797582682,0.119738527352484
6.25,-0.0852264515187953,0.119864205427611
6.251,-0.0847053434611761,0.119981878005825
6.252,-0.0841858336521568,0.120091594809992
6.253,-0.0836680989528551,0.120193409881756
6.254,-0.0831523149256861,0.12028738155161
6.255,-0.0826386557172856,0.120373572388967
6.256,-0.0821272939624348,0.120452049212231
6.257,-0.0816184006779854,0.120522882996866
6.258,-0.0811121451587813,0.120586148901467
6.259,-0.0806086948775848,0.120641926177831
6.26,-0.0801082153789966,0.120690298154025
6.261,-0.0796108701883817,0.120731352184455
6.262,-0.0791168207037892,0.120765179600937
6.263,-0.0786262261018773,0.120791875665762
6.264,-0.0781392432388335,0.120811539517768
6.265,-0.0776560265582962,0.120824274118407
6.266,-0.0771767279922779,0.120830186197811
6.267,-0.0767014968700836,0.120829386192861
6.268,-0.0762304798262352,0.120821988184256
6.269,-0.0757638207083883,0.120808109838575
6.27,-0.0753016604892554,0.120787872337347
6.271,-0.0748441371825251,0.120761400312119
6.272,-0.0743913857487805,0.120728821770516
6.273,-0.0739435380184211,0.120690268029313
6.274,-0.0735007226055795,0.120645873635496
6.275,-0.0730630648280427,0.120595776289329
6.276,-0.0726306866311682,0.12054011676942
6.277,-0.072203706494805,0.12047903885078
6.278,-0.0717822393872098,0.120412689219894
6.279,-0.0713663966709655,0.120341217393781
6.28,-0.0709562860328993,0.120264775630057
6.281,-0.0705520114039981,0.120183518841002
6.282,-0.0701536729293287,0.120097604505618
6.283,-0.0697613668579509,0.120007192572694
6.284,-0.0693751855128375,0.119912445373868
6.285,-0.0689952172207872,0.119813527522691
6.286,-0.0686215462323435,0.119710605821684
6.287,-0.068254252711709,0.119603849165403
6.288,-0.0678934126266602,0.119493428436501
6.289,-0.0675390977384646,0.119379516410782
6.29,-0.067191375551793,0.11926228765027
6.291,-0.0668503092446377,0.119141918400264
6.292,-0.066515957618223,0.119018586487397
6.293,-0.0661883750969224,0.1188924712137
6.294,-0.0658676116681716,0.118763753245556
6.295,-0.0655537128223806,0.118632614509061
6.296,-0.0652467195428504,0.118499238080684
6.297,-0.0649466682856824,0.118363808076891
6.298,-0.0646535909296944,0.118226509543058
6.299,-0.0643675147363313,0.118087528342224
6.3,-0.0640884623795789,0.11794705104305
6.301,-0.0638164518658745,0.117805264805625
6.302,-0.0635514965640206,0.117662357270955
6.303,-0.0632936051450959,0.117518516440315
6.304,-0.063042781632365,0.117373930569909
6.305,-0.0627990253011932,0.117228788046022
6.306,-0.0625623307689537,0.117083277279077
6.307,-0.0623326879249416,0.11693758657969
6.308,-0.0621100819502813,0.116791904047724
6.309,-0.0618944933478392,0.116646417454341
6.31,-0.0616858978721336,0.116501314129061
6.311,-0.0614842666292417,0.116356780838811
6.312,-0.061289566016713,0.116213003675979
6.313,-0.0611091121434752,0.116070885610469
6.314,-0.0609428129897465,0.115931128622748
6.315,-0.0607832300869411,0.115793369116907
6.316,-0.0606302871475808,0.115657786477704
6.317,-0.0604839033752022,0.11552455808962
6.318,-0.0603439935242633,0.115393859223911
6.319,-0.0602104679300549,0.115265862928655
6.32,-0.0600832325786048,0.115140739918806
6.321,-0.0599621891665882,0.11501865846524
6.322,-0.0598472351612322,0.11489978429481
6.323,-0.0597382638532261,0.114784280477391
6.324,-0.0596351644206246,0.114672307326933
6.325,-0.0595378220147576,0.114564022295505
6.326,-0.0594461178151352,0.114459579877346
6.327,-0.059359929105353,0.114359131505915
6.328,-0.0592791293530005,0.114262825455934
6.329,-0.059203588283564,0.114170806752439
6.33,-0.0591331719583346,0.114083217074825
6.331,-0.0590677428653118,0.114000194661895
6.332,-0.0590071599941096,0.113921874229903
6.333,-0.0589512789308617,0.113848386877603
6.334,-0.0588999519441244,0.113779860005291
6.335,-0.0588530280747836,0.113716417225855
6.336,-0.0588103532339565,0.113658178296816
6.337,-0.0587717702958985,0.113605259031372
6.338,-0.0587371191929041,0.113557771216448
6.339,-0.0587062370222132,0.113515822552732
6.34,-0.0586789581399134,0.113479516564723
6.341,-0.0586551142678421,0.113448952550774
6.342,-0.0586345345974923,0.113424225533135
6.343,-0.0586170458989128,0.113405426117991
6.344,-0.0586024726236131,0.11339264053551
6.345,-0.0585906370214635,0.113385950499881
6.346,-0.0585813592446003,0.113385433199357
6.347,-0.0585744574683246,0.113391161226295
6.348,-0.0585697479960073,0.113403202517196
6.349,-0.0585670453839889,0.113421620342747
6.35,-0.0585661625504809,0.113446473217859
6.351,-0.0585669108964691,0.113477814871709
6.352,-0.0585691004276115,0.113515694237775
6.353,-0.0585725398681431,0.113560155383879
6.354,-0.0585770367847729,0.113611237482224
6.355,-0.0585823977115873,0.11366897480943
6.356,-0.0585884282659496,0.113733396676576
6.357,-0.0585949332770986,0.113804527439231
6.358,-0.058601716907752,0.113882386467498
6.359,-0.0586085827792424,0.113966988096045
6.36,-0.0586153340962203,0.114058341684145
6.361,-0.0586217737723505,0.114156451505709
6.362,-0.0586277045558152,0.114261316819323
6.363,-0.0586329291552083,0.114372931848283
6.364,-0.0586372503671989,0.114491285730629
6.365,-0.058640471200928,0.11461636258918
6.366,-0.0586423950030055,0.114748141461569
6.367,-0.0586428255902124,0.114886596390273
6.368,-0.0586415673693953,0.11503169635265
6.369,-0.0586384254633676,0.115183405320971
6.37,-0.0586332058428041,0.115341682272452
6.371,-0.0586257154451419,0.115506481209286
6.372,-0.0586157623024768,0.115677751158672
6.373,-0.0586031556654592,0.115855436242854
6.374,-0.058587706128194,0.116039475639143
6.375,-0.0585692257491347,0.116229803699955
6.376,-0.0585475281749836,0.116426349922836
6.377,-0.0585224287625853,0.116629039000495
6.378,-0.0584937446998254,0.116837790890831
6.379,-0.058461295121527,0.117052520806964
6.38,-0.0584249012343444,0.117273139327264
6.381,-0.058384386430663,0.117499552395377
6.382,-0.0583395764034911,0.117731661430255
6.383,-0.0582902992663598,0.117969363296184
6.384,-0.0582363856602148,0.118212550442809
6.385,-0.0581776688733155,0.118461110926161
6.386,-0.0581139849451262,0.118714928488687
6.387,-0.058045172781215,0.118973882616271
6.388,-0.0579710742551476,0.119237848615262
6.389,-0.0578915343203801,0.119506697680502
6.39,-0.0578064011091571,0.119780296978345
6.391,-0.0577155260364029,0.120058509717686
6.392,-0.0576187639026189,0.120341195233984
6.393,-0.0575159729887754,0.120628209072284
6.394,-0.0574070151532073,0.120919403075244
6.395,-0.0572917559225078,0.121214625467154
6.396,-0.0571700646034204,0.121513720945961
6.397,-0.0570418143357359,0.121816530780288
6.398,-0.0569068822021821,0.122122892900462
6.399,-0.0567651493283208,0.122432641997529
6.4,-0.0566165009424379,0.122745609621278
6.401,-0.0564608264554387,0.12306162428626
6.402,-0.0562980195507405,0.123380511570812
6.403,-0.0561279782441629,0.12370209422707
6.404,-0.0559506049738252,0.124026192284996
6.405,-0.0557658066800338,0.12435262316639
6.406,-0.055573494815179,0.124681201790916
6.407,-0.0553735854836235,0.125011740695112
6.408,-0.0551659994415978,0.125344050143414
6.409,-0.0549506622070893,0.125677938243172
6.41,-0.0547275040597367,0.126013211068665
6.411,-0.0544964601507207,0.12634967277312
6.412,-0.0542574705226538,0.126687125717725
6.413,-0.0540104801394757,0.12702537058265
6.414,-0.05375543897634,0.127364206503057
6.415,-0.0534923020095101,0.127703431182119
6.416,-0.0532210293062459,0.128042841025031
6.417,-0.0529415860046981,0.128382231258028
6.418,-0.0526539424037982,0.128721396063895
6.419,-0.0523580739331467,0.129060128702485
6.42,-0.052053961212908,0.129398221644626
6.421,-0.0517415900836967,0.129735466699739
6.422,-0.0514209515964719,0.130071655146547
6.423,-0.0510920420324233,0.130406577863688
6.424,-0.050754862932865,0.130740025461225
6.425,-0.0504094211191225,0.131071788411261
6.426,-0.0500557286424251,0.131401657180342
6.427,-0.0496938028337941,0.131729422361774
6.428,-0.0493236663039324,0.132054874807032
6.429,-0.0489453469131151,0.132377805757763
6.43,-0.0485588777710773,0.132698006978803
6.431,-0.0481642972369059,0.133015270889181
6.432,-0.0477616488989251,0.133329390692127
6.433,-0.0473509815545893,0.13364016051008
6.434,-0.0469323491903703,0.133947375512698
6.435,-0.0465058109616448,0.13425083204786
6.436,-0.0460714311425863,0.134550327771676
6.437,-0.0456292791360504,0.134845661778491
6.438,-0.0451794294134664,0.135136634728892
6.439,-0.0447219614847226,0.135423048974711
6.44,-0.044256959828058,0.135704708690034
6.441,-0.043784513899948,0.135981419995198
6.442,-0.043304718054993,0.136252991079803
6.443,-0.0428176714958075,0.136519232328708
6.444,-0.042323478222906,0.136779956442041
6.445,-0.0418222470045937,0.137034978560195
6.446,-0.0413140912668512,0.137284116378835
6.447,-0.0407991290632245,0.137527190268896
6.448,-0.0402774830047104,0.137764023394589
6.449,-0.0397492802116462,0.137994441827397
6.45,-0.0392146521955959,0.138218274657077
6.451,-0.038673734824236,0.138435354109661
6.452,-0.038126668230246,0.138645515648456
6.453,-0.0375735967331918,0.138848598091039
6.454,-0.0370146687564159,0.139044443708263
6.455,-0.0364500367459214,0.139232898336247
