"Freq [GHz]","re(S(Tx_p1,Tx_p1)) []","im(S(Tx_p1,Tx_p1)) []"
1,-0.03544327471,-0.06787204013
1.01,-0.03794132171,-0.06603878698
1.02,-0.04035617892,-0.06410512581
1.03,-0.04268295098,-0.06207493049
1.04,-0.04491696475,-0.05995234422
1.05,-0.04705378311,-0.05774176455
1.06,-0.04908921768,-0.05544782792
1.07,-0.05101934072,-0.05307539359
1.08,-0.05284049592,-0.05062952718
1.09,-0.05454930833,-0.04811548375
1.1,-0.0561426932,-0.04553869051
1.11,-0.05761786379,-0.04290472925
1.12,-0.05897233822,-0.04021931847
1.13,-0.06020394524,-0.03748829535
1.14,-0.06131082894,-0.0347175975
1.15,-0.06229145252,-0.03191324468
1.16,-0.0631446009,-0.02908132045
1.17,-0.06386938237,-0.02622795384
1.18,-0.06446522923,-0.02335930104
1.19,-0.06493189741,-0.02048152729
1.2,-0.06526946502,-0.01760078887
1.21,-0.06547833005,-0.01472321534
1.22,-0.06555920702,-0.01185489208
1.23,-0.06551312269,-0.009001843072
1.24,-0.0653414109,-0.006170014161
1.25,-0.06504570652,-0.003365256632
1.26,-0.06462793849,-0.0005933113201
1.27,-0.06409032208,0.002140206823
1.28,-0.06343535034,0.00482982359
1.29,-0.06266578481,0.007470219803
1.3,-0.06178464548,0.01005624498
1.31,-0.0607952001,0.01258293034
1.32,-0.05970095283,0.01504550115
1.33,-0.05850563227,0.01743938827
1.34,-0.05721317903,0.01976023909
1.35,-0.05582773266,0.02200392757
1.36,-0.05435361823,0.02416656355
1.37,-0.05279533242,0.02624450125
1.38,-0.0511575293,0.0282343469
1.39,-0.04944500573,0.03013296563
1.4,-0.04766268657,0.03193748734
1.41,-0.04581560956,0.03364531188
1.42,-0.04390891015,0.03525411326
1.43,-0.04194780611,0.03676184304
1.44,-0.03993758212,0.03816673276
1.45,-0.03788357433,0.03946729568
1.46,-0.0357911549,0.04066232744
1.47,-0.03366571668,0.04175090605
1.48,-0.03151265797,0.04273239091
1.49,-0.02933736743,0.04360642109
1.5,-0.02714520923,0.04437291269
1.51,-0.02494150844,0.04503205554
1.52,-0.02273153672,0.04558430897
1.53,-0.02052049833,0.04603039696
1.54,-0.01831351655,0.04637130247
1.55,-0.01611562047,0.04660826107
1.56,-0.01393173228,0.04674275397
1.57,-0.01176665498,0.0467765003
1.58,-0.009625060686,0.04671144886
1.59,-0.007511479422,0.04654976926
1.6,-0.005430288501,0.04629384245
1.61,-0.003385702518,0.04594625088
1.62,-0.001381763967,0.04550976808
1.63,0.0005776655041,0.04498734779
1.64,0.00248891317,0.04438211282
1.65,0.004348502618,0.04369734341
1.66,0.006153160446,0.04293646538
1.67,0.007899822246,0.04210303797
1.68,0.009585637877,0.04120074144
1.69,0.011207976,0.04023336451
1.7,0.01276442791,0.03920479164
1.71,0.01425281058,0.03811899018
1.72,0.01567116904,0.03697999752
1.73,0.01701777797,0.03579190817
1.74,0.0182911426,0.03455886088
1.75,0.0194899989,0.03328502579
1.76,0.02061331299,0.03197459177
1.77,0.02166027994,0.03063175375
1.78,0.02263032185,0.0292607004
1.79,0.02352308525,0.0278656019
1.8,0.02433843783,0.02645059801
1.81,0.02507646462,0.0250197864
1.82,0.02573746346,0.02357721137
1.83,0.02632193993,0.0221268528
1.84,0.02683060174,0.02067261561
1.85,0.02726435249,0.01921831952
1.86,0.02762428509,0.01776768932
1.87,0.02791167447,0.01632434559
1.88,0.02812797005,0.01489179583
1.89,0.02827478767,0.01347342623
1.9,0.02835390117,0.01207249386
1.91,0.02836723358,0.0106921194
1.92,0.02831684806,0.009335280536
1.93,0.0282049385,0.00800480579
1.94,0.02803381983,0.00670336903
1.95,0.02780591823,0.005433484538
1.96,0.02752376105,0.004197502673
1.97,0.02718996659,0.002997606153
1.98,0.02680723389,0.001835806937
1.99,0.02637833225,0.0007139437207
2,0.02590609091,-0.000366319967
2.01,0.02539338856,-0.001403497052
2.02,0.02484314298,-0.00239627761
2.03,0.02425830072,-0.003343528965
2.04,0.02364182683,-0.004244295202
2.05,0.02299669482,-0.005097796112
2.06,0.02232587665,-0.005903425562
2.07,0.02163233303,-0.006660749334
2.08,0.02091900385,-0.007369502414
2.09,0.02018879896,-0.008029585784
2.1,0.01944458907,-0.008641062701
2.11,0.01868919714,-0.009204154512
2.12,0.01792538997,-0.00971923601
2.13,0.01715587013,-0.01018683036
2.14,0.0163832684,-0.0106076036
2.15,0.01561013642,-0.01098235881
2.16,0.01483893989,-0.01131202985
2.17,0.01407205213,-0.01159767482
2.18,0.01331174811,-0.01184046922
2.19,0.0125601989,-0.01204169878
2.2,0.01181946665,-0.01220275212
2.21,0.01109149997,-0.01232511315
2.22,0.01037812989,-0.01241035326
2.23,0.009681066214,-0.01246012341
2.24,0.009001894443,-0.01247614604
2.25,0.00834207317,-0.01246020693
2.26,0.007702931981,-0.01241414696
2.27,0.007085669861,-0.01233985382
2.28,0.006491354093,-0.01223925374
2.29,0.005920919661,-0.01211430326
2.3,0.005375169135,-0.01196698097
2.31,0.004854773042,-0.01179927941
2.32,0.004360270715,-0.01161319704
2.33,0.0038920716,-0.01141073034
2.34,0.003450457015,-0.01119386604
2.35,0.003035582356,-0.01096457362
2.36,0.002647479718,-0.01072479792
2.37,0.002286060932,-0.01047645201
2.38,0.001951120988,-0.01022141036
2.39,0.001642341838,-0.009961502189
2.4,0.00135929655,-0.009698505217
2.41,0.001101453794,-0.009434139619
2.42,0.0008681826506,-0.009170062383
2.43,0.0006587576985,-0.008907861976
2.44,0.000472364382,-0.008649053374
2.45,0.0003081046174,-0.008395073467
2.46,0.0001650026237,-0.008147276837
2.47,4.201094963E-05,-0.007906931933
2.48,-6.198332604E-05,-0.007675217646
2.49,-0.0001481522474,-0.007453220284
2.5,-0.0002177205116,-0.007241930969
2.51,-0.0002719589025,-0.007042243437
2.52,-0.0003121776528,-0.006854952272
2.53,-0.0003397197607,-0.006680751542
2.54,-0.0003559542845,-0.006520233867
2.55,-0.0003622696434,-0.006373889893
2.56,-0.0003600669455,-0.006242108188
2.57,-0.0003507533704,-0.006125175537
2.58,-0.0003357356281,-0.006023277643
2.59,-0.000316413519,-0.005936500219
2.6,-0.0002941736167,-0.005864830469
2.61,-0.000270383096,-0.005808158936
2.62,-0.0002463837274,-0.005766281716
2.63,-0.0002234860582,-0.005738903027
2.64,-0.0002029638,-0.005725638101
2.65,-0.0001860484412,-0.005726016411
2.66,-0.0001739241011,-0.005739485197
2.67,-0.0001677226439,-0.005765413276
2.68,-0.0001685190663,-0.005803095132
2.69,-0.0001773271741,-0.005851755252
2.7,-0.0001950955595,-0.005910552696
2.71,-0.0002227038929,-0.005978585886
2.72,-0.0002609595381,-0.006054897578
2.73,-0.000310594501,-0.006138480016
2.74,-0.0003722627197,-0.006228280231
2.75,-0.0004465377027,-0.006323205473
2.76,-0.000533910521,-0.00642212875
2.77,-0.000634788157,-0.006523894448
2.78,-0.0007494922149,-0.006627324023
2.79,-0.0008782579923,-0.006731221726
2.8,-0.001021233913,-0.006834380354
2.81,-0.001178481324,-0.006935586994
2.82,-0.001349974645,-0.007033628744
2.83,-0.001535601877,-0.007127298387
2.84,-0.00173516546,-0.007215400002
2.85,-0.001948383473,-0.007296754482
2.86,-0.002174891169,-0.007370204949
2.87,-0.00241424284,-0.007434622035
2.88,-0.002665913997,-0.007488909028
2.89,-0.00292930386,-0.007532006838
2.9,-0.00320373814,-0.007562898794
2.91,-0.003488472107,-0.007580615235
2.92,-0.003782693921,-0.007584237887
2.93,-0.004085528226,-0.007572904011
2.94,-0.004396039978,-0.007545810305
2.95,-0.004713238493,-0.007502216554
2.96,-0.005036081708,-0.007441448999
2.97,-0.005363480626,-0.007362903442
2.98,-0.005694303934,-0.007266048046
2.99,-0.006027382772,-0.007150425843
3,-0.006361515639,-0.007015656937
3.01,-0.006695473409,-0.006861440387
3.02,-0.007028004445,-0.006687555779
3.03,-0.007357839786,-0.006493864469
3.04,-0.007683698392,-0.006280310505
3.05,-0.008004292424,-0.006046921218
3.06,-0.008318332538,-0.005793807488
3.07,-0.008624533173,-0.00552116368
3.08,-0.008921617821,-0.005229267258
3.09,-0.00920832425,-0.00491847807
3.1,-0.009483409663,-0.004589237321
3.11,-0.009745655774,-0.004242066229
3.12,-0.009993873792,-0.003877564378
3.13,-0.01022690928,-0.003496407761
3.14,-0.01044364687,-0.003099346548
3.15,-0.01064301484,-0.002687202555
3.16,-0.01082398955,-0.002260866453
3.17,-0.01098559958,-0.001821294716
3.18,-0.01112692983,-0.001369506313
3.19,-0.01124712529,-0.0009065791715
3.2,-0.0113453946,-0.000433646421
3.21,-0.01142101344,4.810757571E-05
3.22,-0.01147332755,0.0005374513796
3.23,-0.01150175562,0.001033110809
3.24,-0.01150579181,0.001533773431
3.25,-0.01148500803,0.002038093202
3.26,-0.01143905595,0.002544695223
3.27,-0.01136766864,0.003052180614
3.28,-0.01127066206,0.003559131468
3.29,-0.01114793607,0.004064115887
3.3,-0.01099947524,0.004565693061
3.31,-0.01082534937,0.005062418391
3.32,-0.01062571359,0.005552848619
3.33,-0.0104008083,0.006035546968
3.34,-0.01015095865,0.006509088247
3.35,-0.009876573832,0.006972063926
3.36,-0.009578146004,0.007423087155
3.37,-0.009256248949,0.007860797701
3.38,-0.008911536417,0.008283866799
3.39,-0.008544740202,0.008691001889
3.4,-0.008156667921,0.00908095123
3.41,-0.00774820054,0.009452508368
3.42,-0.007320289628,0.00980451645
3.43,-0.006873954363,0.01013587236
3.44,-0.006410278299,0.01044553068
3.45,-0.005930405905,0.01073250743
3.46,-0.005435538888,0.01099588359
3.47,-0.004926932317,0.01123480845
3.48,-0.004405890551,0.01144850266
3.49,-0.003873763005,0.01163626103
3.5,-0.003331939751,0.01179745514
3.51,-0.002781846978,0.01193153563
3.52,-0.002224942325,0.01203803421
3.53,-0.001662710105,0.01211656541
3.54,-0.001096656441,0.01216682808
3.55,-0.0005283043174,0.0121886065
3.56,4.081141944E-05,0.0121817713
3.57,0.0006091491041,0.01214628004
3.58,0.001175165317,0.01208217747
3.59,0.001737319956,0.01198959553
3.6,0.002294081294,0.01186875303
3.61,0.002843931006,0.01171995502
3.62,0.003385369152,0.01154359193
3.63,0.003916919091,0.01134013833
3.64,0.00443713232,0.01111015146
3.65,0.004944593205,0.01085426949
3.66,0.005437923606,0.01057320946
3.67,0.005915787372,0.01026776497
3.68,0.006376894684,0.009938803652
3.69,0.006820006243,0.009587264353
3.7,0.007243937282,0.009214154072
3.71,0.007647561393,0.008820544701
3.72,0.008029814148,0.008407569537
3.73,0.008389696513,0.007976419586
3.74,0.008726278034,0.007528339682
3.75,0.009038699787,0.007064624431
3.76,0.009326177093,0.00658661399
3.77,0.009588001966,0.006095689698
3.78,0.009823545313,0.005593269576
3.79,0.01003225886,0.005080803716
3.8,0.01021367679,0.004559769559
3.81,0.01036741714,0.0040316671
3.82,0.01049318287,0.003498014016
3.83,0.0105907627,0.002960340755
3.84,0.01066003155,0.00242018558
3.85,0.01070095086,0.001879089601
3.86,0.01071356846,0.001338591815
3.87,0.01069801824,0.0008002241503
3.88,0.0106545195,0.0002655065546
3.89,0.01058337604,-0.0002640578673
3.9,0.01048497493,-0.0007869876506
3.91,0.01035978508,-0.001301827681
3.92,0.01020835541,-0.001807153806
3.93,0.01003131292,-0.002301577331
3.94,0.009829360359,-0.002783749388
3.95,0.009603273753,-0.003252365149
3.96,0.009353899622,-0.003706167896
3.97,0.009082152015,-0.004143952903
3.98,0.008789009305,-0.004564571145
3.99,0.008475510788,-0.004966932797
4,0.00814275309,-0.005350010538
4.01,0.007791886384,-0.005712842625
4.02,0.007424110451,-0.006054535742
4.03,0.007040670583,-0.006374267604
4.04,0.006642853349,-0.00667128933
4.05,0.006231982234,-0.006944927539
4.06,0.005809413178,-0.007194586209
4.07,0.005376530013,-0.007419748249
4.08,0.00493473983,-0.007619976816
4.09,0.004485468285,-0.007794916352
4.1,0.004030154857,-0.00794429334
4.11,0.003570248081,-0.008067916789
4.12,0.003107200772,-0.008165678433
4.13,0.002642465249,-0.008237552658
4.14,0.002177488583,-0.008283596144
4.15,0.001713707889,-0.008303947238
4.16,0.001252545655,-0.008298825047
4.17,0.0007954051646,-0.008268528273
4.18,0.0003436659807,-0.008213433773
4.19,-0.0001013204523,-0.008133994873
4.2,-0.0005382351001,-0.008030739421
4.21,-0.0009657954985,-0.007904267606
4.22,-0.001382759769,-0.007755249536
4.23,-0.001787930481,-0.007584422597
4.24,-0.002180158337,-0.007392588588
4.25,-0.002558345686,-0.007180610662
4.26,-0.002921449839,-0.006949410066
4.27,-0.00326848618,-0.006699962705
4.28,-0.003598531064,-0.006433295535
4.29,-0.003910724496,-0.0061504828
4.3,-0.004204272575,-0.005852642133
4.31,-0.0044784497,-0.005540930526
4.32,-0.004732600533,-0.005216540182
4.33,-0.004966141711,-0.004880694283
4.34,-0.005178563297,-0.004534642663
4.35,-0.005369429983,-0.004179657415
4.36,-0.005538382016,-0.003817028458
4.37,-0.005685135872,-0.003448059052
4.38,-0.005809484654,-0.003074061305
4.39,-0.005911298235,-0.002696351669
4.4,-0.005990523125,-0.002316246452
4.41,-0.006047182081,-0.001935057353
4.42,-0.006081373457,-0.001554087045
4.43,-0.006093270291,-0.001174624811
4.44,-0.006083119146,-0.0007979422516
4.45,-0.0060512387,-0.0004252890898
4.46,-0.005998018092,-5.78890668E-05
4.47,-0.005923915042,0.0003030640401
4.48,-0.005829453738,0.0006564102718
4.49,-0.005715222503,0.001001027199
4.5,-0.005581871264,0.00133583348
4.51,-0.005430108812,0.001659792252
4.52,-0.005260699881,0.001971914342
4.53,-0.005074462046,0.002271261294
4.54,-0.004872262459,0.002556948198
4.55,-0.004655014436,0.002828146306
4.56,-0.0044236739,0.003084085442
4.57,-0.004179235699,0.003324056187
4.58,-0.003922729817,0.003547411827
4.59,-0.003655217484,0.003753570082
4.6,-0.003377787198,0.003942014579
4.61,-0.003091550693,0.004112296095
4.62,-0.002797638834,0.004264033549
4.63,-0.00249719749,0.004396914738
4.64,-0.002191383376,0.004510696839
4.65,-0.001881359881,0.004605206646
4.66,-0.001568292919,0.004680340564
4.67,-0.00125334678,0.00473606436
4.68,-0.0009376800371,0.004772412654
4.69,-0.0006224414888,0.004789488187
4.7,-0.0003087661769,0.004787460832
4.71,2.228521808E-06,0.004766566383
4.72,0.0003094467097,0.004727105117
4.73,0.0006118176761,0.004669440126
4.74,0.0009082994868,0.004593995448
4.75,0.001197882442,0.004501253979
4.76,0.00147959239,0.004391755203
4.77,0.001752493891,0.004266092721
4.78,0.00201569321,0.004124911616
4.79,0.002268341142,0.003968905642
4.8,0.002509635644,0.003798814264
4.81,0.002738824285,0.003615419551
4.82,0.002955206492,0.003419542944
4.83,0.00315813558,0.003212041902
4.84,0.003347020587,0.002993806443
4.85,0.003521327873,0.002765755594
4.86,0.003680582504,0.002528833769
4.87,0.003824369411,0.002284007072
4.88,0.003952334313,0.002032259563
4.89,0.004064184415,0.001774589479
4.9,0.004159688867,0.001512005436
4.91,0.004238678997,0.001245522628
4.92,0.004301048307,0.0009761590304
4.93,0.004346752239,0.0007049316225
4.94,0.004375807716,0.0004328526494
4.95,0.004388292456,0.0001609259304
4.96,0.004384344065,-0.000109856769
4.97,0.004364158912,-0.0003785192901
4.98,0.0043279908,-0.0006441045449
4.99,0.004276149428,-0.0009056778793
5,0.004208998659,-0.001162330323
5.01,0.004126954597,-0.001413181717
5.02,0.004030483483,-0.001657383701
5.03,0.003920099427,-0.00189412256
5.04,0.003796361972,-0.002122621913
5.05,0.003659873507,-0.002342145238
5.06,0.003511276545,-0.002551998223
5.07,0.003351250866,-0.002751530933
5.08,0.003180510552,-0.002940139799
5.09,0.002999800908,-0.003117269399
5.1,0.002809895295,-0.003282414054
5.11,0.002611591883,-0.003435119203
5.12,0.002405710342,-0.00357498259
5.13,0.002193088468,-0.003701655216
5.14,0.001974578786,-0.003814842101
5.15,0.001751045109,-0.003914302813
5.16,0.001523359096,-0.003999851791
5.17,0.001292396807,-0.00407135845
5.18,0.001059035268,-0.004128747072
5.19,0.0008241490715,-0.004171996481
5.2,0.0005886070056,-0.004201139517
5.21,0.0003532687456,-0.004216262298
5.22,0.000118981606,-0.004217503278
5.23,-0.0001134226286,-0.004205052113
5.24,-0.0003431307835,-0.004179148338
5.25,-0.0005693512728,-0.004140079849
5.26,-0.0007913169665,-0.004088181224
5.27,-0.001008287936,-0.00402383186
5.28,-0.001219554064,-0.003947453954
5.29,-0.001424437521,-0.00385951034
5.3,-0.001622295078,-0.003760502169
5.31,-0.001812520276,-0.003650966473
5.32,-0.001994545414,-0.003531473594
5.33,-0.00216784338,-0.003402624509
5.34,-0.002331929286,-0.003265048059
5.35,-0.002486361935,-0.003119398082
5.36,-0.002630745086,-0.002966350479
5.37,-0.002764728535,-0.002806600214
5.38,-0.002888008998,-0.002640858258
5.39,-0.00300033079,-0.002469848506
5.4,-0.003101486315,-0.002294304656
5.41,-0.00319131635,-0.002114967086
5.42,-0.003269710127,-0.001932579726
5.43,-0.00333660522,-0.001747886938
5.44,-0.003391987237,-0.001561630434
5.45,-0.003435889308,-0.001374546214
5.46,-0.003468391395,-0.00118736157
5.47,-0.0034896194,-0.001000792139
5.48,-0.003499744102,-0.0008155390356
5.49,-0.003498979914,-0.0006322860681
5.5,-0.003487583461,-0.0004516970459
5.51,-0.00346585201,-0.0002744131962
5.52,-0.003434121727,-0.0001010506935
5.53,-0.003392765793,6.780168466E-05
5.54,-0.003342192383,0.0002315847697
5.55,-0.003282842506,0.0003897710714
5.56,-0.003215187731,0.000541866698
5.57,-0.003139727797,0.0006874131197
5.58,-0.003056988126,0.0008259887697
5.59,-0.002967517241,0.0009572104758
5.6,-0.002871884112,0.001080734719
5.61,-0.002770675428,0.001196258715
5.62,-0.002664492817,0.001303521312
5.63,-0.002553950022,0.001402303706
5.64,-0.002439670045,0.001492429971
5.65,-0.002322282267,0.001573767401
5.66,-0.002202419567,0.001646226662
5.67,-0.002080715441,0.001709761757
5.68,-0.001957801135,0.001764369812
5.69,-0.001834302813,0.001810090663
5.7,-0.001710838759,0.001847006276
5.71,-0.00158801663,0.001875239974
5.72,-0.001466430776,0.001894955504
5.73,-0.001346659628,0.00190635592
5.74,-0.001229263176,0.001909682311
5.75,-0.001114780535,0.001905212364
5.76,-0.001003727621,0.001893258782
5.77,-0.000896594936,0.001874167548
5.78,-0.0007938454763,0.001848316061
5.79,-0.0006959127738,0.001816111138
5.8,-0.000603199073,0.001777986897
5.81,-0.0005160736548,0.001734402535
5.82,-0.0004348713121,0.001685839996
5.83,-0.0003598909834,0.001632801558
5.84,-0.0002913945496,0.001575807334
5.85,-0.0002296057991,0.001515392705
5.86,-0.0001747095638,0.001452105698
5.87,-0.0001268510302,0.001386504317
5.88,-8.613522826E-05,0.001319153828
5.89,-5.262669783E-05,0.001250624041
5.9,-2.634933619E-05,0.001181486556
5.91,-7.286424778E-06,0.001112312027
5.92,4.619164396E-06,0.001043667429
5.93,9.464584215E-06,0.0009761133442
5.94,7.386451825E-06,0.0009102012894
5.95,-1.439885396E-06,0.0008464710839
5.96,-1.68012538E-05,0.0007854482743
5.97,-3.844772327E-05,0.0007276416265
5.98,-6.609383794E-05,0.0006735406947
5.99,-9.942000256E-05,0.0006236134775
6,-0.0001380740182,0.0005783041723
