"Freq [GHz]","re(S(Tx_p1,Tx_p1)) []","im(S(Tx_p1,Tx_p1)) []"
1,0.08687663201,-0.1664030132
1.01,0.08280156802,-0.1663966733
1.02,0.07876059142,-0.1663128712
1.03,0.07475703865,-0.166151731
1.04,0.07079421365,-0.1659137114
1.05,0.06687536592,-0.1655995929
1.06,0.06300366965,-0.1652104638
1.07,0.05918220407,-0.164747707
1.08,0.0554139349,-0.1642129844
1.09,0.05170169692,-0.1636082225
1.1,0.04804817779,-0.1629355956
1.11,0.04445590291,-0.1621975102
1.12,0.04092722159,-0.1613965882
1.13,0.03746429432,-0.160535649
1.14,0.03406908123,-0.1596176926
1.15,0.03074333179,-0.1586458817
1.16,0.02748857566,-0.157623523
1.17,0.02430611477,-0.1565540496
1.18,0.02119701656,-0.1554410019
1.19,0.01816210842,-0.1542880096
1.2,0.01520197331,-0.1530987726
1.21,0.01231694657,-0.1518770424
1.22,0.009507113876,-0.1506266039
1.23,0.006772310344,-0.1493512569
1.24,0.004112120759,-0.1480547977
1.25,0.001525880938,-0.1467410009
1.26,-0.0009873198278,-0.1454136024
1.27,-0.003428635263,-0.1440762812
1.28,-0.005799457553,-0.1427326429
1.29,-0.008101411774,-0.1413862032
1.3,-0.01033634935,-0.1400403716
1.31,-0.01250634053,-0.1386984357
1.32,-0.01461366603,-0.1373635471
1.33,-0.01666080767,-0.136038706
1.34,-0.01865043834,-0.1347267486
1.35,-0.020585411,-0.1334303336
1.36,-0.02246874712,-0.13215193
1.37,-0.02430362421,-0.1308938063
1.38,-0.02609336291,-0.1296580194
1.39,-0.0278414133,-0.1284464051
1.4,-0.02955134079,-0.1272605694
1.41,-0.0312268114,-0.1261018806
1.42,-0.03287157668,-0.1249714623
1.43,-0.03448945823,-0.1238701875
1.44,-0.0360843318,-0.1227986731
1.45,-0.03766011125,-0.1217572769
1.46,-0.03922073215,-0.1207460933
1.47,-0.04077013533,-0.1197649522
1.48,-0.04231225025,-0.1188134177
1.49,-0.04385097838,-0.117890788
1.5,-0.04539017654,-0.1169960963
1.51,-0.04693364033,-0.1161281134
1.52,-0.04848508773,-0.1152853498
1.53,-0.05004814278,-0.1144660605
1.54,-0.05162631963,-0.1136682498
1.55,-0.05322300678,-0.1128896769
1.56,-0.05484145173,-0.1121278631
1.57,-0.05648474602,-0.1113800997
1.58,-0.05815581069,-0.1106434564
1.59,-0.05985738232,-0.1099147911
1.6,-0.06159199956,-0.1091907603
1.61,-0.06336199026,-0.1084678301
1.62,-0.06516945934,-0.1077422886
1.63,-0.0670162772,-0.1070102582
1.64,-0.068904069,-0.1062677092
1.65,-0.07083420461,-0.1055104738
1.66,-0.07280778943,-0.1047342609
1.67,-0.07482565602,-0.103934671
1.68,-0.0768883566,-0.1031072123
1.69,-0.07899615645,-0.1022473165
1.7,-0.08114902824,-0.1013503558
1.71,-0.08334664728,-0.1004116594
1.72,-0.08558838778,-0.09942653109
1.73,-0.08787332007,-0.09839026653
1.74,-0.09020020878,-0.09729817103
1.75,-0.09256751209,-0.09614557731
1.76,-0.09497338194,-0.09492786342
1.77,-0.0974156653,-0.09364047064
1.78,-0.09989190641,-0.09227892133
1.79,-0.1023993501,-0.09083883675
1.8,-0.104934946,-0.08931595466
1.81,-0.107495354,-0.08770614675
1.82,-0.1100769503,-0.0860054358
1.83,-0.1126758349,-0.0842100125
1.84,-0.1152878397,-0.08231625196
1.85,-0.1179085376,-0.08032072972
1.86,-0.1205332527,-0.07822023729
1.87,-0.1231570714,-0.07601179723
1.88,-0.1257748536,-0.07369267758
1.89,-0.1283812462,-0.07126040568
1.9,-0.1309706959,-0.06871278134
1.91,-0.1335374636,-0.06604788926
1.92,-0.1360756393,-0.06326411073
1.93,-0.1385791577,-0.0603601345
1.94,-0.1410418146,-0.05733496683
1.95,-0.143457283,-0.05418794066
1.96,-0.1458191315,-0.05091872391
1.97,-0.1481208412,-0.04752732678
1.98,-0.1503558243,-0.04401410818
1.99,-0.1525174429,-0.04037978109
2,-0.1545990278,-0.03662541699
2.01,-0.1565938977,-0.03275244921
2.02,-0.1584953787,-0.02876267526
2.03,-0.1602968241,-0.02465825815
2.04,-0.161991634,-0.02044172656
2.05,-0.1635732749,-0.01611597404
2.06,-0.1650353,-0.01168425708
2.07,-0.1663713683,-0.007150192152
2.08,-0.1675752646,-0.002517751628
2.09,-0.168640919,0.002208741295
2.1,-0.1695624254,0.007024618761
2.11,-0.1703340614,0.01192487544
2.12,-0.1709503058,0.01690417674
2.13,-0.1714058573,0.02195686801
2.14,-0.1716956521,0.02707698478
2.15,-0.171814881,0.03225826383
2.16,-0.1717590057,0.03749415533
2.17,-0.1715237751,0.04277783581
2.18,-0.1711052407,0.04810222196
2.19,-0.1704997705,0.05345998536
2.2,-0.1697040638,0.05884356788
2.21,-0.1687151633,0.06424519794
2.22,-0.1675304681,0.06965690742
2.23,-0.1661477442,0.07507054921
2.24,-0.1645651358,0.08047781549
2.25,-0.162781174,0.08587025643
2.26,-0.1607947858,0.09123929952
2.27,-0.1586053015,0.09657626931
2.28,-0.1562124607,0.1018724076
2.29,-0.1536164185,0.107118894
2.3,-0.1508177493,0.1123068667
2.31,-0.1478174502,0.1174274435
2.32,-0.1446169434,0.1224717433
2.33,-0.1412180769,0.1274309074
2.34,-0.1376231247,0.1322961208
2.35,-0.1338347858,0.1370586339
2.36,-0.1298561815,0.1417097841
2.37,-0.1256908524,0.1462410165
2.38,-0.1213427537,0.150643906
2.39,-0.1168162499,0.1549101775
2.4,-0.1121161078,0.159031727
2.41,-0.107247489,0.1630006418
2.42,-0.1022159408,0.1668092204
2.43,-0.09702738691,0.1704499924
2.44,-0.09168811617,0.1739157368
2.45,-0.08620477092,0.1771995014
2.46,-0.08058433422,0.1802946199
2.47,-0.0748341162,0.1831947292
2.48,-0.06896173948,0.1858937865
2.49,-0.06297512379,0.1883860843
2.5,-0.05688246973,0.190666266
2.51,-0.05069224184,0.1927293396
2.52,-0.04441315087,0.1945706913
2.53,-0.03805413544,0.1961860976
2.54,-0.03162434304,0.197571737
2.55,-0.02513311047,0.1987242002
2.56,-0.01858994373,0.1996404998
2.57,-0.01200449746,0.2003180785
2.58,-0.005386553972,0.2007548167
2.59,0.001253998103,0.2009490385
2.6,0.007907185477,0.2008995172
2.61,0.0145629721,0.2006054795
2.62,0.02121128124,0.2000666081
2.63,0.02784201775,0.1992830437
2.64,0.03444509031,0.198255386
2.65,0.04101043379,0.1969846931
2.66,0.04752803151,0.19547248
2.67,0.05398793742,0.1937207159
2.68,0.06038029808,0.1917318205
2.69,0.06669537449,0.1895086591
2.7,0.07292356361,0.1870545367
2.71,0.07905541953,0.1843731909
2.72,0.08508167424,0.1814687835
2.73,0.09099325806,0.1783458919
2.74,0.09678131943,0.1750094982
2.75,0.1024372443,0.1714649789
2.76,0.1079526747,0.167718092
2.77,0.1133195271,0.1637749643
2.78,0.1185300093,0.1596420775
2.79,0.1235766378,0.1553262532
2.8,0.1284522528,0.1508346375
2.81,0.133150034,0.1461746846
2.82,0.1376635143,0.1413541395
2.83,0.1419865931,0.1363810204
2.84,0.1461135492,0.1312636002
2.85,0.1500390514,0.1260103876
2.86,0.1537581695,0.1206301075
2.87,0.1572663834,0.1151316809
2.88,0.1605595917,0.1095242047
2.89,0.1636341187,0.1038169305
2.9,0.166486721,0.09801924386
2.91,0.1691145922,0.09214064282
2.92,0.1715153675,0.08619071617
2.93,0.173687126,0.08017912182
2.94,0.1756283931,0.07411556495
2.95,0.1773381411,0.0680097762
2.96,0.1788157885,0.06187148978
2.97,0.1800611988,0.0557104218
2.98,0.181074678,0.04953624862
2.99,0.1818569705,0.04335858549
3,0.1824092549,0.03718696539
3.01,0.1827331376,0.03103081819
3.02,0.1828306466,0.02489945024
3.03,0.182704223,0.01880202423
3.04,0.1823567125,0.01274753971
3.05,0.1817913556,0.006744813958
3.06,0.1810117767,0.0008024635249
3.07,0.1800219723,-0.005071113644
3.08,0.1788262989,-0.01086775543
3.09,0.1774294591,-0.01657955203
3.1,0.1758364878,-0.02219886174
3.11,0.1740527373,-0.02771832594
3.12,0.1720838613,-0.0331308832
3.13,0.1699357991,-0.03842978265
3.14,0.1676147585,-0.04360859632
3.15,0.165127198,-0.0486612307
3.16,0.1624798094,-0.05358193724
3.17,0.1596794989,-0.05836532194
3.18,0.1567333685,-0.06300635398
3.19,0.1536486966,-0.06750037323
3.2,0.1504329185,-0.07184309689
3.21,0.1470936065,-0.07603062493
3.22,0.1436384502,-0.08005944462
3.23,0.1400752361,-0.08392643392
3.24,0.1364118274,-0.08762886388
3.25,0.1326561438,-0.09116439988
3.26,0.1288161415,-0.09453110193
3.27,0.1248997926,-0.09772742383
3.28,0.1209150653,-0.1007522113
3.29,0.1168699042,-0.1036046993
3.3,0.1127722106,-0.1062845077
3.31,0.1086298232,-0.1087916368
3.32,0.1044504993,-0.1111264611
3.33,0.1002418959,-0.1132897229
3.34,0.0960115523,-0.1152825239
3.35,0.09176687174,-0.1171063169
3.36,0.08751510491,-0.1187628963
3.37,0.08326333329,-0.1202543872
3.38,0.07901845334,-0.1215832347
3.39,0.07478716138,-0.1227521915
3.4,0.07057593912,-0.1237643051
3.41,0.06639104003,-0.1246229047
3.42,0.06223847639,-0.1253315867
3.43,0.05812400723,-0.1258942002
3.44,0.05405312706,-0.1263148315
3.45,0.05003105555,-0.1265977884
3.46,0.04606272801,-0.1267475839
3.47,0.04215278686,-0.1267689193
3.48,0.03830557403,-0.1266666675
3.49,0.03452512428,-0.126445855
3.5,0.03081515952,-0.1261116448
3.51,0.02717908412,-0.1256693181
3.52,0.02361998116,-0.1251242565
3.53,0.02014060973,-0.1244819236
3.54,0.01674340317,-0.123747847
3.55,0.01343046838,-0.1229275998
3.56,0.01020358604,-0.1220267828
3.57,0.007064211857,-0.1210510061
3.58,0.004013478796,-0.1200058713
3.59,0.001052200257,-0.1188969539
3.6,-0.001819125792,-0.1177297858
3.61,-0.004600311752,-0.1165098381
3.62,-0.007291474415,-0.1152425044
3.63,-0.009893028096,-0.1139330847
3.64,-0.01240567691,-0.1125867691
3.65,-0.01483040618,-0.1112086225
3.66,-0.01716847311,-0.10980357
3.67,-0.01942139658,-0.1083763826
3.68,-0.02159094632,-0.1069316632
3.69,-0.02367913126,-0.1054738342
3.7,-0.02568818732,-0.1040071248
3.71,-0.02762056451,-0.1025355598
3.72,-0.02947891346,-0.1010629484
3.73,-0.03126607146,-0.09959287498
3.74,-0.03298504792,-0.09812868922
3.75,-0.03463900946,-0.0966734983
3.76,-0.03623126457,-0.09523015928
3.77,-0.03776524791,-0.09380127268
3.78,-0.03924450433,-0.09238917683
3.79,-0.04067267266,-0.09099594318
3.8,-0.0420534692,-0.08962337258
3.81,-0.04339067123,-0.0882729924
3.82,-0.04468810027,-0.08694605471
3.83,-0.04594960537,-0.08564353533
3.84,-0.04717904642,-0.08436613387
3.85,-0.04838027748,-0.08311427467
3.86,-0.04955713026,-0.08188810874
3.87,-0.05071339773,-0.08068751656
3.88,-0.05185281798,-0.07951211186
3.89,-0.05297905831,-0.07836124627
3.9,-0.05409569968,-0.07723401487
3.91,-0.05520622145,-0.07612926258
3.92,-0.05631398664,-0.07504559147
3.93,-0.05742222751,-0.07398136878
3.94,-0.05853403175,-0.07293473585
3.95,-0.05965232917,-0.07190361771
3.96,-0.06077987896,-0.07088573352
3.97,-0.06191925757,-0.06987860758
3.98,-0.0630728473,-0.0688795811
3.99,-0.06424282554,-0.06788582456
4,-0.06543115472,-0.06689435069
4.01,-0.06663957308,-0.0659020279
4.02,-0.06786958618,-0.06490559437
4.03,-0.06912245923,-0.06390167242
4.04,-0.07039921027,-0.06288678345
4.05,-0.07170060423,-0.06185736314
4.06,-0.07302714778,-0.06080977703
4.07,-0.0743790852,-0.05974033631
4.08,-0.07575639507,-0.05864531388
4.09,-0.07715878787,-0.05752096059
4.1,-0.07858570458,-0.05636352151
4.11,-0.08003631615,-0.05516925236
4.12,-0.08150952391,-0.05393443593
4.13,-0.08300396093,-0.05265539841
4.14,-0.08451799431,-0.05132852574
4.15,-0.08604972836,-0.04995027968
4.16,-0.08759700875,-0.04851721382
4.17,-0.08915742751,-0.04702598928
4.18,-0.09072832896,-0.04547339014
4.19,-0.09230681648,-0.04385633852
4.2,-0.09388976013,-0.0421719093
4.21,-0.09547380515,-0.04041734438
4.22,-0.09705538122,-0.03859006647
4.23,-0.0986307125,-0.03668769237
4.24,-0.1001958284,-0.0347080457
4.25,-0.1017465752,-0.03264916897
4.26,-0.1032786282,-0.03050933506
4.27,-0.1047875043,-0.02828705801
4.28,-0.1062685761,-0.02598110308
4.29,-0.1077170853,-0.02359049607
4.3,-0.1091281575,-0.02111453189
4.31,-0.1104968173,-0.01855278223
4.32,-0.1118180038,-0.01590510253
4.33,-0.1130865863,-0.013171638
4.34,-0.1142973808,-0.01035282877
4.35,-0.1154451663,-0.007449414175
4.36,-0.1165247015,-0.004462436133
4.37,-0.1175307424,-0.001393241542
4.38,-0.1184580587,0.001756516206
4.39,-0.1193014514,0.004984876676
4.4,-0.1200557702,0.008289572787
4.41,-0.1207159303,0.01166803217
4.42,-0.1212769304,0.01511737945
4.43,-0.121733869,0.01863443951
4.44,-0.1220819621,0.02221574171
4.45,-0.1223165594,0.02585752494
4.46,-0.1224331612,0.02955574372
4.47,-0.1224274344,0.03330607517
4.48,-0.1222952284,0.03710392677
4.49,-0.1220325903,0.04094444518
4.5,-0.1216357803,0.04482252573
4.51,-0.1211012861,0.04873282282
4.52,-0.1204258364,0.05266976114
4.53,-0.1196064148,0.05662754758
4.54,-0.1186402723,0.06060018395
4.55,-0.1175249392,0.06458148033
4.56,-0.1162582369,0.06856506919
4.57,-0.1148382879,0.07254442003
4.58,-0.1132635263,0.07651285464
4.59,-0.1115327064,0.08046356298
4.6,-0.109644911,0.08438961945
4.61,-0.1075995591,0.08828399973
4.62,-0.1053964116,0.0921395979
4.63,-0.1030355777,0.09594924409
4.64,-0.1005175191,0.0997057223
4.65,-0.09784305359,0.1034017886
4.66,-0.09501335805,0.1070301894
4.67,-0.09202997012,0.1105836801
4.68,-0.08889478894,0.1140550437
4.69,-0.08561007503,0.1174371095
4.7,-0.08217844905,0.1207227718
4.71,-0.07860288967,0.1239050085
4.72,-0.0748867304,0.1269769001
4.73,-0.07103365549,0.1299316476
4.74,-0.06704769478,0.1327625909
4.75,-0.0629332177,0.1354632269
4.76,-0.05869492624,0.1380272275
4.77,-0.05433784699,0.1404484561
4.78,-0.04986732236,0.1427209854
4.79,-0.04528900075,0.1448391134
4.8,-0.04060882606,0.1467973796
4.81,-0.03583302614,0.1485905804
4.82,-0.03096810062,0.150213784
4.83,-0.02602080782,0.1516623446
4.84,-0.02099815103,0.1529319161
4.85,-0.01590736395,0.154018465
4.86,-0.0107558956,0.1549182824
4.87,-0.005551394452,0.1556279953
4.88,-0.0003016921003,0.1561445776
4.89,0.004985213721,0.1564653592
4.9,0.01030117657,0.1565880353
4.91,0.0156379192,0.1565106743
4.92,0.02098705189,0.1562317245
4.93,0.02634009112,0.1557500205
4.94,0.0316884786,0.1550647883
4.95,0.03702360048,0.1541756495
4.96,0.04233680688,0.1530826242
4.97,0.0476194315,0.1517861335
4.98,0.0528628114,0.1502870003
4.99,0.05805830678,0.1485864501
5,0.06319732078,0.1466861093
5.01,0.0682713193,0.1445880041
5.02,0.07327185063,0.142294557
5.03,0.07819056492,0.1398085835
5.04,0.08301923357,0.1371332868
5.05,0.0877497682,0.1342722521
5.06,0.09237423944,0.1312294398
5.07,0.09688489528,0.1280091779
5.08,0.1012741791,0.1246161529
5.09,0.1055347471,0.1210554005
5.1,0.1096594853,0.1173322951
5.11,0.1136415264,0.1134525383
5.12,0.117474265,0.109422147
5.13,0.1211513733,0.10524744
5.14,0.1246668157,0.1009350248
5.15,0.1280148625,0.09649178284
5.16,0.1311901029,0.0919248543
5.17,0.1341874579,0.08724162253
5.18,0.137002191,0.08244969752
5.19,0.1396299196,0.07755689902
5.2,0.1420666244,0.072571239
5.21,0.1443086584,0.06750090377
5.22,0.1463527551,0.06235423554
5.23,0.1481960351,0.05713971375
5.24,0.1498360125,0.05186593596
5.25,0.1512706001,0.04654159848
5.26,0.1524981133,0.04117547684
5.27,0.1535172731,0.035776406
5.28,0.1543272087,0.03035326052
5.29,0.154927458,0.02491493457
5.3,0.1553179682,0.01947032201
5.31,0.1554990948,0.01402829645
5.32,0.1554715992,0.008597691392
5.33,0.1552366466,0.00318728059
5.34,0.1547958013,-0.00219424152
5.35,0.1541510222,-0.007538279051
5.36,0.1533046572,-0.01283635365
5.37,0.1522594356,-0.01808012314
5.38,0.1510184612,-0.02326139974
5.39,0.1495852034,-0.0283721679
5.4,0.1479634872,-0.03340460161
5.41,0.1461574837,-0.0383510812
5.42,0.1441716983,-0.04320420957
5.43,0.1420109586,-0.04795682784
5.44,0.1396804023,-0.05260203023
5.45,0.1371854632,-0.05713317843
5.46,0.1345318571,-0.06154391511
5.47,0.1317255672,-0.06582817671
5.48,0.1287728286,-0.06998020546
5.49,0.1256801122,-0.07399456054
5.5,0.1224541083,-0.07786612845
5.51,0.1191017098,-0.08159013244
5.52,0.1156299945,-0.08516214112
5.53,0.1120462075,-0.08857807608
5.54,0.1083577432,-0.09183421862
5.55,0.1045721267,-0.09492721557
5.56,0.1006969952,-0.09785408406
5.57,0.09674007918,-0.1006122154
5.58,0.09270918378,-0.103199378
5.59,0.08861216938,-0.1056137191
5.6,0.08445693275,-0.107853766
5.61,0.08025138802,-0.1099184258
5.62,0.07600344769,-0.1118069841
5.63,0.07172100385,-0.1135191038
5.64,0.06741190948,-0.1150548212
5.65,0.06308396009,-0.1164145427
5.66,0.05874487549,-0.1175990398
5.67,0.05440228203,-0.1186094434
5.68,0.05006369507,-0.1194472371
5.69,0.04573650197,-0.1201142495
5.7,0.04142794546,-0.1206126462
5.71,0.03714510758,-0.1209449204
5.72,0.03289489409,-0.121113883
5.73,0.02868401951,-0.1211226516
5.74,0.02451899277,-0.1209746393
5.75,0.0204061035,-0.1206735426
5.76,0.01635140904,-0.1202233283
5.77,0.01236072213,-0.11962822
5.78,0.008439599419,-0.1188926845
5.79,0.004593330654,-0.1180214168
5.8,0.0008269287862,-0.1170193253
5.81,-0.002854879165,-0.1158915161
5.82,-0.006447660371,-0.1146432772
5.83,-0.00994728359,-0.1132800623
5.84,-0.01334992567,-0.1118074738
5.85,-0.01665207716,-0.1102312464
5.86,-0.01985054701,-0.1085572299
5.87,-0.02294246635,-0.1067913719
5.88,-0.02592529134,-0.1049397003
5.89,-0.02879680509,-0.103008306
5.9,-0.03155511869,-0.1010033257
5.91,-0.03419867124,-0.09893092395
5.92,-0.03672622903,-0.0967972763
5.93,-0.0391368838,-0.09460855175
5.94,-0.04143004999,-0.09237089585
5.95,-0.0436054613,-0.09009041388
5.96,-0.04566316614,-0.08777315426
5.97,-0.04760352242,-0.08542509233
5.98,-0.04942719139,-0.08305211449
5.99,-0.05113513067,-0.08066000268
6,-0.05272858653,-0.07825441943
