"Freq [GHz]","re(S(Tx_p1,Tx_p1)) []","im(S(Tx_p1,Tx_p1)) []"
1,-0.02142827919,-0.06076716329
1.01,-0.02317802827,-0.05882577846
1.02,-0.02482178637,-0.0568342219
1.03,-0.02635732861,-0.05479795552
1.04,-0.02778276555,-0.05272258275
1.05,-0.02909655005,-0.05061382496
1.06,-0.0302974827,-0.04847749786
1.07,-0.03138471566,-0.04631948774
1.08,-0.03235775499,-0.0441457279
1.09,-0.03321646155,-0.04196217516
1.1,-0.03396105037,-0.03977478656
1.11,-0.0345920886,-0.03758949641
1.12,-0.03511049208,-0.03541219372
1.13,-0.03551752052,-0.03324870002
1.14,-0.03581477131,-0.03110474783
1.15,-0.03600417213,-0.02898595956
1.16,-0.03608797221,-0.02689782726
1.17,-0.03606873253,-0.02484569296
1.18,-0.03594931474,-0.02283472992
1.19,-0.03573286915,-0.02086992462
1.2,-0.03542282158,-0.0189560598
1.21,-0.03502285937,-0.01709769833
1.22,-0.03453691639,-0.01529916818
1.23,-0.03396915735,-0.01356454841
1.24,-0.03332396128,-0.01189765626
1.25,-0.03260590439,-0.01030203537
1.26,-0.03181974228,-0.008780945175
1.27,-0.03097039172,-0.007337351423
1.28,-0.03006291186,-0.00597391798
1.29,-0.02910248519,-0.004692999807
1.3,-0.02809439813,-0.003496637179
1.31,-0.02704402142,-0.002386551148
1.32,-0.02595679043,-0.001364140244
1.33,-0.02483818533,-0.0004304784222
1.34,-0.02369371134,0.0004136857669
1.35,-0.02252887902,0.001167928778
1.36,-0.02134918479,0.001832150474
1.37,-0.02016009162,0.002406571335
1.38,-0.01896701007,0.00289172852
1.39,-0.0177752797,0.003288470784
1.4,-0.01659015092,0.003597952308
1.41,-0.01541676735,0.003821625458
1.42,-0.01426014872,0.003961232525
1.43,-0.01312517447,0.004018796485
1.44,-0.01201656792,0.003996610824
1.45,-0.01093888127,0.003897228484
1.46,-0.009896481319,0.003723449977
1.47,-0.008893536031,0.003478310696
1.48,-0.007934001986,0.003165067563
1.49,-0.007021612688,0.002787184955
1.5,-0.006159867833,0.002348320063
1.51,-0.005352023541,0.001852307703
1.52,-0.004601083574,0.001303144647
1.53,-0.003909791556,0.0007049735529
1.54,-0.003280624236,6.206653711E-05
1.55,-0.002715785769,-0.0006211915261
1.56,-0.002217203061,-0.001340319924
1.57,-0.001786522159,-0.002090759172
1.58,-0.001425105688,-0.002867888167
1.59,-0.001134031349,-0.003667041359
1.6,-0.000914091441,-0.004483525876
1.61,-0.0007657934261,-0.005312638543
1.62,-0.0006893614994,-0.006149682732
1.63,-0.0006847391563,-0.006989984982
1.64,-0.0007515927312,-0.007828911329
1.65,-0.0008893158812,-0.008661883295
1.66,-0.001097034988,-0.009484393474
1.67,-0.00137361544,-0.01029202067
1.68,-0.001717668772,-0.01108044453
1.69,-0.002127560604,-0.01184545963
1.7,-0.002601419361,-0.01258298899
1.71,-0.00313714571,-0.01328909689
1.72,-0.003732422695,-0.0139600011
1.73,-0.004384726489,-0.01459208436
1.74,-0.005091337743,-0.01518190509
1.75,-0.005849353476,-0.0157262074
1.76,-0.006655699434,-0.01622193024
1.77,-0.007507142901,-0.01666621581
1.78,-0.008400305872,-0.01705641703
1.79,-0.00933167856,-0.01739010428
1.8,-0.01029763317,-0.01766507119
1.81,-0.0112944379,-0.01787933961
1.82,-0.01231827107,-0.01803116369
1.83,-0.01336523541,-0.01811903309
1.84,-0.01443137234,-0.01814167533
1.85,-0.0155126763,-0.01809805723
1.86,-0.01660510902,-0.01798738556
1.87,-0.01770461366,-0.0178091068
1.88,-0.01880712879,-0.01756290607
1.89,-0.01990860224,-0.0172487053
1.9,-0.0210050046,-0.01686666051
1.91,-0.02209234252,-0.01641715841
1.92,-0.0231666716,-0.01590081223
1.93,-0.02422410893,-0.01531845685
1.94,-0.02526084525,-0.0146711432
1.95,-0.02627315658,-0.01396013205
1.96,-0.02725741541,-0.01318688721
1.97,-0.02821010138,-0.01235306805
1.98,-0.0291278114,-0.01146052164
1.99,-0.03000726915,-0.01051127419
2,-0.03084533409,-0.009507522214
2.01,-0.03163900971,-0.008451623146
2.02,-0.03238545127,-0.007346085639
2.03,-0.03308197281,-0.006193559509
2.04,-0.03372605353,-0.004996825391
2.05,-0.03431534348,-0.003758784147
2.06,-0.0348476686,-0.002482446066
2.07,-0.035321035,-0.001170919902
2.08,-0.03573363266,0.0001725981988
2.09,-0.03608383837,0.001544835855
2.1,-0.03637021801,0.002942455637
2.11,-0.03659152818,0.004362066249
2.12,-0.03674671711,0.005800233656
2.13,-0.03683492499,0.007253492134
2.14,-0.03685548364,0.008718355187
2.15,-0.03680791549,0.0101913263
2.16,-0.03669193207,0.01166890952
2.17,-0.03650743182,0.01314761975
2.18,-0.03625449742,0.01462399286
2.19,-0.03593339251,0.01609459543
2.2,-0.03554455795,0.01755603422
2.21,-0.03508860757,0.01900496529
2.22,-0.03456632345,0.02043810273
2.23,-0.03397865084,0.02185222699
2.24,-0.03332669259,0.02324419287
2.25,-0.03261170326,0.02461093697
2.26,-0.03183508292,0.02594948479
2.27,-0.03099837059,0.02725695731
2.28,-0.03010323746,0.02853057716
2.29,-0.0291514798,0.02976767425
2.3,-0.02814501178,0.03096569095
2.31,-0.027085858,0.0321221868
2.32,-0.02597614595,0.03323484268
2.33,-0.02481809833,0.03430146456
2.34,-0.02361402529,0.03531998665
2.35,-0.02236631666,0.03628847421
2.36,-0.02107743412,0.03720512578
2.37,-0.01974990339,0.03806827493
2.38,-0.01838630649,0.03887639166
2.39,-0.01698927403,0.03962808321
2.4,-0.01556147762,0.04032209454
2.41,-0.01410562236,0.04095730832
2.42,-0.01262443954,0.04153274457
2.43,-0.01112067944,0.04204755984
2.44,-0.009597104294,0.04250104608
2.45,-0.008056481568,0.04289262912
2.46,-0.006501577323,0.04322186684
2.47,-0.004935149895,0.04348844699
2.48,-0.0033599438,0.04369218475
2.49,-0.001778683894,0.04383302002
2.5,-0.0001940698121,0.04391101442
2.51,0.001391229317,0.04392634811
2.52,0.002974579868,0.0438793164
2.53,0.004553388423,0.04377032612
2.54,0.006125106182,0.04359989192
2.55,0.007687233074,0.04336863238
2.56,0.009237321563,0.04307726597
2.57,0.01077298017,0.042726607
2.58,0.01229187667,0.04231756147
2.59,0.01379174105,0.04185112277
2.6,0.0152703681,0.04132836752
2.61,0.01672561981,0.04075045123
2.62,0.01815542742,0.04011860409
2.63,0.01955779326,0.03943412667
2.64,0.02093079228,0.03869838576
2.65,0.0222725734,0.03791281019
2.66,0.02358136055,0.03707888672
2.67,0.02485545357,0.03619815606
2.68,0.02609322882,0.03527220893
2.69,0.02729313965,0.03430268221
2.7,0.02845371668,0.03329125524
2.71,0.02957356788,0.03223964621
2.72,0.03065137852,0.0311496087
2.73,0.03168591099,0.03002292827
2.74,0.03267600446,0.02886141931
2.75,0.03362057447,0.02766692187
2.76,0.03451861238,0.02644129879
2.77,0.03536918479,0.02518643281
2.78,0.0361714328,0.02390422393
2.79,0.03692457133,0.02259658684
2.8,0.03762788833,0.02126544851
2.81,0.03828074393,0.0199127459
2.82,0.03888256961,0.01854042378
2.83,0.03943286741,0.01715043267
2.84,0.03993120901,0.01574472689
2.85,0.04037723495,0.01432526275
2.86,0.04077065377,0.01289399674
2.87,0.04111124124,0.01145288391
2.88,0.04139883961,0.01000387626
2.89,0.04163335684,0.008548921216
2.9,0.04181476594,0.00708996017
2.91,0.04194310433,0.005628927061
2.92,0.04201847324,0.004167746986
2.93,0.04204103716,0.002708334854
2.94,0.04201102333,0.001252594044
2.95,0.04192872128,-0.0001975849261
2.96,0.04179448245,-0.001640325728
2.97,0.04160871981,-0.003073767575
2.98,0.04137190748,-0.00449606658
2.99,0.04108458053,-0.005905397159
3,0.04074733464,-0.007299953462
3.01,0.04036082585,-0.008677950853
3.02,0.03992577039,-0.01003762744
3.03,0.03944294441,-0.01137724567
3.04,0.03891318376,-0.01269509397
3.05,0.03833738375,-0.01398948849
3.06,0.03771649892,-0.01525877489
3.07,0.03705154275,-0.01650133019
3.08,0.03634358729,-0.01771556474
3.09,0.03559376285,-0.01889992422
3.1,0.03480325753,-0.02005289176
3.11,0.03397331671,-0.02117299012
3.12,0.03310524245,-0.02225878389
3.13,0.03220039285,-0.02330888187
3.14,0.03126018121,-0.0243219394
3.15,0.03028607515,-0.02529666084
3.16,0.02927959559,-0.02623180206
3.17,0.02824231558,-0.02712617298
3.18,0.02717585898,-0.02797864013
3.19,0.02608189904,-0.02878812929
3.2,0.02496215676,-0.02955362813
3.21,0.02381839911,-0.03027418879
3.22,0.02265243708,-0.0309489306
3.23,0.02146612357,-0.03157704259
3.24,0.02026135104,-0.03215778619
3.25,0.01904004901,-0.03269049768
3.26,0.01780418141,-0.03317459073
3.27,0.01655574367,-0.03360955883
3.28,0.01529675964,-0.03399497754
3.29,0.01402927837,-0.03433050683
3.3,0.01275537063,-0.03461589309
3.31,0.01147712528,-0.03485097116
3.32,0.01019664546,-0.03503566617
3.33,0.008916044646,-0.03516999516
3.34,0.007637442423,-0.0352540686
3.35,0.00636296023,-0.03528809172
3.36,0.005094716873,-0.03527236551
3.37,0.003834823932,-0.03520728768
3.38,0.002585381023,-0.03509335322
3.39,0.001348470962,-0.03493115484
3.4,0.0001261548131,-0.03472138307
3.41,-0.001079533144,-0.0344648261
3.42,-0.002266590513,-0.03416236938
3.43,-0.003433051942,-0.0338149949
3.44,-0.004576994313,-0.03342378016
3.45,-0.005696541952,-0.03298989686
3.46,-0.006789871837,-0.03251460927
3.47,-0.007855218788,-0.03199927228
3.48,-0.008890880606,-0.03144532915
3.49,-0.009895223158,-0.03085430887
3.5,-0.01086668538,-0.03022782333
3.51,-0.01180378414,-0.02956756403
3.52,-0.01270511907,-0.02887529855
3.53,-0.0135693771,-0.02815286669
3.54,-0.01439533696,-0.02740217631
3.55,-0.0151818734,-0.02662519886
3.56,-0.01592796128,-0.02582396457
3.57,-0.01663267932,-0.02500055749
3.58,-0.01729521366,-0.02415711006
3.59,-0.01791486118,-0.02329579762
3.6,-0.01849103244,-0.02241883256
3.61,-0.01902325438,-0.02152845825
3.62,-0.01951117262,-0.0206269428
3.63,-0.01995455349,-0.0197165726
3.64,-0.02035328568,-0.01879964566
3.65,-0.02070738143,-0.01787846489
3.66,-0.02101697747,-0.01695533116
3.67,-0.02128233543,-0.01603253624
3.68,-0.02150384193,-0.01511235578
3.69,-0.02168200821,-0.0141970421
3.7,-0.02181746933,-0.01328881701
3.71,-0.02191098295,-0.01238986462
3.72,-0.02196342766,-0.01150232417
3.73,-0.02197580089,-0.01062828288
3.74,-0.02194921636,-0.009769768945
3.75,-0.02188490114,-0.008928744554
3.76,-0.02178419216,-0.008107099093
3.77,-0.02164853246,-0.007306642497
3.78,-0.02147946683,-0.006529098779
3.79,-0.02127863723,-0.005776099794
3.8,-0.02104777761,-0.005049179232
3.81,-0.02078870852,-0.004349766886
3.82,-0.0205033312,-0.003679183222
3.83,-0.02019362138,-0.003038634263
3.84,-0.01986162276,-0.002429206826
3.85,-0.01950944007,-0.001851864123
3.86,-0.01913923194,-0.001307441764
3.87,-0.01875320341,-0.0007966441632
3.88,-0.01835359823,-0.0003200413881
3.89,-0.01794269089,0.0001219335441
3.9,-0.01752277846,0.0005289868983
3.91,-0.01709617231,0.0009009659691
3.92,-0.01666518957,0.001237860331
3.93,-0.01623214458,0.001539802574
3.94,-0.01579934021,0.001807068528
3.95,-0.0153690591,0.002040076947
3.96,-0.01494355493,0.002239388667
3.97,-0.01452504368,0.002405705223
3.98,-0.01411569495,0.002539866924
3.99,-0.01371762331,0.002642850392
4,-0.01333287981,0.002715765556
4.01,-0.01296344366,0.00275985212
4.02,-0.01261121402,0.002776475498
4.03,-0.01227800206,0.002767122234
4.04,-0.01196552325,0.002733394914
4.05,-0.01167538994,0.002677006583
4.06,-0.01140910422,0.002599774688
4.07,-0.0111680512,0.002503614552
4.08,-0.01095349254,0.002390532409
4.09,-0.01076656055,0.002262618024
4.1,-0.01060825255,0.002122036907
4.11,-0.01047942579,0.001971022157
4.12,-0.01038079284,0.001811865964
4.13,-0.01031291749,0.001646910794
4.14,-0.01027621109,0.001478540279
4.15,-0.01027092962,0.001309169862
4.16,-0.01029717109,0.001141237214
4.17,-0.01035487376,0.0009771924668
4.18,-0.01044381477,0.0008194882871
4.19,-0.01056360947,0.0006705698409
4.2,-0.01071371133,0.0005328646745
4.21,-0.01089341254,0.0004087725563
4.22,-0.0111018451,0.0003006553146
4.23,-0.01133798271,0.0002108267123
4.24,-0.01160064317,0.0001415423966
4.25,-0.01188849143,9.498996374E-05
4.26,-0.01220004331,7.327917686E-05
4.27,-0.01253366979,7.843237767E-05
4.28,-0.01288760193,0.0001123751294
4.29,-0.01325993636,0.0001769271298
4.3,-0.01364864138,0.0002737934317
4.31,-0.01405156359,0.0004045560082
4.32,-0.01446643508,0.0005706656973
4.33,-0.01489088116,0.0007734345619
4.34,-0.01532242853,0.001014028698
4.35,-0.01575851397,0.001293461523
4.36,-0.01619649347,0.001612587574
4.37,-0.01663365173,0.001972096848
4.38,-0.01706721209,0.002372509705
4.39,-0.01749434678,0.002814172367
4.4,-0.01791218749,0.003297253028
4.41,-0.01831783618,0.003821738601
4.42,-0.0187083762,0.004387432119
4.43,-0.01908088351,0.004993950806
4.44,-0.01943243815,0.005640724836
4.45,-0.01976013575,0.006326996779
4.46,-0.02006109913,0.007051821765
4.47,-0.02033248997,0.007814068343
4.48,-0.0205715204,0.008612420067
4.49,-0.02077546457,0.009445377793
4.5,-0.02094167011,0.01031126269
4.51,-0.02106756944,0.01120821994
4.52,-0.02115069088,0.0121342232
4.53,-0.02118866951,0.01308707968
4.54,-0.02117925783,0.01406443592
4.55,-0.02112033599,0.0150637843
4.56,-0.02100992174,0.01608247007
4.57,-0.02084617992,0.01711769915
4.58,-0.02062743158,0.01816654637
4.59,-0.02035216254,0.01922596443
4.6,-0.0200190315,0.02029279334
4.61,-0.01962687754,0.02136377038
4.62,-0.01917472713,0.02243554052
4.63,-0.01866180039,0.02350466739
4.64,-0.01808751687,0.02456764453
4.65,-0.0174515005,0.02562090712
4.66,-0.01675358397,0.02666084398
4.67,-0.01599381236,0.02768380992
4.68,-0.01517244596,0.02868613831
4.69,-0.01428996248,0.02966415382
4.7,-0.01334705838,0.0306141854
4.71,-0.01234464946,0.03153257936
4.72,-0.0112838707,0.03241571241
4.73,-0.01016607524,0.0332600049
4.74,-0.008992832644,0.03406193388
4.75,-0.007765926313,0.03481804617
4.76,-0.006487350133,0.03552497129
4.77,-0.005159304342,0.03617943419
4.78,-0.003784190619,0.03677826778
4.79,-0.002364606412,0.03731842522
4.8,-0.0009033385174,0.03779699185
4.81,0.0005966440661,0.03821119682
4.82,0.002132197994,0.03855842422
4.83,0.003700014117,0.0388362239
4.84,0.005296626678,0.03904232167
4.85,0.006918423143,0.03917462907
4.86,0.008561654631,0.03923125249
4.87,0.0102224469,0.03921050178
4.88,0.01189681189,0.03911089814
4.89,0.0135806597,0.03893118135
4.9,0.01526981109,0.03867031637
4.91,0.01696001037,0.03832749909
4.92,0.01864693857,0.03790216146
4.93,0.02032622709,0.0373939757
4.94,0.0219934715,0.03680285786
4.95,0.02364424559,0.03612897042
4.96,0.02527411564,0.03537272419
4.97,0.02687865479,0.03453477927
4.98,0.02845345749,0.03361604519
4.99,0.02999415395,0.03261768025
5,0.03149642464,0.03154108994
5.01,0.03295601463,0.03038792447
5.02,0.03436874785,0.0291600756
5.03,0.03573054118,0.02785967244
5.04,0.03703741826,0.02648907651
5.05,0.03828552309,0.02505087604
5.06,0.03947113323,0.02354787931
5.07,0.04059067269,0.02198310734
5.08,0.04164072433,0.02035978573
5.09,0.04261804186,0.01868133586
5.1,0.04351956127,0.01695136524
5.11,0.04434241173,0.01517365733
5.12,0.04508392589,0.0133521606
5.13,0.04574164952,0.01149097705
5.14,0.04631335054,0.009594350102
5.15,0.04679702726,0.007666652022
5.16,0.04719091594,0.005712370801
5.17,0.04749349759,0.003736096611
5.18,0.04770350389,0.001742507859
5.19,0.04781992244,-0.0002636431096
5.2,0.04784200099,-0.002277544615
5.21,0.04776925101,-0.004294340499
5.22,0.04760145018,-0.006309145181
5.23,0.04733864421,-0.008317058868
5.24,0.04698114758,-0.01031318286
5.25,0.04652954351,-0.01229263488
5.26,0.04598468298,-0.01425056447
5.27,0.04534768283,-0.0161821682
5.28,0.04461992305,-0.01808270485
5.29,0.04380304307,-0.01994751045
5.3,0.04289893726,-0.02177201296
5.31,0.04190974957,-0.02355174685
5.32,0.04083786721,-0.02528236722
5.33,0.03968591369,-0.02695966358
5.34,0.0384567409,-0.02857957328
5.35,0.03715342047,-0.03013819435
5.36,0.03577923443,-0.03163179791
5.37,0.03433766509,-0.03305683997
5.38,0.03283238422,-0.03440997265
5.39,0.03126724172,-0.03568805478
5.4,0.02964625349,-0.03688816174
5.41,0.02797358891,-0.03800759469
5.42,0.02625355767,-0.03904388894
5.43,0.02449059625,-0.03999482166
5.44,0.02268925384,-0.04085841867
5.45,0.02085417795,-0.04163296047
5.46,0.01899009973,-0.04231698741
5.47,0.0171018189,-0.04290930397
5.48,0.01519418855,-0.04340898216
5.49,0.01327209975,-0.04381536402
5.5,0.01134046598,-0.04412806326
5.51,0.009404207569,-0.04434696587
5.52,0.007468236069,-0.04447222999
5.53,0.005537438716,-0.04450428468
5.54,0.003616662953,-0.04444382792
5.55,0.001710701116,-0.04429182364
5.56,-0.0001757246644,-0.04404949789
5.57,-0.002037977323,-0.04371833409
5.58,-0.003871519393,-0.04330006747
5.59,-0.005671927193,-0.04279667865
5.6,-0.007434904595,-0.04221038637
5.61,-0.009156296339,-0.0415436395
5.62,-0.01083210085,-0.0407991082
5.63,-0.01245848249,-0.03997967443
5.64,-0.01403178324,-0.0390884217
5.65,-0.01554853376,-0.03812862422
5.66,-0.01700546372,-0.03710373535
5.67,-0.01839951153,-0.03601737558
5.68,-0.01972783321,-0.03487331985
5.69,-0.02098781063,-0.03367548446
5.7,-0.02217705883,-0.03242791352
5.71,-0.0232934326,-0.03113476501
5.72,-0.02433503217,-0.02980029645
5.73,-0.02530020812,-0.02842885032
5.74,-0.02618756531,-0.02702483924
5.75,-0.02699596598,-0.02559273093
5.76,-0.027724532,-0.02413703302
5.77,-0.02837264609,-0.02266227785
5.78,-0.02893995228,-0.02117300717
5.79,-0.02942635537,-0.01967375687
5.8,-0.02983201952,-0.01816904185
5.81,-0.03015736597,-0.01666334094
5.82,-0.03040306981,-0.01516108204
5.83,-0.03057005601,-0.01366662755
5.84,-0.03065949441,-0.01218426
5.85,-0.03067279409,-0.01071816804
5.86,-0.03061159676,-0.009272432911
5.87,-0.03047776943,-0.007851015184
5.88,-0.03027339638,-0.006457742135
5.89,-0.03000077029,-0.005096295552
5.9,-0.02966238279,-0.003770200142
5.91,-0.02926091427,-0.002482812536
5.92,-0.02879922314,-0.001237310931
5.93,-0.02828033446,-3.668542376E-05
5.94,-0.02770742808,0.00111627096
5.95,-0.02708382625,0.002218970489
5.96,-0.02641298081,0.003269038188
5.97,-0.02569846,0.004264318503
5.98,-0.02494393489,0.005202881159
5.99,-0.02415316552,0.006083026189
6,-0.02332998679,0.006903288114
