"Freq [GHz]","re(S(Tx_p1,Tx_p1)) []","im(S(Tx_p1,Tx_p1)) []"
1,-0.02441705688,-0.04278302933
1.01,-0.025603187,-0.04081087498
1.02,-0.0266800128,-0.03880676508
1.03,-0.02764609671,-0.03677652184
1.04,-0.02850035601,-0.03472606458
1.05,-0.02924206754,-0.03266138576
1.06,-0.02987087088,-0.0305885269
1.07,-0.03038676993,-0.0285135546
1.08,-0.03079013314,-0.02644253662
1.09,-0.03108169206,-0.02438151828
1.1,-0.03126253856,-0.02233649902
1.11,-0.03133412057,-0.02031340945
1.12,-0.03129823637,-0.01831808879
1.13,-0.0311570276,-0.01635626289
1.14,-0.03091297088,-0.01443352282
1.15,-0.03056886816,-0.01255530415
1.16,-0.0301278359,-0.01072686705
1.17,-0.02959329297,-0.008953277091
1.18,-0.02896894754,-0.007239387034
1.19,-0.02825878285,-0.00558981952
1.2,-0.02746704204,-0.004008950762
1.21,-0.02659821201,-0.002500895293
1.22,-0.02565700645,-0.001069491815
1.23,-0.02464834811,0.0002817098137
1.24,-0.02357735033,0.001549460401
1.25,-0.02244929795,0.002730822035
1.26,-0.02126962773,0.003823177447
1.27,-0.0200439082,0.004824238109
1.28,-0.01877781918,0.005732051034
1.29,-0.01747713103,0.006545004278
1.3,-0.01614768356,0.00726183112
1.31,-0.01479536494,0.007881612933
1.32,-0.01342609041,0.00840378072
1.33,-0.01204578112,0.008828115351
1.34,-0.01066034299,0.00915474648
1.35,-0.009275645779,0.009384150183
1.36,-0.007897502453,0.00951714532
1.37,-0.006531648792,0.009554888646
1.38,-0.005183723485,0.009498868711
1.39,-0.003859248664,0.009350898568
1.4,-0.002563610996,0.009113107331
1.41,-0.001302043396,0.008787930627
1.42,-7.960740735E-05,0.008378099984
1.43,0.001098823669,0.007886631202
1.44,0.002228580849,0.007316811759
1.45,0.003305214692,0.006672187311
1.46,0.004324509621,0.005956547335
1.47,0.005282497297,0.00517390999
1.48,0.006175469,0.004328506242
1.49,0.006999986985,0.003424763326
1.5,0.007752894771,0.002467287621
1.51,0.008431326339,0.001460846989
1.52,0.009032714206,0.0004103526611
1.53,0.009554796371,-0.0006791592641
1.54,0.009995622097,-0.001802546633
1.55,0.01035355652,-0.002954580293
1.56,0.01062728411,-0.004129963318
1.57,0.0108158109,-0.005323350325
1.58,0.01091846562,-0.006529366821
1.59,0.01093489956,-0.007742628495
1.6,0.01086508537,-0.008957760393
1.61,0.01070931469,-0.01016941591
1.62,0.01046819455,-0.01137229549
1.63,0.01014264287,-0.0125611651
1.64,0.009733882663,-0.01373087414
1.65,0.009243435387,-0.01487637309
1.66,0.008673113139,-0.01599273053
1.67,0.008025009962,-0.0170751496
1.68,0.007301492185,-0.01811898388
1.69,0.006505187891,-0.01911975253
1.7,0.005638975535,-0.02007315476
1.71,0.004705971777,-0.02097508349
1.72,0.003709518577,-0.0218216382
1.73,0.002653169607,-0.02260913692
1.74,0.001540676035,-0.02333412736
1.75,0.0003759717431,-0.02399339705
1.76,-0.0008368419624,-0.02458398261
1.77,-0.002093512088,-0.02510317799
1.78,-0.003389650072,-0.02554854173
1.79,-0.004720748232,-0.02591790319
1.8,-0.006082196456,-0.02620936782
1.81,-0.007469299104,-0.02642132129
1.82,-0.008877292025,-0.02655243271
1.83,-0.01030135965,-0.02660165672
1.84,-0.01173665207,-0.02656823455
1.85,-0.0131783021,-0.02645169413
1.86,-0.01462144214,-0.02625184914
1.87,-0.01606122096,-0.02596879702
1.88,-0.01749282014,-0.02560291606
1.89,-0.01891147028,-0.02515486153
1.9,-0.02031246684,-0.02462556085
1.91,-0.02169118555,-0.02401620786
1.92,-0.0230430974,-0.02332825622
1.93,-0.02436378309,-0.02256341202
1.94,-0.02564894693,-0.02172362551
1.95,-0.02689443016,-0.02081108211
1.96,-0.02809622361,-0.01982819273
1.97,-0.02925047971,-0.01877758338
1.98,-0.03035352374,-0.01766208415
1.99,-0.03140186436,-0.01648471764
2,-0.03239220343,-0.01524868686
2.01,-0.0333214449,-0.0139573626
2.02,-0.03418670299,-0.01261427049
2.03,-0.03498530949,-0.01122307754
2.04,-0.03571482021,-0.009787578487
2.05,-0.03637302055,-0.00831168183
2.06,-0.03695793022,-0.00679939564
2.07,-0.03746780708,-0.005254813248
2.08,-0.03790115006,-0.003682098823
2.09,-0.03825670128,-0.002085472898
2.1,-0.0385334472,-0.0004691979158
2.11,-0.03873061899,0.001162436169
2.12,-0.03884769199,0.002805126176
2.13,-0.03888438439,0.004454569822
2.14,-0.038840655,0.006106479626
2.15,-0.03871670034,0.007756596559
2.16,-0.03851295085,0.009400703386
2.17,-0.03823006639,0.01103463766
2.18,-0.03786893105,0.01265430433
2.19,-0.0374306472,0.0142556879
2.2,-0.03691652898,0.01583486411
2.21,-0.03632809504,0.0173880112
2.22,-0.0356670608,0.01891142048
2.23,-0.03493533016,0.02040150651
2.24,-0.0341349866,0.02185481652
2.25,-0.03326828393,0.02326803936
2.26,-0.03233763657,0.02463801369
2.27,-0.03134560942,0.0259617356
2.28,-0.03029490747,0.02723636551
2.29,-0.02918836503,0.02845923434
2.3,-0.02802893477,0.02962784913
2.31,-0.02681967654,0.03073989775
2.32,-0.02556374604,0.03179325309
2.33,-0.02426438338,0.03278597641
2.34,-0.02292490154,0.03371632002
2.35,-0.02154867487,0.0345827293
2.36,-0.02013912752,0.03538384393
2.37,-0.01869972203,0.03611849853
2.38,-0.01723394794,0.0367857225
2.39,-0.01574531062,0.03738473934
2.4,-0.01423732018,0.03791496521
2.41,-0.0127134807,0.0383760069
2.42,-0.01117727966,0.03876765919
2.43,-0.009632177681,0.03908990165
2.44,-0.008081598538,0.03934289483
2.45,-0.0065289196,0.03952697596
2.46,-0.004977462585,0.03964265411
2.47,-0.00343048475,0.03969060493
2.48,-0.001891170497,0.03967166485
2.49,-0.0003626234337,0.03958682498
2.5,0.001152141098,0.03943722454
2.51,0.002650203009,0.03922414398
2.52,0.004128743947,0.0389489978
2.53,0.005585053271,0.03861332706
2.54,0.007016533498,0.03821879168
2.55,0.008420705227,0.0377671625
2.56,0.009795211515,0.03726031322
2.57,0.01113782173,0.03670021213
2.58,0.01244643486,0.03608891381
2.59,0.01371908226,0.03542855072
2.6,0.01495392991,0.0347213248
2.61,0.01614928011,0.03396949899
2.62,0.01730357267,0.03317538889
2.63,0.01841538558,0.03234135439
2.64,0.0194834352,0.03146979149
2.65,0.02050657594,0.03056312411
2.66,0.02148379948,0.02962379623
2.67,0.02241423356,0.02865426407
2.68,0.0232971403,0.02765698849
2.69,0.02413191414,0.02663442771
2.7,0.02491807934,0.0255890302
2.71,0.02565528717,0.02452322783
2.72,0.02634331269,0.02343942939
2.73,0.02698205126,0.02234001435
2.74,0.02757151471,0.02122732693
2.75,0.02811182725,0.02010367058
2.76,0.02860322116,0.01897130276
2.77,0.02904603219,0.01783243004
2.78,0.02944069483,0.01668920362
2.79,0.02978773738,0.01554371523
2.8,0.0300877769,0.01439799333
2.81,0.03034151398,0.01325399976
2.82,0.03054972753,0.0121136267
2.83,0.0307132694,0.0109786941
2.84,0.030833059,0.009850947363
2.85,0.03091007792,0.008732055478
2.86,0.03094536455,0.007623609486
2.87,0.03094000872,0.006527121303
2.88,0.0308951464,0.005444022879
2.89,0.03081195448,0.004375665697
2.9,0.03069164562,0.003323320595
2.91,0.03053546328,0.002288177886
2.92,0.0303446768,0.001271347785
2.93,0.03012057666,0.0002738611075
2.94,0.02986446995,-0.0007033297709
2.95,0.0295776759,-0.001659349699
2.96,0.02926152177,-0.002593399315
2.97,0.02891733876,-0.00350475339
2.98,0.02854645826,-0.004392758989
2.99,0.02815020826,-0.005256833446
3,0.02772990998,-0.006096462192
3.01,0.02728687477,-0.006911196443
3.02,0.0268224012,-0.007700650767
3.03,0.02633777242,-0.008464500555
3.04,0.02583425373,-0.009202479415
3.05,0.0253130904,-0.009914376495
3.06,0.02477550571,-0.01060003377
3.07,0.02422269926,-0.01125934331
3.08,0.02365584544,-0.0118922445
3.09,0.0230760922,-0.01249872133
3.1,0.02248455996,-0.01307879968
3.11,0.0218823408,-0.01363254457
3.12,0.02127049776,-0.01416005763
3.13,0.02065006444,-0.01466147446
3.14,0.02002204467,-0.01513696215
3.15,0.01938741243,-0.01558671693
3.16,0.01874711185,-0.01601096182
3.17,0.01810205747,-0.01640994445
3.18,0.01745313446,-0.01678393499
3.19,0.01680119916,-0.01713322419
3.2,0.01614707952,-0.01745812156
3.21,0.01549157583,-0.01775895367
3.22,0.01483546133,-0.01803606261
3.23,0.01417948306,-0.01828980453
3.24,0.01352436265,-0.01852054841
3.25,0.01287079717,-0.01872867487
3.26,0.01221946002,-0.01891457522
3.27,0.01157100183,-0.01907865055
3.28,0.01092605135,-0.019221311
3.29,0.01028521629,-0.01934297517
3.3,0.009649084203,-0.01944406964
3.31,0.009018223298,-0.01952502858
3.32,0.008393183177,-0.01958629349
3.33,0.007774495559,-0.01962831306
3.34,0.007162674917,-0.01965154312
3.35,0.006558219048,-0.01965644663
3.36,0.005961609557,-0.01964349377
3.37,0.005373312259,-0.01961316216
3.38,0.00479377749,-0.01956593699
3.39,0.00422344032,-0.01950231136
3.4,0.003662720667,-0.01942278651
3.41,0.003112023311,-0.01932787215
3.42,0.002571737807,-0.0192180868
3.43,0.002042238294,-0.01909395806
3.44,0.001523883207,-0.01895602296
3.45,0.001017014879,-0.01880482821
3.46,0.0005219590644,-0.01864093045
3.47,3.902435129E-05,-0.01846489645
3.48,-0.0004314985006,-0.01827730325
3.49,-0.0008893373099,-0.01807873823
3.5,-0.001334239297,-0.01786979909
3.51,-0.001765971978,-0.01765109379
3.52,-0.002184324112,-0.01742324037
3.53,-0.002589106709,-0.01718686664
3.54,-0.00298015407,-0.0169426098
3.55,-0.003357324865,-0.01669111599
3.56,-0.003720503229,-0.0164330396
3.57,-0.004069599868,-0.01616904258
3.58,-0.004404553162,-0.01589979358
3.59,-0.00472533026,-0.01562596694
3.6,-0.005031928143,-0.01534824159
3.61,-0.005324374657,-0.01506729979
3.62,-0.005602729486,-0.01478382581
3.63,-0.005867085077,-0.01449850437
3.64,-0.006117567479,-0.01421201909
3.65,-0.006354337107,-0.01392505073
3.66,-0.006577589399,-0.01363827534
3.67,-0.006787555374,-0.01335236233
3.68,-0.006984502067,-0.01306797242
3.69,-0.007168732833,-0.01278575548
3.7,-0.007340587512,-0.01250634836
3.71,-0.007500442453,-0.01223037254
3.72,-0.007648710371,-0.01195843181
3.73,-0.007785840046,-0.01169110986
3.74,-0.007912315848,-0.0114289678
3.75,-0.008028657091,-0.01117254177
3.76,-0.008135417192,-0.01092234036
3.77,-0.008233182661,-0.01067884218
3.78,-0.008322571883,-0.01044249341
3.79,-0.008404233729,-0.0102137053
3.8,-0.008478845955,-0.009992851818
3.81,-0.008547113424,-0.009780267301
3.82,-0.00860976613,-0.00957624419
3.83,-0.008667557039,-0.009381030854
3.84,-0.008721259737,-0.009194829521
3.85,-0.008771665911,-0.009017794324
3.86,-0.008819582647,-0.00885002948
3.87,-0.008865829562,-0.00869158762
3.88,-0.008911235786,-0.008542468281
3.89,-0.008956636783,-0.008402616564
3.9,-0.009002871044,-0.008271921993
3.91,-0.009050776647,-0.008150217562
3.92,-0.009101187706,-0.008037279004
3.93,-0.009154930713,-0.007932824274
3.94,-0.009212820798,-0.007836513269
3.95,-0.009275657917,-0.007747947788
3.96,-0.00934422298,-0.007666671739
3.97,-0.009419273938,-0.007592171607
3.98,-0.009501541857,-0.007523877177
3.99,-0.009591726974,-0.00746116253
4,-0.009690494774,-0.007403347301
4.01,-0.009798472097,-0.007349698219
4.02,-0.009916243298,-0.007299430909
4.03,-0.01004434646,-0.007251711973
4.04,-0.01018326974,-0.007205661339
4.05,-0.01033344776,-0.00716035488
4.06,-0.01049525815,-0.00711482729
4.07,-0.01066901829,-0.007068075224
4.08,-0.01085498213,-0.007019060681
4.09,-0.01105333725,-0.006966714638
4.1,-0.01126420208,-0.006909940903
4.11,-0.0114876234,-0.006847620198
4.12,-0.011723574,-0.006778614448
4.13,-0.01197195066,-0.006701771261
4.14,-0.01223257233,-0.006615928591
4.15,-0.01250517865,-0.006519919564
4.16,-0.01278942871,-0.006412577451
4.17,-0.01308490017,-0.006292740768
4.18,-0.01339108866,-0.006159258486
4.19,-0.0137074075,-0.006010995335
4.2,-0.0140331878,-0.005846837171
4.21,-0.01436767885,-0.005665696396
4.22,-0.01471004889,-0.005466517401
4.23,-0.01505938624,-0.005248282015
4.24,-0.01541470075,-0.005010014933
4.25,-0.01577492565,-0.004750789098
4.26,-0.01613891973,-0.004469731024
4.27,-0.01650546989,-0.004166026027
4.28,-0.01687329401,-0.003838923334
4.29,-0.01724104427,-0.003487741067
4.3,-0.01760731065,-0.003111871057
4.31,-0.01797062491,-0.002710783481
4.32,-0.01832946484,-0.002284031285
4.33,-0.01868225879,-0.001831254382
4.34,-0.01902739055,-0.001352183602
4.35,-0.01936320453,-0.0008466443621
4.36,-0.01968801114,-0.0003145600501
4.37,-0.02000009251,0.0002440449034
4.38,-0.02029770838,0.0008290422852
4.39,-0.02057910226,0.001440197706
4.4,-0.02084250772,0.00207716857
4.41,-0.02108615497,0.002739502422
4.42,-0.02130827744,0.003426635688
4.43,-0.02150711864,0.004137892818
4.44,-0.02168093901,0.004872485842
4.45,-0.02182802289,0.005629514353
4.46,-0.02194668559,0.006407965919
4.47,-0.02203528037,0.00720671693
4.48,-0.02209220555,0.008024533885
4.49,-0.0221159115,0.008860075131
4.5,-0.02210490757,0.009711893031
4.51,-0.02205776903,0.01057843659
4.52,-0.02197314377,0.01145805451
4.53,-0.02184975894,0.01234899868
4.54,-0.02168642738,0.01324942809
4.55,-0.02148205389,0.01415741321
4.56,-0.02123564123,0.01507094068
4.57,-0.02094629593,0.0159879185
4.58,-0.0206132337,0.01690618157
4.59,-0.02023578471,0.01782349753
4.6,-0.0198133984,0.01873757309
4.61,-0.01934564799,0.01964606054
4.62,-0.01883223463,0.02054656472
4.63,-0.01827299114,0.02143665011
4.64,-0.01766788535,0.0223138484
4.65,-0.01701702294,0.02317566607
4.66,-0.01632064998,0.02401959239
4.67,-0.0155791548,0.02484310749
4.68,-0.0147930696,0.02564369061
4.69,-0.01396307139,0.02641882854
4.7,-0.01308998251,0.02716602408
4.71,-0.01217477066,0.02788280465
4.72,-0.01121854837,0.0285667309
4.73,-0.01022257197,0.02921540531
4.74,-0.009188240032,0.02982648088
4.75,-0.008117091282,0.03039766957
4.76,-0.007010802014,0.03092675088
4.77,-0.005871182962,0.03141158014
4.78,-0.004700175668,0.03185009672
4.79,-0.003499848342,0.03224033207
4.8,-0.00227239123,0.03258041753
4.81,-0.001020111492,0.03286859184
4.82,0.0002545723881,0.03310320852
4.83,0.001549136651,0.03328274276
4.84,0.002860958744,0.03340579814
4.85,0.00418732423,0.03347111289
4.86,0.005525434094,0.03347756578
4.87,0.006872412416,0.03342418166
4.88,0.008225314415,0.03331013645
4.89,0.009581134802,0.03313476178
4.9,0.01093681644,0.03289754909
4.91,0.01228925929,0.03259815324
4.92,0.01363532956,0.03223639562
4.93,0.0149718691,0.0318122667
4.94,0.01629570498,0.03132592803
4.95,0.01760365919,0.03077771375
4.96,0.01889255843,0.03016813143
4.97,0.02015924408,0.02949786239
4.98,0.02140058207,0.02876776145
4.99,0.0226134729,0.02797885605
5,0.0237948615,0.0271323448
5.01,0.02494174717,0.02622959545
5.02,0.02605119327,0.02527214228
5.03,0.02712033691,0.02426168287
5.04,0.02814639839,0.02320007436
5.05,0.02912669045,0.02208932909
5.06,0.03005862733,0.02093160971
5.07,0.03093973349,0.01972922376
5.08,0.03176765206,0.0184846177
5.09,0.03254015297,0.01720037048
5.1,0.03325514069,0.01587918657
5.11,0.03391066156,0.01452388856
5.12,0.03450491075,0.01313740932
5.13,0.03503623869,0.01172278371
5.14,0.03550315712,0.01028313996
5.15,0.03590434454,0.008821690622
5.16,0.03623865119,0.00734172324
5.17,0.03650510351,0.005846590705
5.18,0.03670290799,0.004339701331
5.19,0.03683145446,0.002824508715
5.2,0.03689031879,0.001304501382
5.21,0.03687926499,-0.0002168077219
5.22,0.0367982467,-0.001735891872
5.23,0.03664740803,-0.003249221298
5.24,0.03642708383,-0.004753273968
5.25,0.03613779923,-0.006244546392
5.26,0.03578026869,-0.007719564404
5.27,0.03535539427,-0.009174893882
5.28,0.03486426338,-0.01060715138
5.29,0.03430814585,-0.0120130146
5.3,0.03368849043,-0.01338923275
5.31,0.03300692066,-0.01473263662
5.32,0.03226523012,-0.01604014845
5.33,0.0314653772,-0.01730879156
5.34,0.03060947921,-0.01853569957
5.35,0.02969980598,-0.01971812537
5.36,0.028738773,-0.02085344967
5.37,0.02772893398,-0.02193918908
5.38,0.02667297299,-0.02297300391
5.39,0.02557369615,-0.02395270532
5.4,0.02443402286,-0.02487626211
5.41,0.02325697673,-0.0257418069
5.42,0.02204567608,-0.02654764188
5.43,0.02080332415,-0.02729224387
5.44,0.01953319899,-0.0279742689
5.45,0.01823864317,-0.02859255616
5.46,0.01692305316,-0.0291461313
5.47,0.01558986866,-0.02963420918
5.48,0.01424256167,-0.03005619597
5.49,0.01288462551,-0.03041169053
5.5,0.01151956378,-0.03070048525
5.51,0.01015087926,-0.0309225662
5.52,0.008782062864,-0.03107811258
5.53,0.007416582577,-0.03116749564
5.54,0.006057872551,-0.03119127679
5.55,0.004709322281,-0.03115020526
5.56,0.003374265961,-0.03104521496
5.57,0.002055972038,-0.03087742083
5.58,0.0007576330095,-0.03064811455
5.59,-0.0005176445143,-0.03035875964
5.6,-0.001766849431,-0.03001098603
5.61,-0.002987075431,-0.02960658404
5.62,-0.004175529901,-0.02914749782
5.63,-0.005329542428,-0.02863581833
5.64,-0.006446572868,-0.02807377582
5.65,-0.00752421894,-0.02746373178
5.66,-0.008560223349,-0.02680817059
5.67,-0.009552480378,-0.02610969068
5.68,-0.01049904195,-0.02537099534
5.69,-0.01139812314,-0.02459488322
5.7,-0.01224810708,-0.02378423853
5.71,-0.01304754934,-0.02294202092
5.72,-0.0137951816,-0.02207125524
5.73,-0.01448991479,-0.02117502101
5.74,-0.01513084158,-0.02025644177
5.75,-0.01571723818,-0.01931867432
5.76,-0.01624856559,-0.01836489792
5.77,-0.01672447013,-0.01739830336
5.78,-0.01714478335,-0.01642208211
5.79,-0.01750952128,-0.0154394155
5.8,-0.01781888309,-0.01445346394
5.81,-0.01807324907,-0.01346735627
5.82,-0.01827317799,-0.01248417929
5.83,-0.01841940385,-0.01150696748
5.84,-0.01851283205,-0.01053869289
5.85,-0.01855453493,-0.009582255351
5.86,-0.01854574681,-0.00864047297
5.87,-0.01848785842,-0.007716072943
5.88,-0.01838241081,-0.006811682732
5.89,-0.0182310888,-0.005929821644
5.9,-0.01803571389,-0.005072892824
5.91,-0.01779823679,-0.004243175699
5.92,-0.01752072947,-0.003442818894
5.93,-0.01720537681,-0.002673833653
5.94,-0.01685446793,-0.001938087773
5.95,-0.01647038721,-0.001237300085
5.96,-0.0160556049,-0.0005730354909
5.97,-0.01561266759,5.329942283E-05
5.98,-0.01514418841,0.000640460186
5.99,-0.01465283701,0.001187367641
6,-0.01414132943,0.001693110531
