"Freq [GHz]","re(S(Tx_p1,Tx_p1)) []","im(S(Tx_p1,Tx_p1)) []"
1,-0.0426833433,-0.05521874272
1.01,-0.04483264137,-0.05311654499
1.02,-0.04688424113,-0.05092241875
1.03,-0.0488335095,-0.04864110738
1.04,-0.05067608124,-0.04627760949
1.05,-0.05240787205,-0.04383716193
1.06,-0.05402509064,-0.04132522233
1.07,-0.05552424971,-0.03874745109
1.08,-0.05690217597,-0.03610969285
1.09,-0.05815601894,-0.03341795768
1.1,-0.05928325871,-0.03067840183
1.11,-0.06028171261,-0.02789730825
1.12,-0.06114954069,-0.02508106687
1.13,-0.06188525015,-0.02223615473
1.14,-0.06248769853,-0.01936911598
1.15,-0.06295609589,-0.01648654189
1.16,-0.06329000579,-0.01359505082
1.17,-0.06348934518,-0.01070126833
1.18,-0.06355438314,-0.007811807387
1.19,-0.06348573864,-0.004933248771
1.2,-0.06328437707,-0.002072121778
1.21,-0.06295160584,0.0007651148116
1.22,-0.0624890689,0.003572091371
1.23,-0.06189874024,0.006342545652
1.24,-0.06118291648,0.00907034053
1.25,-0.06034420842,0.01174948123
1.26,-0.05938553176,0.01437413197
1.27,-0.05831009694,0.016938632
1.28,-0.05712139809,0.01943751098
1.29,-0.05582320125,0.0218655036
1.3,-0.05441953184,0.02421756353
1.31,-0.0529146614,0.02648887657
1.32,-0.05131309366,0.02867487293
1.33,-0.0496195501,0.03077123871
1.34,-0.04783895483,0.03277392653
1.35,-0.04597641906,0.03467916519
1.36,-0.04403722509,0.03648346846
1.37,-0.04202680993,0.03818364292
1.38,-0.0399507485,0.03977679482
1.39,-0.03781473667,0.04126033599
1.4,-0.03562457398,0.04263198874
1.41,-0.0333861462,0.04388978985
1.42,-0.03110540783,0.04503209343
1.43,-0.02878836447,0.04605757295
1.44,-0.02644105521,0.04696522213
1.45,-0.02406953514,0.04775435497
1.46,-0.02167985781,0.04842460473
1.47,-0.01927805805,0.04897592197
1.48,-0.01687013481,0.04940857163
1.49,-0.01446203442,0.04972312922
1.5,-0.01205963406,0.04992047604
1.51,-0.009668725655,0.0500017936
1.52,-0.007295000167,0.04996855703
1.53,-0.004944032323,0.04982252787
1.54,-0.002621265876,0.04956574585
1.55,-0.0003319993904,0.04920052005
1.56,0.001918627379,0.04872941924
1.57,0.004125646496,0.04815526157
1.58,0.006284274188,0.04748110362
1.59,0.008389922504,0.04671022875
1.6,0.01043821026,0.04584613497
1.61,0.01242497323,0.04489252225
1.62,0.01434627355,0.04385327933
1.63,0.01619840838,0.0427324701
1.64,0.01797791768,0.04153431961
1.65,0.01968159123,0.04026319974
1.66,0.02130647471,0.03892361452
1.67,0.02284987505,0.0375201853
1.68,0.0243093648,0.03605763566
1.69,0.02568278571,0.03454077621
1.7,0.02696825136,0.03297448926
1.71,0.02816414904,0.03136371351
1.72,0.02926914062,0.02971342866
1.73,0.03028216267,0.02802864019
1.74,0.03120242566,0.02631436413
1.75,0.03202941237,0.02457561205
1.76,0.03276287539,0.02281737624
1.77,0.03340283395,0.02104461509
1.78,0.0339495698,0.01926223884
1.79,0.03440362241,0.01747509558
1.8,0.03476578346,0.01568795765
1.81,0.03503709047,0.0139055085
1.82,0.03521881989,0.0121323299
1.83,0.03531247946,0.01037288975
1.84,0.03531979991,0.008631530311
1.85,0.03524272614,0.00691245707
1.86,0.03508340778,0.005219728123
1.87,0.03484418926,0.003557244213
1.88,0.03452759936,0.001928739386
1.89,0.03413634036,0.0003377723047
1.9,0.03367327678,-0.001212281746
1.91,0.03314142368,-0.002718238167
1.92,0.03254393479,-0.004177109628
1.93,0.03188409018,-0.00558611193
1.94,0.03116528388,-0.006942669128
1.95,0.03039101115,-0.008244417903
1.96,0.02956485571,-0.009489211184
1.97,0.02869047683,-0.01067512102
1.98,0.02777159636,-0.01180044068
1.99,0.02681198577,-0.01286368603
2,0.02581545317,-0.01386359611
2.01,0.02478583046,-0.01479913304
2.02,0.02372696054,-0.01566948112
2.03,0.02264268474,-0.01647404526
2.04,0.02153683039,-0.01721244867
2.05,0.02041319865,-0.01788452991
2.06,0.01927555259,-0.01849033919
2.07,0.01812760561,-0.0190301341
2.08,0.01697301023,-0.01950437464
2.09,0.01581534714,-0.01991371772
2.1,0.01465811484,-0.020259011
2.11,0.01350471954,-0.02054128627
2.12,0.01235846569,-0.02076175222
2.13,0.01122254686,-0.02092178679
2.14,0.01010003729,-0.02102292904
2.15,0.008993883854,-0.02106687058
2.16,0.007906898667,-0.02105544663
2.17,0.006841752248,-0.02099062675
2.18,0.005800967292,-0.02087450519
2.19,0.004786913045,-0.02070929103
2.2,0.003801800313,-0.02049729803
2.21,0.002847677104,-0.02024093433
2.22,0.001926424909,-0.01994269191
2.23,0.001039755631,-0.01960513602
2.24,0.0001892091656,-0.01923089441
2.25,-0.0006238483733,-0.01882264664
2.26,-0.001398225776,-0.01838311328
2.27,-0.002132907221,-0.01791504518
2.28,-0.002827052117,-0.0174212128
2.29,-0.003479994322,-0.01690439568
2.3,-0.004091240742,-0.01636737196
2.31,-0.004660469327,-0.01581290815
2.32,-0.005187526476,-0.01524374914
2.33,-0.005672423868,-0.01466260832
2.34,-0.006115334743,-0.01407215812
2.35,-0.006516589646,-0.01347502079
2.36,-0.006876671656,-0.01287375946
2.37,-0.007196211137,-0.01227086972
2.38,-0.007475980011,-0.01166877139
2.39,-0.007716885609,-0.01106980089
2.4,-0.007919964102,-0.01047620391
2.41,-0.008086373561,-0.009890128603
2.42,-0.008217386662,-0.009313619255
2.43,-0.00831438307,-0.008748610428
2.44,-0.008378841546,-0.008196921629
2.45,-0.00841233179,-0.007660252492
2.46,-0.008416506067,-0.007140178505
2.47,-0.008393090647,-0.006638147273
2.48,-0.008343877089,-0.006155475344
2.49,-0.008270713405,-0.005693345576
2.5,-0.008175495148,-0.005252805082
2.51,-0.008060156435,-0.004834763728
2.52,-0.007926660966,-0.004439993185
2.53,-0.007776993058,-0.004069126554
2.54,-0.007613148724,-0.003722658533
2.55,-0.007437126843,-0.003400946132
2.56,-0.007250920447,-0.003104209924
2.57,-0.007056508149,-0.002832535829
2.58,-0.006855845761,-0.002585877398
2.59,-0.006650858109,-0.002364058614
2.6,-0.006443431098,-0.002166777161
2.61,-0.006235404032,-0.001993608162
2.62,-0.006028562235,-0.001844008373
2.63,-0.005824629984,-0.001717320788
2.64,-0.005625263786,-0.001612779657
2.65,-0.005432046015,-0.001529515881
2.66,-0.005246478942,-0.001466562759
2.67,-0.005069979156,-0.001422862072
2.68,-0.004903872415,-0.001397270464
2.69,-0.004749388934,-0.001388566094
2.7,-0.004607659119,-0.001395455546
2.71,-0.004479709769,-0.001416580946
2.72,-0.004366460748,-0.001450527272
2.73,-0.004268722139,-0.001495829817
2.74,-0.004187191895,-0.001550981784
2.75,-0.004122453972,-0.001614441972
2.76,-0.004074976963,-0.001684642531
2.77,-0.004045113238,-0.001759996748
2.78,-0.004033098564,-0.001838906838
2.79,-0.004039052237,-0.001919771706
2.8,-0.004062977688,-0.002000994656
2.81,-0.004104763586,-0.002080991004
2.82,-0.004164185403,-0.002158195585
2.83,-0.004240907453,-0.002231070103
2.84,-0.004334485383,-0.002298110318
2.85,-0.004444369098,-0.002357853027
2.86,-0.004569906124,-0.002408882818
2.87,-0.004710345363,-0.002449838578
2.88,-0.004864841257,-0.002479419717
2.89,-0.005032458311,-0.002496392101
2.9,-0.005212175975,-0.002499593664
2.91,-0.005402893852,-0.002487939676
2.92,-0.005603437218,-0.002460427658
2.93,-0.005812562821,-0.002416141916
2.94,-0.006028964941,-0.002354257689
2.95,-0.006251281685,-0.002274044887
2.96,-0.006478101484,-0.002174871413
2.97,-0.006707969777,-0.002056206054
2.98,-0.00693939584,-0.00191762094
2.99,-0.007170859749,-0.001758793549
3,-0.007400819429,-0.001579508271
3.01,-0.007627717781,-0.001379657505
3.02,-0.00784998984,-0.001159242311
3.03,-0.00806606995,-0.000918372598
3.04,-0.008274398921,-0.000657266855
3.05,-0.008473431133,-0.0003762514348
3.06,-0.008661641579,-7.57593842E-05
3.07,-0.008837532798,0.000243671165
3.08,-0.008999641679,0.0005813990384
3.09,-0.009146546115,0.0009366824859
3.1,-0.009276871478,0.00130868206
3.11,-0.009389296884,0.001696463895
3.12,-0.009482561229,0.002099003368
3.13,-0.009555468981,0.002515189134
3.14,-0.009606895689,0.00294382751
3.15,-0.0096357932,0.003383647193
3.16,-0.009641194567,0.003833304293
3.17,-0.009622218616,0.00429138766
3.18,-0.00957807417,0.004756424484
3.19,-0.009508063906,0.005226886139
3.2,-0.009411587831,0.00570119426
3.21,-0.009288146372,0.006177727012
3.22,-0.009137343054,0.00665482555
3.23,-0.008958886775,0.007130800612
3.24,-0.008752593655,0.007603939249
3.25,-0.008518388465,0.008072511648
3.26,-0.008256305613,0.008534778032
3.27,-0.007966489712,0.008988995593
3.28,-0.007649195699,0.00943342546
3.29,-0.007304788529,0.009866339639
3.3,-0.00693374243,0.01028602793
3.31,-0.00653663973,0.01069080478
3.32,-0.006114169267,0.01107901603
3.33,-0.005667124368,0.01144904558
3.34,-0.005196400437,0.01179932189
3.35,-0.004702992129,0.01212832429
3.36,-0.004187990146,0.01243458919
3.37,-0.003652577657,0.01271671595
3.38,-0.003098026358,0.01297337266
3.39,-0.002525692183,0.01320330152
3.4,-0.001937010697,0.01340532402
3.41,-0.001333492173,0.01357834588
3.42,-0.0007167163764,0.01372136153
3.43,-8.83270895E-05,0.01383345839
3.44,0.0005499736249,0.01391382071
3.45,0.001196431378,0.01396173316
3.46,0.001849245619,0.01397658391
3.47,0.002506575973,0.01395786743
3.48,0.003166548745,0.01390518686
3.49,0.003827263545,0.01381825595
3.5,0.004486800027,0.01369690067
3.51,0.005143224702,0.01354106026
3.52,0.005794597819,0.01335078804
3.53,0.006438980257,0.01312625166
3.54,0.007074440437,0.012867733
3.55,0.007699061202,0.01257562761
3.56,0.008310946655,0.01225044374
3.57,0.008908228917,0.011892801
3.58,0.009489074792,0.01150342853
3.59,0.01005169231,0.01108316286
3.6,0.0105943371,0.01063294531
3.61,0.01111531866,0.01015381899
3.62,0.01161300633,0.009646925556
3.63,0.01208583513,0.009113501442
3.64,0.01253231133,0.008554873869
3.65,0.01295101778,0.007972456469
3.66,0.01334061895,0.007367744618
3.67,0.01369986565,0.006742310468
3.68,0.0140275995,0.006097797709
3.69,0.01432275702,0.005435916071
3.7,0.01458437341,0.004758435593
3.71,0.01481158596,0.004067180687
3.72,0.01500363707,0.003364023994
3.73,0.01515987695,0.002650880096
3.74,0.0152797659,0.001929699058
3.75,0.01536287616,0.001202459874
3.76,0.01540889346,0.0004711637971
3.77,0.01541761804,-0.0002621723858
3.78,0.01538896537,-0.0009955231383
3.79,0.01532296642,-0.001726860972
3.8,0.01521976747,-0.002454163247
3.81,0.01507962961,-0.003175418938
3.82,0.01490292776,-0.003888635351
3.83,0.01469014935,-0.004591844767
3.84,0.01444189252,-0.005283110977
3.85,0.01415886403,-0.005960535696
3.86,0.01384187675,-0.006622264833
3.87,0.01349184674,-0.007266494584
3.88,0.01310979005,-0.007891477336
3.89,0.01269681916,-0.008495527366
3.9,0.01225413902,-0.009077026294
3.91,0.0117830429,-0.009634428293
3.92,0.0112849078,-0.01016626503
3.93,0.01076118973,-0.01067115032
3.94,0.01021341857,-0.01114778446
3.95,0.009643192861,-0.01159495829
3.96,0.009052174213,-0.01201155686
3.97,0.008442081619,-0.01239656281
3.98,0.007814685542,-0.01274905937
3.99,0.007171801856,-0.013068233
4,0.006515285658,-0.01335337565
4.01,0.005847024955,-0.01360388665
4.02,0.005168934276,-0.01381927425
4.03,0.00448294821,-0.01399915668
4.04,0.003791014906,-0.01414326295
4.05,0.003095089557,-0.0142514331
4.06,0.002397127886,-0.01432361823
4.07,0.001699079671,-0.01435988003
4.08,0.001002882311,-0.01436038993
4.09,0.0003104544774,-0.01432542792
4.1,-0.0003763101368,-0.01425538097
4.11,-0.001055548948,-0.01415074108
4.12,-0.001725436471,-0.01401210295
4.13,-0.002384190136,-0.01384016137
4.14,-0.003030075936,-0.01363570821
4.15,-0.003661413851,-0.01339962912
4.16,-0.004276583067,-0.01313289989
4.17,-0.004874026942,-0.01283658255
4.18,-0.005452257719,-0.01251182119
4.19,-0.006009860968,-0.01215983746
4.2,-0.006545499735,-0.01178192592
4.21,-0.007057918395,-0.0113794491
4.22,-0.007545946186,-0.01095383234
4.23,-0.008008500421,-0.01050655853
4.24,-0.008444589366,-0.01003916256
4.25,-0.008853314774,-0.009553225742
4.26,-0.009233874068,-0.009050370054
4.27,-0.009585562165,-0.008532252265
4.28,-0.009907772949,-0.008000558027
4.29,-0.01020000037,-0.007456995877
4.3,-0.01046183918,-0.006903291227
4.31,-0.01069298532,-0.006341180319
4.32,-0.01089323589,-0.005772404216
4.33,-0.01106248885,-0.005198702802
4.34,-0.01120074227,-0.004621808856
4.35,-0.01130809324,-0.00404344219
4.36,-0.01138473654,-0.003465303889
4.37,-0.01143096279,-0.002889070668
4.38,-0.01144715646,-0.002316389371
4.39,-0.01143379339,-0.00174887162
4.4,-0.01139143812,-0.001188088646
4.41,-0.01132074089,-0.0006355663145
4.42,-0.01122243433,-9.278036068E-05
4.43,-0.01109732991,0.0004388481493
4.44,-0.01094631414,0.0009579571108
4.45,-0.01077034449,0.001463247418
4.46,-0.01057044516,0.001953486733
4.47,-0.01034770261,0.002427512965
4.48,-0.01010326086,0.002884237468
4.49,-0.009838316733,0.003322647927
4.5,-0.009554114855,0.003741810936
4.51,-0.009251942579,0.004140874255
4.52,-0.008933124793,0.00451906875
4.53,-0.008599018639,0.004875709995
4.54,-0.008251008178,0.005210199548
4.55,-0.007890499001,0.005522025889
4.56,-0.00751891283,0.005810765023
4.57,-0.007137682106,0.006076080755
4.58,-0.006748244605,0.00631772462
4.59,-0.006352038093,0.006535535497
4.6,-0.005950495035,0.006729438886
4.61,-0.005545037391,0.006899445873
4.62,-0.005137071507,0.007045651779
4.63,-0.004727983126,0.007168234506
4.64,-0.004319132536,0.007267452583
4.65,-0.003911849867,0.007343642933
4.66,-0.003507430563,0.007397218358
4.67,-0.003107131041,0.007428664767
4.68,-0.002712164548,0.007438538157
4.69,-0.002323697236,0.00742746135
4.7,-0.001942844469,0.007396120517
4.71,-0.001570667367,0.007345261499
4.72,-0.001208169608,0.007275685931
4.73,-0.000856294485,0.007188247204
4.74,-0.0005159222489,0.007083846265
4.75,-0.0001878677183,0.006963427291
4.76,0.000127121816,0.006827973232
4.77,0.0004283683951,0.006678501267
4.78,0.0007152649,0.006516058172
4.79,0.0009872762581,0.006341715631
4.8,0.001243940347,0.006156565507
4.81,0.001484868597,0.005961715083
4.82,0.001709746286,0.005758282305
4.83,0.00191833254,0.005547391042
4.84,0.002110460031,0.005330166379
4.85,0.002286034378,0.005107729957
4.86,0.002445033266,0.004881195395
4.87,0.002587505274,0.004651663791
4.88,0.002713568433,0.00442021934
4.89,0.002823408514,0.00418792506
4.9,0.002917277058,0.003955818676
4.91,0.002995489161,0.00372490864
4.92,0.003058421017,0.003496170337
4.93,0.003106507244,0.003270542458
4.94,0.003140237995,0.003048923586
4.95,0.003160155868,0.002832168979
4.96,0.003166852641,0.002621087573
4.97,0.003160965832,0.002416439224
4.98,0.003143175111,0.002218932183
4.99,0.00311419857,0.002029220814
5,0.003074788885,0.001847903581
5.01,0.003025729357,0.00167552128
5.02,0.002967829887,0.001512555548
5.03,0.002901922867,0.001359427637
5.04,0.002828859032,0.001216497462
5.05,0.002749503271,0.001084062924
5.06,0.002664730425,0.0009623595039
5.07,0.002575421095,0.0008515601354
5.08,0.002482457455,0.0007517753464
5.09,0.002386719115,0.000663053672
5.1,0.002289079037,0.0005853823316
5.11,0.002190399512,0.0005186881674
5.12,0.002091528235,0.0004628388365
5.13,0.00199329448,0.0004176442512
5.14,0.001896505391,0.0003828582578
5.15,0.001801942406,0.0003581805463
5.16,0.001710357832,0.000343258781
5.17,0.001622471575,0.0003376909401
5.18,0.001538968047,0.0003410278543
5.19,0.001460493258,0.0003527759319
5.2,0.001387652096,0.0003724000567
5.21,0.001321005826,0.0003993266457
5.22,0.00126106979,0.000432946853
5.23,0.001208311341,0.0004726199041
5.24,0.001163147999,0.0005176765468
5.25,0.001125945852,0.0005674226023
5.26,0.00109701819,0.0006211426011
5.27,0.001076624389,0.0006781034877
5.28,0.001064969048,0.0007375583783
5.29,0.00106220137,0.0007987503533
5.3,0.001068414799,0.0008609162716
5.31,0.001083646908,0.0009232905868
5.32,0.001107879542,0.0009851091512
5.33,0.001141039203,0.001045612991
5.34,0.001182997686,0.001104052035
5.35,0.001233572955,0.001159688787
5.36,0.001292530258,0.001211801918
5.37,0.001359583467,0.001259689765
5.38,0.001434396651,0.001302673738
5.39,0.00151658585,0.001340101591
5.4,0.001605721076,0.001371350569
5.41,0.001701328489,0.001395830414
5.42,0.001802892782,0.001412986203
5.43,0.001909859723,0.001422301026
5.44,0.002021638877,0.001423298484
5.45,0.002137606469,0.00141554499
5.46,0.002257108389,0.001398651885
5.47,0.00237946333,0.001372277337
5.48,0.002503966027,0.001336128033
5.49,0.002629890601,0.001289960648
5.5,0.00275649398,0.001233583092
5.51,0.002883019399,0.001166855527
5.52,0.00300869994,0.00108969115
5.53,0.003132762119,0.001002056743
5.54,0.003254429491,0.0009039729857
5.55,0.003372926266,0.0007955145331
5.56,0.003487480912,0.0006768098528
5.57,0.003597329742,0.0005480408317
5.58,0.003701720453,0.0004094421487
5.59,0.003799915624,0.0002613004182
5.6,0.003891196135,0.0001039531099
5.61,0.003974864511,-6.221275086E-05
5.62,0.004050248171,-0.0002367620965
5.63,0.004116702564,-0.0004192135358
5.64,0.004173614185,-0.0006090412712
5.65,0.004220403463,-0.000805677206
5.66,0.004256527491,-0.001008513232
5.67,0.004281482616,-0.001216903686
5.68,0.004294806846,-0.001430167969
5.69,0.004296082092,-0.00164759331
5.7,0.004284936221,-0.00186843767
5.71,0.004261044914,-0.002091932767
5.72,0.004224133328,-0.002317287213
5.73,0.004173977548,-0.002543689751
5.74,0.004110405829,-0.002770312574
5.75,0.004033299616,-0.002996314715
5.76,0.003942594353,-0.003220845496
5.77,0.00383828006,-0.003443048014
5.78,0.003720401688,-0.003662062661
5.79,0.003589059252,-0.003877030653
5.8,0.00344440773,-0.004087097556
5.81,0.003286656743,-0.004291416807
5.82,0.003116070012,-0.00448915319
5.83,0.002932964588,-0.00467948628
5.84,0.002737709874,-0.004861613826
5.85,0.002530726424,-0.005034755061
5.86,0.002312484549,-0.005198153925
5.87,0.002083502706,-0.005351082203
5.88,0.001844345705,-0.005492842533
5.89,0.001595622721,-0.005622771315
5.9,0.001337985136,-0.005740241469
5.91,0.001072124206,-0.005844665058
5.92,0.0007987685691,-0.005935495756
5.93,0.0005186816067,-0.006012231152
5.94,0.0002326586661,-0.00607441488
5.95,-5.847584491E-05,-0.006121638572
5.96,-0.0003538714775,-0.006153543621
5.97,-0.0006526548647,-0.006169822751
5.98,-0.0009539329336,-0.006170221386
5.99,-0.001256796195,-0.006154538816
6,-0.0015603221,-0.006122629151
