"Freq [GHz]","re(S(Tx_p1,Tx_p1)) []","im(S(Tx_p1,Tx_p1)) []"
1,-0.01836548779,-0.03558133817
1.01,-0.01948022618,-0.03417100136
1.02,-0.02051770733,-0.03272468877
1.03,-0.02147630657,-0.031246439
1.04,-0.022354637,-0.02974038764
1.05,-0.02315155442,-0.02821075174
1.06,-0.02386616128,-0.02666181406
1.07,-0.02449780962,-0.02509790728
1.08,-0.0250461031,-0.02352339818
1.09,-0.02551089799,-0.02194267183
1.1,-0.02589230327,-0.02036011581
1.11,-0.02619067975,-0.01878010468
1.12,-0.02640663823,-0.01720698449
1.13,-0.02654103683,-0.0156450576
1.14,-0.02659497733,-0.01409856779
1.15,-0.02656980073,-0.01257168564
1.16,-0.02646708185,-0.01106849431
1.17,-0.02628862326,-0.009592975775
1.18,-0.02603644827,-0.008148997451
1.19,-0.02571279331,-0.006740299407
1.2,-0.02532009945,-0.005370482057
1.21,-0.02486100334,-0.004042994464
1.22,-0.02433832746,-0.002761123256
1.23,-0.02375506976,-0.001527982191
1.24,-0.02311439277,-0.000346502402
1.25,-0.02241961214,0.0007805766494
1.26,-0.02167418476,0.001850715483
1.27,-0.02088169642,0.002861582159
1.28,-0.02004584906,0.003811059052
1.29,-0.01917044774,0.004697248844
1.3,-0.01825938731,0.005518479698
1.31,-0.01731663882,0.006273309615
1.32,-0.01634623573,0.006960529971
1.33,-0.01535226006,0.007579168209
1.34,-0.01433882833,0.0081284897
1.35,-0.0133100776,0.008607998768
1.36,-0.01227015137,0.009017438881
1.37,-0.01122318568,0.009356792006
1.38,-0.0101732952,0.009626277161
1.39,-0.009124559566,0.009826348133
1.4,-0.008081009844,0.009957690428
1.41,-0.007046615281,0.01002121742
1.42,-0.006025270337,0.01001806575
1.43,-0.005020782038,0.009949589981
1.44,-0.004036857716,0.00981735655
1.45,-0.003077093151,0.009623137005
1.46,-0.002144961177,0.009368900603
1.47,-0.001243800761,0.009056806265
1.48,-0.0003768066123,0.008689193933
1.49,0.0004529806538,0.008268575357
1.5,0.001242683774,0.007797624356
1.51,0.001989597478,0.007279166578
1.52,0.002691196495,0.006716168805
1.53,0.003345142897,0.006111727845
1.54,0.003949292764,0.00546905904
1.55,0.004501702144,0.004791484443
1.56,0.005000632298,0.004082420705
1.57,0.005444554223,0.003345366702
1.58,0.00583215242,0.002583890969
1.59,0.006162327927,0.00180161896
1.6,0.006434200587,0.001002220199
1.61,0.006647110565,0.0001893953529
1.62,0.006800619102,-0.000633136725
1.63,0.006894508513,-0.001461651934
1.64,0.006928781438,-0.002292433808
1.65,0.006903659335,-0.003121786295
1.66,0.006819580254,-0.003946046391
1.67,0.006677195872,-0.00476159659
1.68,0.006477367824,-0.005564877099
1.69,0.006221163345,-0.006352397797
1.7,0.005909850225,-0.007120749872
1.71,0.005544891123,-0.007866617124
1.72,0.00512793724,-0.008586786886
1.73,0.004660821393,-0.009278160523
1.74,0.004145550499,-0.009937763487
1.75,0.003584297522,-0.01056275489
1.76,0.002979392884,-0.01115043656
1.77,0.0023333154,-0.01169826159
1.78,0.001648682749,-0.01220384224
1.79,0.0009282415234,-0.01266495736
1.8,0.0001748569012,-0.01307955915
1.81,-0.0006084980403,-0.01344577922
1.82,-0.001418753315,-0.01376193417
1.83,-0.002252753291,-0.01402653033
1.84,-0.003107268189,-0.01423826791
1.85,-0.003979005766,-0.01439604449
1.86,-0.004864623161,-0.01449895776
1.87,-0.005760738837,-0.01454630754
1.88,-0.006663944606,-0.0145375972
1.89,-0.007570817672,-0.01447253422
1.9,-0.008477932668,-0.01435103022
1.91,-0.009381873634,-0.01417320013
1.92,-0.0102792459,-0.01393936073
1.93,-0.01116668786,-0.01365002855
1.94,-0.0120408825,-0.01330591702
1.95,-0.01289856881,-0.01290793295
1.96,-0.01373655289,-0.01245717244
1.97,-0.01455171874,-0.01195491608
1.98,-0.01534103882,-0.01140262355
1.99,-0.01610158414,-0.01080192768
2,-0.01683053406,-0.01015462784
2.01,-0.01752518559,-0.009462682898
2.02,-0.01818296228,-0.008728203574
2.03,-0.01880142261,-0.007953444343
2.04,-0.01937826787,-0.007140794865
2.05,-0.01991134955,-0.006292770988
2.06,-0.02039867607,-0.005412005358
2.07,-0.02083841906,-0.00450123766
2.08,-0.02122891892,-0.003563304538
2.09,-0.02156868987,-0.002601129211
2.1,-0.02185642429,-0.001617710855
2.11,-0.02209099646,-0.0006161137445
2.12,-0.02227146562,0.0004005437641
2.13,-0.0223970784,0.001429100402
2.14,-0.02246727056,0.002466363249
2.15,-0.02248166804,0.003509119063
2.16,-0.02244008736,0.004554145618
2.17,-0.02234253537,0.005598223037
2.18,-0.02218920826,0.006638145057
2.19,-0.02198048999,0.007670730194
2.2,-0.02171694999,0.008692832779
2.21,-0.02139934025,0.009701353812
2.22,-0.02102859178,0.0106932516
2.23,-0.02060581045,0.01166555217
2.24,-0.02013227218,0.01261535934
2.25,-0.01960941762,0.01353986453
2.26,-0.01903884621,0.01443635618
2.27,-0.01842230973,0.0153022288
2.28,-0.01776170529,0.01613499157
2.29,-0.01705906792,0.01693227655
2.3,-0.01631656257,0.01769184636
2.31,-0.01553647579,0.01841160135
2.32,-0.01472120697,0.0190895863
2.33,-0.01387325917,0.01972399655
2.34,-0.01299522969,0.0203131835
2.35,-0.01208980027,0.02085565959
2.36,-0.01115972709,0.02135010268
2.37,-0.01020783049,0.02179535975
2.38,-0.009236984532,0.02219044999
2.39,-0.008250106402,0.02253456731
2.4,-0.007250145706,0.02282708211
2.41,-0.006240073688,0.02306754244
2.42,-0.005222872417,0.02325567452
2.43,-0.004201523989,0.02339138256
2.44,-0.003178999766,0.02347474796
2.45,-0.002158249712,0.02350602787
2.46,-0.001142191846,0.02348565302
2.47,-0.0001337018702,0.02341422505
2.48,0.0008643970085,0.0232925131
2.49,0.001849344009,0.02312144986
2.5,0.002818450432,0.02290212701
2.51,0.003769109002,0.02263579005
2.52,0.004698802867,0.02232383262
2.53,0.005605114208,0.0219677903
2.54,0.006485732444,0.02156933384
2.55,0.007338461999,0.02113026196
2.56,0.008161229581,0.02065249369
2.57,0.008952090987,0.02013806028
2.58,0.009709237366,0.0195890967
2.59,0.01043100095,0.01900783283
2.6,0.0111158602,0.01839658429
2.61,0.0117624444,0.01775774296
2.62,0.01236953762,0.01709376733
2.63,0.01293608208,0.01640717254
2.64,0.01346118085,0.01570052033
2.65,0.01394409999,0.01497640877
2.66,0.01438426998,0.014237462
2.67,0.01478128648,0.01348631978
2.68,0.01513491056,0.01272562716
2.69,0.01544506811,0.01195802409
2.7,0.01571184877,0.01118613511
2.71,0.01593550408,0.01041255917
2.72,0.01611644508,0.009639859613
2.73,0.01625523926,0.008870554249
2.74,0.01635260692,0.008107105772
2.75,0.01640941687,0.007351912366
2.76,0.01642668163,0.006607298635
2.77,0.01640555204,0.005875506864
2.78,0.01634731131,0.005158688649
2.79,0.01625336863,0.00445889693
2.8,0.0161252522,0.003778078458
2.81,0.01596460186,0.003118066728
2.82,0.01577316132,0.002480575402
2.83,0.01555276992,0.001867192246
2.84,0.0153053541,0.001279373622
2.85,0.0150329185,0.0007184395263
2.86,0.01473753679,0.0001855692253
2.87,0.01442134225,-0.0003182025139
2.88,0.01408651811,-0.000791988576
2.89,0.01373528778,-0.001235052022
2.9,0.01336990486,-0.001646807974
2.91,0.01299264315,-0.002026824856
2.92,0.01260578652,-0.002374824986
2.93,0.01221161885,-0.00269068451
2.94,0.01181241396,-0.002974432691
2.95,0.01141042559,-0.003226250544
2.96,0.01100787761,-0.003446468831
2.97,0.01060695422,-0.003635565425
2.98,0.0102097905,-0.003794162042
2.99,0.009818463102,-0.003923020376
3,0.009434981279,-0.00402303763
3.01,0.009061278175,-0.00409524148
3.02,0.008699202506,-0.004140784488
3.03,0.008350510619,-0.004160937975
3.04,0.008016858961,-0.004157085406
3.05,0.007699797009,-0.00413071529
3.06,0.007400760679,-0.004083413633
3.07,0.007121066248,-0.00401685599
3.08,0.006861904806,-0.003932799121
3.09,0.00662433728,-0.003833072318
3.1,0.006409290026,-0.003719568418
3.11,0.006217551034,-0.003594234543
3.12,0.006049766742,-0.003459062621
3.13,0.005906439489,-0.003316079713
3.14,0.005787925604,-0.00316733819
3.15,0.005694434153,-0.003014905812
3.16,0.005626026344,-0.00286085574
3.17,0.005582615582,-0.002707256529
3.18,0.005563968204,-0.002556162151
3.19,0.005569704858,-0.002409602077
3.2,0.005599302539,-0.002269571478
3.21,0.005652097278,-0.002138021571
3.22,0.005727287456,-0.002016850171
3.23,0.005823937741,-0.001907892471
3.24,0.00594098364,-0.001812912103
3.25,0.006077236619,-0.001733592518
3.26,0.006231389804,-0.001671528717
3.27,0.006402024212,-0.00162821938
3.28,0.006587615501,-0.001605059414
3.29,0.006786541198,-0.001603332966
3.3,0.006997088392,-0.001624206932
3.31,0.00721746184,-0.001668724978
3.32,0.007445792457,-0.001737802119
3.33,0.007680146169,-0.00183221986
3.34,0.007918533059,-0.001952621948
3.35,0.0081589168,-0.002099510724
3.36,0.008399224311,-0.002273244121
3.37,0.008637355605,-0.002474033303
3.38,0.008871193777,-0.002701940962
3.39,0.0090986151,-0.002956880292
3.4,0.009317499178,-0.003238614627
3.41,0.009525739104,-0.003546757766
3.42,0.009721251596,-0.00388077497
3.43,0.009901987048,-0.004239984635
3.44,0.01006593946,-0.004623560638
3.45,0.01021115621,-0.005030535338
3.46,0.0103357476,-0.00545980323
3.47,0.01043789617,-0.005910125235
3.48,0.01051586569,-0.006380133597
3.49,0.01056800985,-0.006868337393
3.5,0.01059278054,-0.007373128601
3.51,0.01058873575,-0.007892788726
3.52,0.01055454701,-0.008425495947
3.53,0.01048900631,-0.008969332747
3.54,0.01039103258,-0.009522294008
3.55,0.01025967755,-0.01008229553
3.56,0.01009413111,-0.01064718291
3.57,0.009893725967,-0.01121474085
3.58,0.009657941823,-0.01178270263
3.59,0.009386408782,-0.01234876
3.6,0.009078910177,-0.01291057322
3.61,0.008735384693,-0.01346578124
3.62,0.008355927822,-0.01401201211
3.63,0.007940792611,-0.01454689341
3.64,0.007490389732,-0.01506806274
3.65,0.007005286834,-0.01557317823
3.66,0.006486207209,-0.01605992894
3.67,0.005934027762,-0.01652604523
3.68,0.005349776287,-0.01696930896
3.69,0.004734628077,-0.01738756347
3.7,0.004089901858,-0.01777872339
3.71,0.003417055089,-0.01814078412
3.72,0.002717678622,-0.01847183101
3.73,0.001993490761,-0.01877004814
3.74,0.001246330744,-0.01903372681
3.75,0.0004781516577,-0.01926127344
3.76,-0.0003089871558,-0.01945121707
3.77,-0.001112928195,-0.01960221637
3.78,-0.001931424347,-0.01971306606
3.79,-0.002762147859,-0.01978270278
3.8,-0.003602699683,-0.01981021033
3.81,-0.004450619176,-0.01979482432
3.82,-0.005303394081,-0.01973593614
3.83,-0.006158470775,-0.0196330963
3.84,-0.007013264722,-0.01948601703
3.85,-0.007865171091,-0.01929457427
3.86,-0.008711575491,-0.01905880881
3.87,-0.009549864772,-0.01877892688
3.88,-0.01037743786,-0.01845529992
3.89,-0.01119171653,-0.01808846363
3.9,-0.01199015616,-0.01767911636
3.91,-0.01277025634,-0.01722811675
3.92,-0.01352957126,-0.01673648065
3.93,-0.01426571995,-0.01620537743
3.94,-0.01497639624,-0.0156361255
3.95,-0.01565937842,-0.01503018728
3.96,-0.01631253847,-0.01438916349
3.97,-0.01693385104,-0.01371478682
3.98,-0.01752140187,-0.01300891502
3.99,-0.01807339579,-0.01227352349
4,-0.01858816424,-0.01151069726
4.01,-0.01906417217,-0.01072262258
4.02,-0.01950002446,-0.009911577967
4.03,-0.01989447165,-0.009079924921
4.04,-0.02024641509,-0.008230098236
4.05,-0.02055491145,-0.007364595985
4.06,-0.02081917649,-0.006485969236
4.07,-0.0210385882,-0.005596811524
4.08,-0.02121268923,-0.004699748141
4.09,-0.02134118853,-0.003797425277
4.1,-0.02142396238,-0.002892499079
4.11,-0.02146105456,-0.00198762466
4.12,-0.0214526759,-0.001085445116
4.13,-0.021399203,-0.0001885806001
4.14,-0.02130117632,0.0007003825004
4.15,-0.02115929746,0.001578902232
4.16,-0.0209744258,0.002444491543
4.17,-0.02074757438,0.003294728499
4.18,-0.02047990521,0.004127266208
4.19,-0.0201727238,0.004939842399
4.2,-0.01982747314,0.005730288623
4.21,-0.01944572708,0.006496539025
4.22,-0.0190291831,0.007236638652
4.23,-0.01857965454,0.007948751253
4.24,-0.01809906237,0.008631166548
4.25,-0.01758942645,0.009282306919
4.26,-0.01705285635,0.0099007335
4.27,-0.01649154185,0.01048515164
4.28,-0.01590774301,0.01103441569
4.29,-0.01530377999,0.01154753317
4.3,-0.01468202265,0.01202366814
4.31,-0.01404487984,0.01246214396
4.32,-0.01339478864,0.01286244528
4.33,-0.01273420347,0.01322421928
4.34,-0.01206558505,0.01354727619
4.35,-0.01139138951,0.01383158908
4.36,-0.01071405739,0.01407729288
4.37,-0.01003600287,0.01428468267
4.38,-0.009359603036,0.01445421128
4.39,-0.008687187369,0.01458648609
4.4,-0.008021027526,0.01468226521
4.41,-0.007363327343,0.01474245293
4.42,-0.006716213206,0.01476809451
4.43,-0.006081724794,0.01476037032
4.44,-0.005461806243,0.01472058938
4.45,-0.004858297772,0.01465018235
4.46,-0.004272927817,0.01455069388
4.47,-0.003707305694,0.01442377449
4.48,-0.00316291484,0.01427117202
4.49,-0.002641106659,0.01409472259
4.5,-0.002143094994,0.01389634109
4.51,-0.001669951267,0.01367801151
4.52,-0.001222600291,0.01344177675
4.53,-0.0008018167904,0.0131897283
4.54,-0.0004082226338,0.0129239957
4.55,-4.228480077E-05,0.01264673575
4.56,0.0002956859126,0.0123601217
4.57,0.0006055354406,0.01206633235
4.58,0.0008872662451,0.0117675411
4.59,0.001141036364,0.01146590509
4.6,0.001367157713,0.0111635544
4.61,0.001566093654,0.01086258142
4.62,0.001738455829,0.01056503036
4.63,0.001885000291,0.01027288706
4.64,0.002006622933,0.009988069051
4.65,0.002104354249,0.009712415965
4.66,0.002179353437,0.009447680319
4.67,0.002232901893,0.009195518731
4.68,0.002266396095,0.008957483602
4.69,0.002281339947,0.008735015297
4.7,0.002279336582,0.008529434875
4.71,0.002262079689,0.008341937401
4.72,0.002231344391,0.008173585858
4.73,0.002188977721,0.008025305712
4.74,0.002136888736,0.00789788013
4.75,0.002077038324,0.007791945901
4.76,0.002011428739,0.007707990061
4.77,0.001942092927,0.00764634724
4.78,0.001871083677,0.007607197763
4.79,0.001800462666,0.007590566491
4.8,0.001732289436,0.007596322422
4.81,0.001668610354,0.00762417906
4.82,0.001611447622,0.007673695536
4.83,0.001562788371,0.00774427849
4.84,0.0015245739,0.007835184703
4.85,0.001498689111,0.007945524466
4.86,0.001486952188,0.008074265676
4.87,0.001491104569,0.008220238636
4.88,0.001512801257,0.008382141541
4.89,0.00155360152,0.008558546627
4.9,0.001614960028,0.008747906958
4.91,0.001698218455,0.008948563803
4.92,0.001804597604,0.009158754605
4.93,0.001935190082,0.009376621465
4.94,0.002090953564,0.009600220135
4.95,0.002272704681,0.009827529463
4.96,0.002481113558,0.01005646125
4.97,0.002716699035,0.01028487048
4.98,0.002979824583,0.01051056586
4.99,0.00327069496,0.01073132065
5,0.003589353593,0.01094488371
5.01,0.003935680727,0.0111489907
5.02,0.004309392338,0.01134137544
5.03,0.004710039822,0.01151978131
5.04,0.005137010459,0.01168197268
5.05,0.005589528663,0.01182574631
5.06,0.006066657999,0.0119489426
5.07,0.006567303973,0.01204945684
5.08,0.007090217582,0.01212525008
5.09,0.007633999602,0.01217435993
5.1,0.008197105608,0.01219491095
5.11,0.008777851696,0.01218512474
5.12,0.009374420894,0.01214332965
5.13,0.009984870217,0.01206797003
5.14,0.01060713836,0.01195761502
5.15,0.01123905396,0.01181096681
5.16,0.01187834447,0.01162686833
5.17,0.01252264544,0.01140431038
5.18,0.01316951041,0.01114243807
5.19,0.01381642116,0.01084055669
5.2,0.01446079834,0.01049813675
5.21,0.01510001245,0.01011481845
5.22,0.0157313952,0.009690415347
5.23,0.01635225094,0.009224917224
5.24,0.01695986847,0.008718492269
5.25,0.01755153285,0.008171488418
5.26,0.01812453739,0.007584433919
5.27,0.01867619561,0.006958037102
5.28,0.0192038532,0.006293185344
5.29,0.01970489998,0.005590943247
5.3,0.0201767816,0.004852550014
5.31,0.02061701117,0.004079416055
5.32,0.02102318065,0.003273118818
5.33,0.02139297188,0.002435397873
5.34,0.02172416741,0.001568149257
5.35,0.0220146608,0.0006734191195
5.36,0.02226246667,-0.000246603322
5.37,0.0224657301,-0.001189593478
5.38,0.02262273565,-0.002153099705
5.39,0.02273191581,-0.003134552208
5.4,0.02279185877,-0.004131272495
5.41,0.02280131567,-0.005140483337
5.42,0.02275920715,-0.006159319202
5.43,0.02266462921,-0.007184837102
5.44,0.02251685833,-0.00821402782
5.45,0.02231535593,-0.009243827471
5.46,0.02205977197,-0.01027112933
5.47,0.02174994787,-0.01129279591
5.48,0.02138591855,-0.01230567119
5.49,0.02096791377,-0.01330659296
5.5,0.02049635855,-0.01429240531
5.51,0.01997187288,-0.01525997104
5.52,0.01939527058,-0.01620618409
5.53,0.01876755733,-0.01712798188
5.54,0.01808992795,-0.0180223575
5.55,0.01736376289,-0.01888637169
5.56,0.01659062387,-0.01971716461
5.57,0.01577224889,-0.02051196729
5.58,0.01491054641,-0.02126811277
5.59,0.01400758884,-0.02198304678
5.6,0.01306560539,-0.02265433808
5.61,0.01208697423,-0.02327968821
5.62,0.01107421403,-0.02385694085
5.63,0.01002997491,-0.02438409047
5.64,0.008957028921,-0.02485929054
5.65,0.007858259887,-0.02528086097
5.66,0.006736652904,-0.02564729497
5.67,0.005595283363,-0.0259572652
5.68,0.004437305615,-0.0262096292
5.69,0.003265941309,-0.02640343405
5.7,0.002084467457,-0.02653792036
5.71,0.0008962042771,-0.0266125254
5.72,-0.0002954971427,-0.02662688547
5.73,-0.0014872673,-0.02658083748
5.74,-0.002675730802,-0.02647441975
5.75,-0.003857518912,-0.02630787198
5.76,-0.005029282058,-0.02608163443
5.77,-0.006187702252,-0.02579634626
5.78,-0.007329505383,-0.02545284321
5.79,-0.008451473305,-0.02505215433
5.8,-0.009550455703,-0.02459549809
5.81,-0.01062338166,-0.02408427767
5.82,-0.01166727091,-0.02352007553
5.83,-0.01267924466,-0.02290464737
5.84,-0.01365653606,-0.02223991526
5.85,-0.01459650019,-0.0215279603
5.86,-0.01549662344,-0.02077101452
5.87,-0.01635453254,-0.01997145233
5.88,-0.01716800284,-0.01913178137
5.89,-0.01793496602,-0.01825463283
5.9,-0.01865351727,-0.01734275141
5.91,-0.01932192165,-0.01639898481
5.92,-0.01993861982,-0.01542627282
5.93,-0.02050223311,-0.01442763616
5.94,-0.0210115678,-0.01340616498
5.95,-0.02146561863,-0.01236500723
5.96,-0.02186357166,-0.0113073567
5.97,-0.02220480624,-0.01023644108
5.98,-0.02248889631,-0.009155509885
5.99,-0.02271561089,-0.008067822323
6,-0.02288491378,-0.006976635231
