"Freq [GHz]","re(S(Tx_p1,Tx_p1)) []","im(S(Tx_p1,Tx_p1)) []"
1,-0.04375828028,-0.01637849415
1.01,-0.04432579456,-0.01408649013
1.02,-0.04477242145,-0.01177298565
1.03,-0.04509714657,-0.009444684844
1.04,-0.04529935573,-0.0071083417
1.05,-0.04537883639,-0.004770735112
1.06,-0.04533577756,-0.002438643943
1.07,-0.04517076821,-0.0001188222685
1.08,-0.04488479413,0.002182025138
1.09,-0.04447923331,0.004457266983
1.1,-0.0439558499,0.006700369206
1.11,-0.04331678671,0.008904918222
1.12,-0.04256455632,0.01106464358
1.13,-0.04170203087,0.01317343992
1.14,-0.04073243056,0.01522538823
1.15,-0.03965931088,0.01721477626
1.16,-0.03848654871,0.01913611797
1.17,-0.03721832721,0.02098417216
1.18,-0.03585911975,0.02275395994
1.19,-0.03441367279,0.02444078121
1.2,-0.03288698787,0.02604022992
1.21,-0.03128430273,0.02754820825
1.22,-0.02961107168,0.02896093943
1.23,-0.02787294531,0.0302749794
1.24,-0.02607574953,0.03148722711
1.25,-0.02422546417,0.0325949335
1.26,-0.02232820108,0.03359570905
1.27,-0.02039018191,0.03448753013
1.28,-0.01841771564,0.0352687437
1.29,-0.01641717586,0.03593807087
1.3,-0.01439497809,0.03649460884
1.31,-0.01235755697,0.03693783158
1.32,-0.0103113436,0.03726758904
1.33,-0.00826274307,0.03748410501
1.34,-0.006218112166,0.03758797361
1.35,-0.004183737486,0.03758015443
1.36,-0.002165813943,0.03746196638
1.37,-0.0001704237618,0.03723508024
1.38,0.001796483948,0.03690150998
1.39,0.00372911297,0.03646360287
1.4,0.005621839054,0.03592402844
1.41,0.007469228196,0.03528576639
1.42,0.009266054083,0.03455209336
1.43,0.01100731462,0.03372656876
1.44,0.01268824753,0.03281301971
1.45,0.01430434486,0.03181552506
1.46,0.01585136654,0.03073839862
1.47,0.01732535277,0.02958617172
1.48,0.01872263523,0.02836357504
1.49,0.02003984725,0.02707551992
1.5,0.02127393259,0.02572707916
1.51,0.02242215318,0.02432346736
1.52,0.02348209547,0.02287002097
1.53,0.02445167561,0.02137217801
1.54,0.02532914329,0.01983545766
1.55,0.02611308441,0.01826543969
1.56,0.02680242232,0.01666774393
1.57,0.02739641798,0.0150480097
1.58,0.02789466871,0.01341187546
1.59,0.02829710581,0.01176495858
1.6,0.02860399087,0.01011283549
1.61,0.02881591095,0.008461022058
1.62,0.0289337726,0.006814954525
1.63,0.0289587947,0.005179970841
1.64,0.02889250023,0.00356129261
1.65,0.02873670701,0.001964007645
1.66,0.02849351742,0.0003930532142
1.67,0.02816530715,-0.001146799962
1.68,0.02775471308,-0.002650962921
1.69,0.02726462026,-0.004115042812
1.7,0.02669814816,-0.005534856353
1.71,0.02605863615,-0.006906442351
1.72,0.02534962833,-0.008226073228
1.73,0.02457485777,-0.009490265552
1.74,0.02373823019,-0.0106957895
1.75,0.02284380721,-0.01183967728
1.76,0.02189578916,-0.0129192304
1.77,0.02089849763,-0.01393202591
1.78,0.01985635771,-0.01487592147
1.79,0.01877388009,-0.01574905926
1.8,0.01765564301,-0.01654986882
1.81,0.01650627421,-0.01727706871
1.82,0.01533043292,-0.01792966708
1.83,0.01413279189,-0.01850696107
1.84,0.01291801971,-0.01900853515
1.85,0.01169076322,-0.01943425834
1.86,0.01045563036,-0.01978428045
1.87,0.009217173319,-0.02005902714
1.88,0.007979872143,-0.0202591941
1.89,0.006748118829,-0.02038574023
1.9,0.00552620197,-0.02043987984
1.91,0.004318292008,-0.02042307402
1.92,0.003128427139,-0.0203370211
1.93,0.001960499926,-0.0201836464
1.94,0.000818244664,-0.01996509112
1.95,-0.0002947744693,-0.01968370063
1.96,-0.001375174429,-0.01934201206
1.97,-0.002419763455,-0.0189427413
1.98,-0.003425550334,-0.01848876955
1.99,-0.004389752736,-0.0179831293
2,-0.005309804609,-0.01742898995
2.01,-0.006183362616,-0.01682964313
2.02,-0.007008311592,-0.01618848769
2.03,-0.007782769017,-0.01550901444
2.04,-0.008505088496,-0.01479479087
2.05,-0.009173862246,-0.01404944561
2.06,-0.009787922591,-0.013276653
2.07,-0.01034634247,-0.01248011764
2.08,-0.01084843497,-0.01166355905
2.09,-0.01129375188,-0.01083069648
2.1,-0.01168208137,-0.009985233991
2.11,-0.01201344462,-0.009130845723
2.12,-0.01228809167,-0.008271161595
2.13,-0.01250649635,-0.007409753339
2.14,-0.01266935039,-0.00655012099
2.15,-0.01277755666,-0.005695679872
2.16,-0.01283222176,-0.004849748116
2.17,-0.01283464778,-0.004015534771
2.18,-0.01278632344,-0.003196128532
2.19,-0.01268891457,-0.002394487136
2.2,-0.01254425398,-0.001613427458
2.21,-0.01235433084,-0.0008556163339
2.22,-0.01212127952,-0.00012356215
2.23,-0.01184736801,0.0005803927869
2.24,-0.01153498599,0.001254079071
2.25,-0.01118663251,0.001895506193
2.26,-0.01080490343,0.002502867697
2.27,-0.01039247865,0.00307454549
2.28,-0.009952109176,0.003609113283
2.29,-0.009486604055,0.004105339189
2.3,-0.008998817286,0.004562187442
2.31,-0.008491634736,0.004978819273
2.32,-0.007967961108,0.005354592927
2.33,-0.007430707036,0.005689062847
2.34,-0.006882776337,0.005981978032
2.35,-0.006327053493,0.006233279587
2.36,-0.005766391402,0.00644309749
2.37,-0.005203599447,0.006611746589
2.38,-0.004641431929,0.006739721874
2.39,-0.004082576914,0.006827693038
2.4,-0.003529645536,0.00687649836
2.41,-0.002985161781,0.006887137956
2.42,-0.002451552817,0.006860766429
2.43,-0.001931139872,0.006798684945
2.44,-0.001426129724,0.006702332804
2.45,-0.000938606806,0.006573278519
2.46,-0.0004705259659,0.006413210464
2.47,-2.370590253E-05,0.006223927143
2.48,0.0004001767069,0.006007327101
2.49,0.0007995923672,0.005765398558
2.5,0.001173163201,0.005500208786
2.51,0.001519666654,0.005213893296
2.52,0.001838038451,0.00490864488
2.53,0.00212737482,0.004586702551
2.54,0.002386933958,0.004250340437
2.55,0.002616136767,0.003901856682
2.56,0.002814566843,0.003543562385
2.57,0.002981969749,0.00317777065
2.58,0.003118251563,0.00280678577
2.59,0.003223476739,0.002432892602
2.6,0.003297865273,0.002058346185
2.61,0.003341789219,0.001685361618
2.62,0.003355768564,0.001316104274
2.63,0.003340466489,0.0009526803545
2.64,0.003296684055,0.0005971278508
2.65,0.003225354327,0.000251407926
2.66,0.003127535981,-8.260323676E-05
2.67,0.003004406435,-0.0004031220953
2.68,0.002857254512,-0.000708464888
2.69,0.00268747271,-0.0009970542284
2.7,0.002496549087,-0.001267425131
2.71,0.002286058821,-0.001518230446
2.72,0.002057655474,-0.001748245693
2.73,0.001813062012,-0.001956373272
2.74,0.001554061615,-0.002141646038
2.75,0.001282488329,-0.002303230243
2.76,0.001000217594,-0.002440427827
2.77,0.0007091567005,-0.002552678061
2.78,0.0004112352099,-0.002639558542
2.79,0.0001083953896,-0.002700785537
2.8,-0.0001974173006,-0.002736213695
2.81,-0.0005042636272,-0.002745835119
2.82,-0.0008102198634,-0.002729777823
2.83,-0.001113386895,-0.002688303573
2.84,-0.001411899111,-0.002621805153
2.85,-0.00170393304,-0.002530803039
2.86,-0.0019877157,-0.002415941538
2.87,-0.002261532623,-0.002277984391
2.88,-0.002523735531,-0.002117809874
2.89,-0.002772749616,-0.001936405425
2.9,-0.003007080411,-0.001734861828
2.91,-0.003225320223,-0.001514366972
2.92,-0.003426154095,-0.001276199237
2.93,-0.003608365285,-0.001021720525
2.94,-0.003770840237,-0.0007523689793
2.95,-0.003912573026,-0.000469651418
2.96,-0.004032669267,-0.0001751355359
2.97,-0.004130349477,0.0001295581064
2.98,-0.004204951867,0.0004427642563
2.99,-0.004255934577,0.0007627812731
3,-0.004282877337,0.00108787952
3.01,-0.004285482547,0.001416309809
3.02,-0.004263575796,0.001746311857
3.03,-0.004217105806,0.00207612272
3.04,-0.004146143808,0.002403985158
3.05,-0.004050882376,0.002728155908
3.06,-0.003931633698,0.003046913818
3.07,-0.003788827331,0.003358567804
3.08,-0.003623007434,0.003661464616
3.09,-0.003434829492,0.003953996351
3.1,-0.003225056579,0.004234607706
3.11,-0.002994555143,0.004501802928
3.12,-0.002744290365,0.00475415244
3.13,-0.002475321107,0.004990299107
3.14,-0.00218879447,0.005208964128
3.15,-0.001885939999,0.005408952524
3.16,-0.001568063561,0.005589158202
3.17,-0.001236540918,0.005748568582
3.18,-0.000892811045,0.005886268758
3.19,-0.000538369203,0.006001445194
3.2,-0.0001747598186,0.006093388929
3.21,0.0001964308084,0.006161498294
3.22,0.0005735819288,0.006205281114
3.23,0.0009550458691,0.006224356418
3.24,0.00133915562,0.006218455621
3.25,0.001724232457,0.006187423207
3.26,0.002108593557,0.006131216896
3.27,0.002490559578,0.006049907299
3.28,0.00286846217,0.005943677083
3.29,0.003240651377,0.005812819634
3.3,0.003605502915,0.005657737237
3.31,0.00396142527,0.005478938793
3.32,0.004306866614,0.005277037069
3.33,0.004640321482,0.005052745517
3.34,0.004960337213,0.004806874662
3.35,0.005265520092,0.004540328092
3.36,0.005554541208,0.004254098066
3.37,0.005826141973,0.003949260756
3.38,0.006079139296,0.003626971164
3.39,0.006312430389,0.003288457719
3.4,0.00652499719,0.002935016596
3.41,0.006715910374,0.002568005774
3.42,0.00688433296,0.002188838872
3.43,0.007029523482,0.001798978777
3.44,0.007150838718,0.001399931113
3.45,0.007247735981,0.0009932375615
3.46,0.007319774947,0.0005804690749
3.47,0.00736661903,0.0001632190155
3.48,0.007388036301,-0.0002569037577
3.49,0.007383899936,-0.0006782818181
3.5,0.007354188216,-0.001099296087
3.51,0.00729898407,-0.001518332707
3.52,0.007218474169,-0.001933789841
3.53,0.00711294758,-0.00234408437
3.54,0.00698279399,-0.002747658462
3.55,0.00682850151,-0.003142985985
3.56,0.006650654073,-0.003528578728
3.57,0.006449928442,-0.003902992423
3.58,0.006227090842,-0.004264832525
3.59,0.005982993235,-0.004612759744
3.6,0.005718569259,-0.004945495287
3.61,0.005434829847,-0.005261825811
3.62,0.005132858554,-0.005560608056
3.63,0.004813806607,-0.00584077314
3.64,0.004478887716,-0.006101330509
3.65,0.004129372646,-0.006341371517
3.66,0.003766583604,-0.006560072634
3.67,0.003391888447,-0.006756698268
3.68,0.003006694745,-0.006930603187
3.69,0.002612443726,-0.007081234539
3.7,0.002210604127,-0.007208133472
3.71,0.001802665982,-0.007310936338
3.72,0.001390134373,-0.007389375479
3.73,0.0009745231692,-0.007443279616
3.74,0.0005573487861,-0.007472573817
3.75,0.0001401239838,-0.007477279065
3.76,-0.000275648261,-0.007457511424
3.77,-0.0006884807894,-0.007413480816
3.78,-0.001096908174,-0.007345489411
3.79,-0.001499492489,-0.007253929648
3.8,-0.001894828909,-0.007139281893
3.81,-0.002281551125,-0.00700211175
3.82,-0.002658336536,-0.006843067046
3.83,-0.003023911226,-0.006662874488
3.84,-0.003377054677,-0.006462336034
3.85,-0.003716604214,-0.006242324978
3.86,-0.004041459179,-0.006003781774
3.87,-0.004350584785,-0.005747709624
3.88,-0.004643015677,-0.005475169843
3.89,-0.004917859153,-0.005187277033
3.9,-0.005174298057,-0.004885194075
3.91,-0.005411593326,-0.004570126981
3.92,-0.005629086188,-0.004243319606
3.93,-0.005826199996,-0.00390604827
3.94,-0.006002441708,-0.003559616291
3.95,-0.006157402998,-0.003205348469
3.96,-0.006290761008,-0.002844585531
3.97,-0.006402278728,-0.002478678582
3.98,-0.006491805023,-0.002108983559
3.99,-0.006559274297,-0.001736855736
4,-0.006604705803,-0.001363644286
4.01,-0.006628202617,-0.0009906869295
4.02,-0.00662995026,-0.0006193046958
4.03,-0.006610215006,-0.0002507968053
4.04,-0.006569341865,0.0001135642935
4.05,-0.006507752264,0.00047253772
4.06,-0.006425941436,0.0008249187705
4.07,-0.006324475534,0.001169543323
4.08,-0.006203988483,0.001505292018
4.09,-0.006065178582,0.001831094209
4.1,-0.00590880489,0.002145931655
4.11,-0.005735683389,0.002448841956
4.12,-0.005546682971,0.002738921709
4.13,-0.005342721236,0.003015329381
4.14,-0.005124760159,0.003277287893
4.15,-0.004893801609,0.003524086888
4.16,-0.00465088277,0.003755084711
4.17,-0.004397071465,0.003969710061
4.18,-0.004133461415,0.004167463335
4.19,-0.003861167452,0.004347917653
4.2,-0.003581320706,0.004510719569
4.21,-0.003295063782,0.004655589455
4.22,-0.003003545963,0.004782321582
4.23,-0.002707918436,0.004890783884
4.24,-0.002409329587,0.004980917418
4.25,-0.002108920361,0.005052735522
4.26,-0.001807819722,0.005106322682
4.27,-0.001507140229,0.005141833119
4.28,-0.001207973731,0.005159489093
4.29,-0.0009113872204,0.005159578955
4.3,-0.0006184188452,0.005142454939
4.31,-0.0003300740973,0.005108530718
4.32,-4.73221958E-05,0.005058278739
4.33,0.0002289073262,0.004992227342
4.34,0.0004977278173,0.004910957687
4.35,0.0007582984753,0.004815100501
4.36,0.001009827078,0.004705332661
4.37,0.001251572465,0.004582373635
4.38,0.001482846771,0.004446981787
4.39,0.001703017394,0.00429995058
4.4,0.001911508702,0.004142104681
4.41,0.002107803468,0.00397429599
4.42,0.002291444039,0.003797399615
4.43,0.002462033225,0.003612309811
4.44,0.002619234927,0.003419935892
4.45,0.002762774479,0.003221198147
4.46,0.002892438734,0.003017023772
4.47,0.003008075875,0.002808342825
4.48,0.003109594974,0.00259608425
4.49,0.003196965282,0.002381171947
4.5,0.003270215289,0.00216452094
4.51,0.003329431523,0.001947033637
4.52,0.00337475713,0.001729596206
4.53,0.003406390227,0.001513075077
4.54,0.003424582043,0.001298313586
4.55,0.003429634855,0.001086128775
4.56,0.003421899741,0.0008773083516
4.57,0.003401774152,0.0006726078336
4.58,0.00336969932,0.0004727478733
4.59,0.00332615752,0.0002784117811
4.6,0.003271669192,9.024325167E-05
4.61,0.003206789945,-9.115569886E-05
4.62,0.003132107455,-0.0002652265791
4.63,0.003048238272,-0.0004314560466
4.64,0.002955824548,-0.0005893773067
4.65,0.002855530714,-0.0007385712825
4.66,0.002748040102,-0.0008786675549
4.67,0.002634051548,-0.001009345071
4.68,0.002514275978,-0.001130332622
4.69,0.002389432994,-0.00124140909
4.7,0.002260247482,-0.001342403475
4.71,0.00212744625,-0.001433194681
4.72,0.001991754712,-0.001513711103
4.73,0.001853893634,-0.001583929987
4.74,0.001714575958,-0.00164387658
4.75,0.001574503702,-0.001693623085
4.76,0.001434364977,-0.001733287422
4.77,0.0012948311,-0.001763031795
4.78,0.001156553842,-0.001783061089
4.79,0.0010201628,-0.001793621102
4.8,0.0008862629229,-0.001794996616
4.81,0.0007554321796,-0.001787509324
4.82,0.0006282193953,-0.001771515623
4.83,0.0005051422523,-0.001747404289
4.84,0.0003866854662,-0.001715594034
4.85,0.0002732991426,-0.001676530974
4.86,0.0001653973184,-0.001630686008
4.87,6.335669202E-05,-0.001578552129
4.88,-3.248445423E-05,-0.001520641673
4.89,-0.0001218271385,-0.001457483526
4.9,-0.0002044123684,-0.0013896203
4.91,-0.0002800216345,-0.001317605488
4.92,-0.0003484772098,-0.001242000619
4.93,-0.0004096422553,-0.001163372413
4.94,-0.0004634207348,-0.001082289965
4.95,-0.0005097571428,-0.0009993219557
4.96,-0.0005486360471,-0.0009150339125
4.97,-0.0005800814538,-0.0008299855233
4.98,-0.0006041559977,-0.0007447280223
4.99,-0.0006209599656,-0.0006598016526
5,-0.000630630159,-0.0005757332204
5.01,-0.0006333386036,-0.0004930337484
5.02,-0.0006292911135,-0.0004121962371
5.03,-0.0006187257191,-0.0003336935458
5.04,-0.0006019109673,-0.0002579763972
5.05,-0.0005791441041,-0.0001854715161
5.06,-0.0005507491488,-0.0001165799079
5.07,-0.0005170748709,-5.16752816E-05
5.08,-0.0004784926793,8.897375676E-06
5.09,-0.0004353944362,6.4823069E-05
5.1,-0.0003881902045,0.0001158179075
5.11,-0.0003373059421,0.0001616300543
5.12,-0.0002831811527,0.0002020405123
5.13,-0.0002262665059,0.0002368637454
5.14,-0.0001670214359,0.0002659481329
5.15,-0.0001059117325,0.0002891762591
5.16,-4.340713308E-05,0.0003064650369
5.17,2.00210713E-05,0.0003177656694
5.18,8.390240663E-05,0.0003230634499
5.19,0.000147769552,0.0003223774035
5.2,0.000211160631,0.0003157597757
5.21,0.0002736214487,0.0003032953698
5.22,0.000334707665,0.0002851007406
5.23,0.0003939868937,0.0002613232474
5.24,0.0004510407216,0.0002321399748
5.25,0.0005054666358,0.0001977565259
5.26,0.0005568798551,0.0001584056967
5.27,0.0006049150554,0.0001143460375
5.28,0.0006492279845,6.586031095E-05
5.29,0.0006894969596,1.325385371E-05
5.3,0.0007254242422,-4.314714894E-05
5.31,0.0007567372854,-0.0001029974668
5.32,0.0007831898496,-0.0001659346976
5.33,0.0008045629842,-0.0002315812
5.34,0.0008206658701,-0.0002995460765
5.35,0.000831336523,-0.0003694271974
5.36,0.0008364423553,-0.000440813256
5.37,0.0008358805949,-0.0005132858451
5.38,0.0008295785621,-0.0005864215456
5.39,0.0008174938038,-0.0006597940166
5.4,0.0007996140864,-0.0007329760797
5.41,0.0007759572498,-0.0008055417852
5.42,0.000746570923,-0.000877068454
5.43,0.0007115321061,-0.0009471386844
5.44,0.0006709466209,-0.001015342315
5.45,0.0006249484344,-0.00108127834
5.46,0.0005736988591,-0.001144556756
5.47,0.0005173856362,-0.001204800354
5.48,0.0004562219059,-0.001261646429
5.49,0.0003904450713,-0.001314748405
5.5,0.0003203155617,-0.001363777387
5.51,0.0002461155026,-0.001408423602
5.52,0.0001681472986,-0.001448397752
5.53,8.6732136E-05,-0.001483432261
5.54,2.208414619E-06,-0.001513282412
5.55,-8.50698861E-05,-0.001537727374
5.56,-0.0001747348969,-0.00155657111
5.57,-0.000266406597,-0.00156964317
5.58,-0.0003596945931,-0.001576799363
5.59,-0.0004541999303,-0.001577922304
5.6,-0.0005495169263,-0.001572921841
5.61,-0.0006452350221,-0.001561735356
5.62,-0.0007409406389,-0.001544327941
5.63,-0.0008362190351,-0.001520692453
5.64,-0.0009306561533,-0.001490849444
5.65,-0.001023840451,-0.00145484697
5.66,-0.001115364705,-0.001412760286
5.67,-0.001204827788,-0.001364691414
5.68,-0.001291836397,-0.001310768608
5.69,-0.001376006744,-0.001251145702
5.7,-0.001456966188,-0.001186001359
5.71,-0.001534354806,-0.001115538209
5.72,-0.001607826903,-0.001039981897
5.73,-0.001677052441,-0.0009595800379
5.74,-0.001741718401,-0.0008746010793
5.75,-0.001801530054,-0.0007853330918
5.76,-0.001856212148,-0.0006920824776
5.77,-0.001905510002,-0.0005951726136
5.78,-0.001949190511,-0.0004949424312
5.79,-0.00198704304,-0.0003917449403
5.8,-0.002018880229,-0.000285945705
5.81,-0.002044538687,-0.000177921277
5.82,-0.002063879585,-6.805759406E-05
5.83,-0.002076789132,4.325164903E-05
5.84,-0.002083178961,0.0001556066505
5.85,-0.002082986382,0.0002686031651
5.86,-0.002076174552,0.000381834174
5.87,-0.002062732513,0.0004948915539
5.88,-0.00204267514,0.0006073677391
5.89,-0.002016042974,0.0007188573686
5.9,-0.001982901951,0.0008289589123
5.91,-0.001943343035,0.0009372762692
5.92,-0.001897481737,0.001043420332
5.93,-0.001845457557,0.001147010512
5.94,-0.001787433312,0.001247676216
5.95,-0.00172359439,0.001345058272
5.96,-0.001654147909,0.001438810301
5.97,-0.001579321797,0.001528600022
5.98,-0.001499363792,0.001614110493
5.99,-0.001414540379,0.001695041279
6,-0.001325135645,0.001771109544
