"Freq [GHz]","re(S(Tx_p1,Tx_p1)) []","im(S(Tx_p1,Tx_p1)) []"
1,-0.02598671641,-0.01097701307
1.01,-0.02610151625,-0.009413232317
1.02,-0.02612881709,-0.007858977883
1.03,-0.02606955919,-0.006319283232
1.04,-0.0259249963,-0.004799111227
1.05,-0.02569668948,-0.003303333661
1.06,-0.02538649964,-0.001836711367
1.07,-0.02499657882,-0.0004038749735
1.08,-0.0245293603,0.0009906936183
1.09,-0.0239875475,0.002342678961
1.1,-0.02337410187,0.003647948932
1.11,-0.02269222968,0.00490257068
1.12,-0.02194536794,0.006102825593
1.13,-0.02113716937,0.007245223228
1.14,-0.02027148659,0.008326514165
1.15,-0.01935235556,0.009343701723
1.16,-0.0183839784,0.01029405252
1.17,-0.01737070559,0.01117510584
1.18,-0.0163170177,0.01198468175
1.19,-0.01522750674,0.01272088798
1.2,-0.01410685712,0.01338212556
1.21,-0.01295982644,0.01396709314
1.22,-0.01179122607,0.01447479004
1.23,-0.01060590171,0.01490451805
1.24,-0.009408713917,0.0152558819
1.25,-0.008204518779,0.01552878848
1.26,-0.006998148722,0.01572344482
1.27,-0.00579439361,0.01584035485
1.28,-0.004597982174,0.01588031491
1.29,-0.003413563854,0.01584440816
1.3,-0.002245691126,0.01573399776
1.31,-0.001098802402,0.01555071902
1.32,2.279446449E-05,0.01529647051
1.33,0.001114937965,0.01497340411
1.34,0.002173627981,0.01458391413
1.35,0.003195040027,0.01413062559
1.36,0.004175538622,0.01361638157
1.37,0.005111689765,0.01304422989
1.38,0.006000272461,0.01241740899
1.39,0.006838289251,0.01173933323
1.4,0.00762297573,0.01101357764
1.41,0.008351809003,0.01024386206
1.42,0.009022515071,0.009434035004
1.43,0.009633075124,0.008588057051
1.44,0.01018173072,0.007709984027
1.45,0.01066698785,0.006803949951
1.46,0.01108761987,0.005874149862
1.47,0.01144266933,0.004924822589
1.48,0.01173144867,0.003960233541
1.49,0.01195353981,0.002984657586
1.5,0.01210879265,0.002002362093
1.51,0.01219732253,0.001017590205
1.52,0.01221950658,3.454441222E-05
1.53,0.0121759791,-0.0009426295064
1.54,0.01206762595,-0.00190985812
1.55,0.01189557794,-0.002863155486
1.56,0.01166120341,-0.00379863775
1.57,0.01136609982,-0.004712537142
1.58,0.01101208462,-0.005601215317
1.59,0.01060118529,-0.006461176003
1.6,0.01013562869,-0.007289076898
1.61,0.009617829749,-0.008081740791
1.62,0.009050379509,-0.008836165855
1.63,0.008436032678,-0.009549535097
1.64,0.007777694654,-0.01021922492
1.65,0.007078408141,-0.01084281279
1.66,0.006341339393,-0.01141808398
1.67,0.005569764167,-0.01194303737
1.68,0.004767053438,-0.01241589029
1.69,0.003936658935,-0.01283508248
1.7,0.003082098578,-0.01319927895
1.71,0.002206941864,-0.01350737206
1.72,0.001314795272,-0.01375848251
1.73,0.0004092877463,-0.01395195949
1.74,-0.0005059436824,-0.01408737985
1.75,-0.001427268079,-0.01416454638
1.76,-0.002351074529,-0.01418348526
1.77,-0.003273785765,-0.01414444256
1.78,-0.004191871418,-0.01404787998
1.79,-0.005101860872,-0.01389446979
1.8,-0.00600035565,-0.01368508901
1.81,-0.006884041308,-0.01342081282
1.82,-0.007749698777,-0.01310290738
1.83,-0.008594215128,-0.01273282191
1.84,-0.009414593716,-0.01231218027
1.85,-0.01020796368,-0.01184277193
1.86,-0.01097158876,-0.01132654244
1.87,-0.01170287543,-0.01076558354
1.88,-0.01239938028,-0.01016212274
1.89,-0.01305881666,-0.009518512652
1.9,-0.01367906064,-0.008837220004
1.91,-0.01425815607,-0.008120814391
1.92,-0.01479431901,-0.007371956861
1.93,-0.0152859413,-0.006593388356
1.94,-0.01573159341,-0.005787918072
1.95,-0.01613002642,-0.004958411784
1.96,-0.01648017341,-0.004107780193
1.97,-0.01678114995,-0.003238967332
1.98,-0.01703225389,-0.002354939103
1.99,-0.0172329645,-0.001458671956
2,-0.01738294081,-0.0005531417955
2.01,-0.01748201935,0.0003586868796
2.02,-0.01753021119,0.001273871535
2.03,-0.01752769841,0.002189501835
2.04,-0.01747482989,0.00310270951
2.05,-0.01737211665,0.004010677824
2.06,-0.01722022658,0.004910650613
2.07,-0.0170199787,0.005799940859
2.08,-0.01677233697,0.00667593879
2.09,-0.01647840371,0.007536119459
2.1,-0.01613941258,0.00837804981
2.11,-0.01575672129,0.009199395183
2.12,-0.01533180397,0.00999792528
2.13,-0.01486624333,0.01077151954
2.14,-0.01436172253,0.01151817197
2.15,-0.01382001697,0.01223599534
2.16,-0.01324298591,0.01292322486
2.17,-0.01263256397,0.01357822121
2.18,-0.0119907526,0.01419947304
2.19,-0.01131961159,0.01478559888
2.2,-0.01062125055,0.01533534844
2.21,-0.009897820452,0.01584760344
2.22,-0.009151505293,0.01632137786
2.23,-0.008384513911,0.01675581762
2.24,-0.007599071928,0.01715019982
2.25,-0.006797413916,0.01750393148
2.26,-0.005981775781,0.01781654779
2.27,-0.005154387405,0.01808770993
2.28,-0.004317465561,0.01831720252
2.29,-0.003473207136,0.01850493058
2.3,-0.002623782667,0.01865091624
2.31,-0.001771330225,0.01875529505
2.32,-0.0009179496448,0.01881831199
2.33,-6.569713736E-05,0.01884031725
2.34,0.000783419733,0.0188217617
2.35,0.001627446673,0.01876319222
2.36,0.002464486892,0.0186652468
2.37,0.003292704936,0.01852864949
2.38,0.004110330121,0.01835420527
2.39,0.004915659561,0.01814279478
2.4,0.005707060803,0.01789536902
2.41,0.006482974072,0.01761294402
2.42,0.007241914118,0.01729659548
2.43,0.0079824717,0.01694745348
2.44,0.008703314689,0.01656669718
2.45,0.009403188827,0.01615554963
2.46,0.01008091814,0.01571527268
2.47,0.01073540502,0.01524716199
2.48,0.01136563001,0.01475254221
2.49,0.0119706513,0.01423276226
2.5,0.01254960391,0.01368919082
2.51,0.01310169867,0.01312321206
2.52,0.01362622098,0.01253622147
2.53,0.01412252925,0.01192962194
2.54,0.01459005332,0.01130482015
2.55,0.01502829255,0.01066322304
2.56,0.01543681385,0.01000623465
2.57,0.01581524961,0.009335253111
2.58,0.01616329545,0.008651667944
2.59,0.01648070794,0.007956857551
2.6,0.01676730224,0.007252186982
2.61,0.01702294976,0.006539005927
2.62,0.01724757569,0.005818646942
2.63,0.01744115666,0.005092423912
2.64,0.01760371831,0.004361630725
2.65,0.017735333,0.003627540162
2.66,0.01783611747,0.002891402988
2.67,0.01790623064,0.002154447231
2.68,0.01794587149,0.001417877643
2.69,0.017955277,0.0006828753149
2.7,0.01793472021,-4.940254952E-05
2.71,0.01788450843,-0.0007778227302
2.72,0.01780498155,-0.001501275969
2.73,0.01769651043,-0.002218676842
2.74,0.01755949553,-0.002928963554
2.75,0.01739436564,-0.00363109765
2.76,0.01720157667,-0.004324063688
2.77,0.01698161072,-0.005006868864
2.78,0.01673497521,-0.005678542628
2.79,0.01646220215,-0.006338136282
2.8,0.01616384759,-0.006984722605
2.81,0.01584049115,-0.007617395492
2.82,0.01549273572,-0.008235269642
2.83,0.01512120726,-0.008837480297
2.84,0.01472655466,-0.009423183049
2.85,0.01430944982,-0.009991553724
2.86,0.01387058765,-0.01054178836
2.87,0.01341068631,-0.01107310329
2.88,0.0129304874,-0.0115847353
2.89,0.01243075622,-0.01207594196
2.9,0.01191228213,-0.01254600202
2.91,0.01137587883,-0.01299421593
2.92,0.0108223847,-0.01341990659
2.93,0.01025266317,-0.01382242005
2.94,0.009667602952,-0.01420112651
2.95,0.009068118362,-0.01455542136
2.96,0.008455149476,-0.01488472634
2.97,0.007829662283,-0.01518849091
2.98,0.007192648732,-0.01546619357
2.99,0.006545126676,-0.01571734351
3,0.005888139709,-0.01594148215
3.01,0.005222756879,-0.01613818492
3.02,0.004550072257,-0.01630706305
3.03,0.003871204368,-0.01644776544
3.04,0.003187295454,-0.01655998061
3.05,0.002499510572,-0.01664343867
3.06,0.001809036527,-0.01669791335
3.07,0.001117080607,-0.01672322397
3.08,0.0004248691449,-0.01671923753
3.09,-0.000266354117,-0.01668587064
3.1,-0.0009553298531,-0.01662309155
3.11,-0.001640785176,-0.01653092202
3.12,-0.002321435851,-0.01640943917
3.13,-0.002995988701,-0.01625877724
3.14,-0.003663144203,-0.01607912926
3.15,-0.004321599267,-0.01587074852
3.16,-0.004970050187,-0.01563395001
3.17,-0.005607195769,-0.01536911162
3.18,-0.006231740612,-0.0150766752
3.19,-0.006842398543,-0.01475714742
3.2,-0.007437896185,-0.01441110045
3.21,-0.008016976651,-0.01403917236
3.22,-0.008578403344,-0.01364206739
3.23,-0.009120963854,-0.01322055588
3.24,-0.009643473928,-0.01277547399
3.25,-0.01014478149,-0.01230772314
3.26,-0.01062377074,-0.01181826924
3.27,-0.01107936618,-0.0113081415
3.28,-0.01151053677,-0.01077843113
3.29,-0.01191629994,-0.01023028964
3.3,-0.01229572566,-0.009664926827
3.31,-0.01264794033,-0.009083608605
3.32,-0.01297213072,-0.008487654389
3.33,-0.01326754768,-0.007878434295
3.34,-0.0135335098,-0.007257366017
3.35,-0.01376940687,-0.006625911428
3.36,-0.01397470319,-0.005985572923
3.37,-0.01414894067,-0.005337889491
3.38,-0.01429174172,-0.004684432542
3.39,-0.01440281191,-0.004026801501
3.4,-0.01448194239,-0.003366619174
3.41,-0.01452901195,-0.002705526911
3.42,-0.01454398894,-0.002045179582
3.43,-0.01452693271,-0.001387240373
3.44,-0.0144779949,-0.0007333754461
3.45,-0.01439742024,-8.524845725E-05
3.46,-0.01428554713,0.0005554850268
3.47,-0.01414280778,0.001187183197
3.48,-0.01396972799,0.001808223732
3.49,-0.01376692663,0.00241700956
3.5,-0.01353511466,0.003011974632
3.51,-0.01327509379,0.003591589681
3.52,-0.01298775479,0.004154367933
3.53,-0.01267407536,0.004698870753
3.54,-0.01233511769,0.005223713191
3.55,-0.01197202557,0.005727569406
3.56,-0.01158602116,0.006209177943
3.57,-0.01117840145,0.006667346826
3.58,-0.01075053425,0.007100958456
3.59,-0.01030385395,0.00750897428
3.6,-0.009839856889,0.007890439203
3.61,-0.009360096431,0.008244485732
3.62,-0.008866177756,0.008570337809
3.63,-0.008359752355,0.00886731434
3.64,-0.007842512277,0.009134832369
3.65,-0.007316184149,0.009372409895
3.66,-0.006782522973,0.00957966832
3.67,-0.00624330575,0.009756334493
3.68,-0.005700324934,0.009902242349
3.69,-0.005155381756,0.01001733413
3.7,-0.004610279448,0.01010166119
3.71,-0.004066816384,0.01015538429
3.72,-0.00352677918,0.01017877358
3.73,-0.00299193577,0.01017220799
3.74,-0.002464028507,0.01013617422
3.75,-0.001944767298,0.01007126534
3.76,-0.001435822822,0.009978178822
3.77,-0.0009388198516,0.009857714193
3.78,-0.0004553307109,0.009710770242
3.79,1.313109531E-05,0.009538341766
3.8,0.0004651170582,0.009341515905
3.81,0.0008992496133,0.009121468064
3.82,0.001314227833,0.00887945743
3.83,0.00170883284,0.008616822113
3.84,0.002081932902,0.008334973913
3.85,0.002432488206,0.008035392755
3.86,0.00275955526,0.007719620785
3.87,0.003062290923,0.007389256186
3.88,0.003339956029,0.0070459467
3.89,0.003591918592,0.00669138292
3.9,0.003817656569,0.006327291349
3.91,0.004016760174,0.005955427274
3.92,0.00418893372,0.005577567483
3.93,0.004333996984,0.005195502849
3.94,0.004451886087,0.004811030816
3.95,0.00454265387,0.004425947823
3.96,0.004606469778,0.004042041699
3.97,0.00464361924,0.003661084059
3.98,0.00465450254,0.003284822733
3.99,0.004639633193,0.002914974273
4,0.004599635823,0.00255321656
4.01,0.004535243547,0.002201181545
4.02,0.004447294885,0.001860448172
4.03,0.004336730192,0.00153253549
4.04,0.004204587637,0.001218896013
4.05,0.004051998743,0.0009209093366
4.06,0.003880183503,0.0006398760578
4.07,0.003690445086,0.000377012011
4.08,0.003484164173,0.0001334428615
4.09,0.003262792921,-8.980092636E-05
4.1,0.00302784861,-0.0002917887197
4.11,0.002780906965,-0.000471693924
4.12,0.00252359522,-0.0006287977454
4.13,0.002257584916,-0.000762492491
4.14,0.001984584501,-0.0008722843891
4.15,0.001706331727,-0.0009577959161
4.16,0.00142458591,-0.001018767618
4.17,0.001141120065,-0.001055059413
4.18,0.0008577129654,-0.001066651375
4.19,0.0005761411468,-0.001053643986
4.2,0.0002981709063,-0.001016257855
4.21,2.555032239E-05,-0.0009548329042
4.22,-0.0002399986644,-0.000869827031
4.23,-0.0004967880754,-0.0007618142363
4.24,-0.0007431715874,-0.0006314822375
4.25,-0.0009775520603,-0.0004796295713
4.26,-0.001198388866,-0.0003071621962
4.27,-0.001404204986,-0.0001150896122
4.28,-0.001593593837,9.547948956E-05
4.29,-0.001765225811,0.0003233420269
4.3,-0.001917854483,0.0005672057575
4.31,-0.002050322461,0.0008256949166
4.32,-0.00216156686,0.00109735624
4.33,-0.002250624372,0.001380665341
4.34,-0.002316635892,0.001674033424
4.35,-0.00235885071,0.001975814291
4.36,-0.002376630216,0.00228431162
4.37,-0.002369451127,0.002597786489
4.38,-0.002336908203,0.002914465092
4.39,-0.002278716451,0.003232546637
4.4,-0.002194712796,0.00355021137
4.41,-0.002084857219,0.003865628714
4.42,-0.001949233355,0.004176965453
4.43,-0.001788048542,0.004482393961
4.44,-0.001601633322,0.004780100414
4.45,-0.001390440404,0.005068292956
4.46,-0.00115504308,0.005345209788
4.47,-0.0008961331086,0.00560912714
4.48,-0.0006145180738,0.005858367082
4.49,-0.0003111182282,0.006091305158
4.5,1.303716414E-05,0.006306377788
4.51,0.0003568139702,0.006502089425
4.52,0.0007189777967,0.006677019416
4.53,0.001098199047,0.006829828552
4.54,0.0014930584,0.006959265271
4.55,0.001902052697,0.007064171479
4.56,0.00232360119,0.007143487984
4.57,0.002756052153,0.007196259497
4.58,0.003197689799,0.007221639187
4.59,0.003646741495,0.007218892771
4.6,0.004101385221,0.007187402124
4.61,0.004559757265,0.00712666838
4.62,0.005019960097,0.007036314522
4.63,0.005480070402,0.006916087454
4.64,0.005938147233,0.006765859526
4.65,0.006392240244,0.006585629527
4.66,0.00684039797,0.006375523133
4.67,0.007280676123,0.006135792802
4.68,0.007711145853,0.00586681713
4.69,0.008129901955,0.005569099662
4.7,0.008535070974,0.005243267166
4.71,0.008924819179,0.004890067376
4.72,0.009297360363,0.004510366225
4.73,0.00965096345,0.004105144561
4.74,0.009983959862,0.003675494379
4.75,0.01029475062,0.00322261458
4.76,0.01058181313,0.002747806277
4.77,0.01084370769,0.002252467659
4.78,0.0110790836,0.001738088457
4.79,0.01128668489,0.001206244015
4.8,0.01146535567,0.0006585890104
4.81,0.01161404503,9.685083966E-05
4.82,0.01173181153,-0.0004771772985
4.83,0.01181782715,-0.001061643586
4.84,0.01187138087,-0.001654645012
4.85,0.01189188161,-0.002254234997
4.86,0.01187886083,-0.002858431199
4.87,0.01183197443,-0.003465223452
4.88,0.0117510043,-0.004072581806
4.89,0.01163585921,-0.00467846464
4.9,0.01148657526,-0.005280826802
4.91,0.01130331572,-0.005877627755
4.92,0.01108637037,-0.006466839673
4.93,0.01083615439,-0.007046455476
4.94,0.0105532066,-0.007614496751
4.95,0.01023818725,-0.008169021534
4.96,0.009891875408,-0.008708131923
4.97,0.009515165668,-0.009229981475
4.98,0.00910906457,-0.009732782378
4.99,0.008674686476,-0.01021481234
5,0.008213249042,-0.01067442122
5.01,0.007726068277,-0.01111003728
5.02,0.007214553224,-0.01152017313
5.03,0.006680200265,-0.01190343129
5.04,0.006124587112,-0.01225850938
5.05,0.00554936647,-0.01258420484
5.06,0.004956259437,-0.01287941931
5.07,0.004347048651,-0.01314316244
5.08,0.003723571215,-0.01337455535
5.09,0.003087711443,-0.01357283355
5.1,0.002441393451,-0.01373734941
5.11,0.00178657362,-0.01386757415
5.12,0.001125232981,-0.01396309922
5.13,0.0004593695401,-0.01402363739
5.14,-0.0002090094179,-0.01404902312
5.15,-0.0008778950133,-0.01403921258
5.16,-0.00154528441,-0.01399428312
5.17,-0.00220918838,-0.01391443222
5.18,-0.002867638753,-0.01379997603
5.19,-0.003518695735,-0.0136513474
5.2,-0.004160455046,-0.01346909341
5.21,-0.00479105487,-0.01325387252
5.22,-0.005408682566,-0.01300645128
5.23,-0.006011581131,-0.01272770057
5.24,-0.006598055381,-0.01241859151
5.25,-0.007166477828,-0.01208019099
5.26,-0.007715294228,-0.0117136568
5.27,-0.008243028783,-0.01132023251
5.28,-0.008748288974,-0.01090124196
5.29,-0.009229770013,-0.01045808358
5.3,-0.009686258887,-0.009992224345
5.31,-0.010116638,-0.009505193633
5.32,-0.01051988837,-0.008998576794
5.33,-0.01089509242,-0.008474008603
5.34,-0.01124143631,-0.007933166583
5.35,-0.01155821178,-0.007377764208
5.36,-0.01184481765,-0.006809544055
5.37,-0.01210076074,-0.006230270901
5.38,-0.01232565643,-0.005641724817
5.39,-0.0125192287,-0.005045694281
5.4,-0.01268130981,-0.004443969341
5.41,-0.01281183945,-0.003838334852
5.42,-0.01291086354,-0.00323056383
5.43,-0.01297853252,-0.002622410926
5.44,-0.01301509935,-0.002015606079
5.45,-0.01302091699,-0.001411848339
5.46,-0.01299643562,-0.0008127999157
5.47,-0.0129421994,-0.0002200804523
5.48,-0.01285884296,0.0003647384371
5.49,-0.01274708751,0.0009401383556
5.5,-0.01260773672,0.001504659014
5.51,-0.01244167222,0.002056902806
5.52,-0.01224984897,0.002595539056
5.53,-0.01203329027,0.003119307916
5.54,-0.01179308267,0.003627023917
5.55,-0.01153037062,0.004117579137
5.56,-0.01124635102,0.00458994601
5.57,-0.01094226762,0.005043179736
5.58,-0.0106194053,0.005476420313
5.59,-0.01027908431,0.005888894173
5.6,-0.009922654445,0.006279915425
5.61,-0.009551489177,0.006648886706
5.62,-0.009166979846,0.006995299639
5.63,-0.008770529831,0.007318734909
5.64,-0.0083635488,0.007618861953
5.65,-0.007947447043,0.007895438281
5.66,-0.007523629904,0.008148308427
5.67,-0.007093492349,0.008377402557
5.68,-0.006658413683,0.008582734719
5.69,-0.006219752439,0.008764400784
5.7,-0.005778841466,0.008922576058
5.71,-0.005336983225,0.009057512609
5.72,-0.004895445321,0.009169536305
5.73,-0.00445545628,0.009259043604
5.74,-0.004018201585,0.009326498084
5.75,-0.003584819999,0.009372426773
5.76,-0.003156400164,0.009397416263
5.77,-0.002733977507,0.009402108652
5.78,-0.002318531452,0.009387197331
5.79,-0.001910982947,0.009353422636
5.8,-0.001512192313,0.009301567386
5.81,-0.001122957413,0.009232452341
5.82,-0.0007440121604,0.009146931586
5.83,-0.0003760253412,0.009045887885
5.84,-1.959977478E-05,0.008930228007
5.85,0.000324728205,0.008800878061
5.86,0.0006564889467,0.008658778857
5.87,0.0009752793614,0.008504881314
5.88,0.001280762495,0.008340141941
5.89,0.001572666799,0.008165518406
5.9,0.00185078511,0.00798196521
5.91,0.002114973351,0.007790429502
5.92,0.002365148962,0.007591847026
5.93,0.002601289077,0.007387138246
5.94,0.002823428464,0.007177204636
5.95,0.003031657233,0.006962925175
5.96,0.003226118341,0.006745153047
5.97,0.003407004903,0.006524712555
5.98,0.003574557329,0.00630239627
5.99,0.003729060302,0.006078962421
6,0.003870839627,0.005855132531
