"Freq [GHz]","re(S(Tx_p1,Tx_p1)) []","im(S(Tx_p1,Tx_p1)) []"
1,0.09500787287,-0.1424421616
1.01,0.09179382794,-0.1428211309
1.02,0.0885974027,-0.1431585203
1.03,0.08542011487,-0.1434537355
1.04,0.08226348993,-0.1437064147
1.05,0.07912904463,-0.1439164187
1.06,0.07601827142,-0.1440838199
1.07,0.07293262385,-0.1442088922
1.08,0.06987350294,-0.144292099
1.09,0.06684224447,-0.1443340823
1.1,0.06384010725,-0.1443356503
1.11,0.06086826234,-0.1442977654
1.12,0.0579277832,-0.1442215317
1.13,0.05501963678,-0.1441081823
1.14,0.0521446756,-0.1439590666
1.15,0.04930363066,-0.1437756371
1.16,0.04649710542,-0.1435594366
1.17,0.04372557056,-0.1433120845
1.18,0.04098935975,-0.1430352644
1.19,0.03828866628,-0.1427307104
1.2,0.03562354058,-0.142400194
1.21,0.03299388862,-0.1420455116
1.22,0.03039947115,-0.1416684708
1.23,0.02783990386,-0.1412708787
1.24,0.02531465824,-0.1408545287
1.25,0.02282306335,-0.1404211887
1.26,0.02036430833,-0.1399725888
1.27,0.01793744566,-0.1395104102
1.28,0.01554139517,-0.1390362736
1.29,0.01317494874,-0.1385517288
1.3,0.01083677571,-0.1380582436
1.31,0.008525428898,-0.1375571948
1.32,0.006239351234,-0.1370498581
1.33,0.003976883015,-0.1365373995
1.34,0.001736269666,-0.136020867
1.35,-0.0004843299651,-0.1355011827
1.36,-0.002686834851,-0.1349791358
1.37,-0.004873232584,-0.1344553759
1.38,-0.007045569781,-0.1339304074
1.39,-0.009205942135,-0.1334045842
1.4,-0.01135648414,-0.132878105
1.41,-0.01349935857,-0.1323510096
1.42,-0.01563674568,-0.1318231759
1.43,-0.01777083225,-0.1312943175
1.44,-0.01990380051,-0.1307639815
1.45,-0.02203781686,-0.1302315484
1.46,-0.02417502068,-0.1296962311
1.47,-0.02631751297,-0.1291570761
1.48,-0.02846734515,-0.1286129642
1.49,-0.03062650781,-0.1280626124
1.5,-0.03279691969,-0.1275045774
1.51,-0.03498041671,-0.1269372579
1.52,-0.03717874127,-0.1263588994
1.53,-0.03939353177,-0.1257675989
1.54,-0.04162631233,-0.1251613099
1.55,-0.04387848298,-0.1245378492
1.56,-0.04615131006,-0.1238949028
1.57,-0.04844591706,-0.1232300338
1.58,-0.05076327592,-0.1225406902
1.59,-0.05310419871,-0.1218242132
1.6,-0.05546932992,-0.1210778462
1.61,-0.0578591391,-0.1202987445
1.62,-0.06027391424,-0.1194839851
1.63,-0.06271375558,-0.1186305771
1.64,-0.06517857008,-0.1177354725
1.65,-0.06766806654,-0.1167955774
1.66,-0.07018175132,-0.1158077635
1.67,-0.07271892475,-0.1147688799
1.68,-0.07527867819,-0.1136757649
1.69,-0.07785989188,-0.1125252589
1.7,-0.08046123336,-0.1113142158
1.71,-0.08308115672,-0.1100395167
1.72,-0.08571790257,-0.1086980817
1.73,-0.08836949864,-0.107286883
1.74,-0.09103376129,-0.1058029575
1.75,-0.09370829755,-0.1042434196
1.76,-0.09639050811,-0.1026054734
1.77,-0.09907759088,-0.1008864259
1.78,-0.1017665453,-0.09908369846
1.79,-0.1044541775,-0.09719483967
1.8,-0.1071371061,-0.09521753671
1.81,-0.1098117682,-0.0931496272
1.82,-0.1124744274,-0.09098911036
1.83,-0.1151211808,-0.08873415792
1.84,-0.1177479677,-0.08638312466
1.85,-0.1203505789,-0.08393455846
1.86,-0.1229246658,-0.08138720987
1.87,-0.1254657514,-0.07874004125
1.88,-0.1279692401,-0.07599223527
1.89,-0.1304304298,-0.07314320293
1.9,-0.1328445233,-0.07019259095
1.91,-0.1352066404,-0.0671402885
1.92,-0.1375118307,-0.06398643335
1.93,-0.1397550866,-0.06073141732
1.94,-0.1419313563,-0.05737589095
1.95,-0.144035558,-0.05392076764
1.96,-0.1460625931,-0.05036722683
1.97,-0.148007361,-0.04671671667
1.98,-0.1498647729,-0.04297095569
1.99,-0.1516297664,-0.03913193392
2,-0.1532973203,-0.03520191305
2.01,-0.1548624687,-0.03118342593
2.02,-0.1563203158,-0.0270792752
2.03,-0.1576660507,-0.0228925312
2.04,-0.1588949616,-0.018626529
2.05,-0.1600024504,-0.0142848647
2.06,-0.1609840467,-0.009871391004
2.07,-0.161835422,-0.005390211863
2.08,-0.1625524034,-0.0008456765157
2.09,-0.163130987,0.003757627311
2.1,-0.1635673513,0.008414880912
2.11,-0.1638578697,0.01312104283
2.12,-0.163999123,0.01787085778
2.13,-0.1639879115,0.02265886628
2.14,-0.163821266,0.02747941485
2.15,-0.1634964593,0.03232666697
2.16,-0.1630110163,0.03719461452
2.17,-0.1623627236,0.04207708986
2.18,-0.161549639,0.04696777839
2.19,-0.1605701,0.05186023172
2.2,-0.1594227315,0.05674788117
2.21,-0.1581064532,0.06162405186
2.22,-0.1566204855,0.06648197706
2.23,-0.1549643562,0.071314813
2.24,-0.1531379043,0.07611565394
2.25,-0.1511412849,0.08087754758
2.26,-0.1489749725,0.08559351065
2.27,-0.1466397633,0.09025654471
2.28,-0.1441367768,0.09485965215
2.29,-0.1414674574,0.09939585225
2.3,-0.1386335736,0.1038581973
2.31,-0.135637218,0.1082397888
2.32,-0.1324808051,0.1125337935
2.33,-0.1291670692,0.1167334597
2.34,-0.1256990612,0.1208321329
2.35,-0.122080144,0.1248232719
2.36,-0.1183139882,0.1287004641
2.37,-0.1144045662,0.1324574413
2.38,-0.1103561451,0.1360880941
2.39,-0.1061732805,0.1395864875
2.4,-0.1018608074,0.1429468744
2.41,-0.09742383191,0.1461637103
2.42,-0.09286772173,0.1492316663
2.43,-0.08819809577,0.1521456426
2.44,-0.08342081335,0.1549007804
2.45,-0.07854196265,0.1574924745
2.46,-0.07356784858,0.1599163844
2.47,-0.06850498004,0.1621684447
2.48,-0.06336005667,0.1642448758
2.49,-0.05813995506,0.1661421928
2.5,-0.05285171448,0.1678572147
2.51,-0.04750252223,0.1693870717
2.52,-0.04209969847,0.170729213
2.53,-0.03665068084,0.1718814131
2.54,-0.03116300866,0.1728417772
2.55,-0.02564430686,0.1736087462
2.56,-0.02010226973,0.1741811009
2.57,-0.01454464444,0.1745579648
2.58,-0.008979214394,0.1747388067
2.59,-0.003413782573,0.1747234422
2.6,0.002143845297,0.1745120343
2.61,0.007685877504,0.174105093
2.62,0.01320455311,0.1735034744
2.63,0.01869215864,0.1727083789
2.64,0.0241410446,0.1717213481
2.65,0.0295436419,0.1705442615
2.66,0.03489247802,0.169179332
2.67,0.04018019291,0.1676291004
2.68,0.04539955465,0.1658964297
2.69,0.05054347472,0.163984498
2.7,0.05560502292,0.1618967911
2.71,0.06057744186,0.1596370942
2.72,0.065454161,0.1572094823
2.73,0.07022881019,0.1546183112
2.74,0.0748952327,0.1518682067
2.75,0.07944749768,0.1489640535
2.76,0.08387991201,0.1459109834
2.77,0.08818703155,0.1427143637
2.78,0.09236367171,0.1393797836
2.79,0.0964049174,0.1359130415
2.8,0.1003061322,0.1323201308
2.81,0.1040629667,0.1286072262
2.82,0.1076713666,0.1247806687
2.83,0.1111275792,0.1208469509
2.84,0.1144281598,0.1168127016
2.85,0.1175699774,0.1126846705
2.86,0.1205502184,0.1084697124
2.87,0.1233663914,0.1041747712
2.88,0.1260163292,0.09980686386
2.89,0.1284981914,0.09537306438
2.9,0.1308104657,0.09088048754
2.91,0.132951968,0.08633627272
2.92,0.134921842,0.08174756774
2.93,0.1367195584,0.07712151277
2.94,0.1383449122,0.07246522441
2.95,0.1397980205,0.06778577992
2.96,0.1410793182,0.06309020163
2.97,0.1421895538,0.05838544164
2.98,0.1431297844,0.05367836682
2.99,0.1439013692,0.0489757441
3,0.1445059634,0.04428422616
3.01,0.14494551,0.03961033758
3.02,0.1452222326,0.03496046131
3.03,0.1453386257,0.03034082575
3.04,0.145297446,0.0257574923
3.05,0.1451017021,0.02121634341
3.06,0.1447546437,0.01672307127
3.07,0.1442597511,0.01228316709
3.08,0.1436207228,0.007901910983
3.09,0.1428414641,0.003584362557
3.1,0.1419260739,-0.0006646478756
3.11,0.1408788324,-0.004840527344
3.12,0.1397041875,-0.00893892756
3.13,0.1384067412,-0.01295575153
3.14,0.1369912358,-0.01688715941
3.15,0.1354625396,-0.02072957359
3.16,0.1338256331,-0.02447968307
3.17,0.1320855939,-0.02813444694
3.18,0.1302475825,-0.03169109719
3.19,0.1283168278,-0.03514714069
3.2,0.126298612,-0.03850036038
3.21,0.1241982565,-0.04174881564
3.22,0.1220211069,-0.044890842
3.23,0.1197725187,-0.04792504993
3.24,0.117457843,-0.05085032296
3.25,0.1150824123,-0.05366581498
3.26,0.1126515266,-0.05637094691
3.27,0.1101704397,-0.05896540247
3.28,0.1076443461,-0.06144912343
3.29,0.1050783675,-0.06382230401
3.3,0.1024775407,-0.06608538471
3.31,0.09984680508,-0.06823904548
3.32,0.0971909907,-0.07028419823
3.33,0.09451480731,-0.07222197875
3.34,0.09182283335,-0.07405373816
3.35,0.08911950574,-0.07578103365
3.36,0.08640911014,-0.07740561891
3.37,0.08369577188,-0.07892943391
3.38,0.0809834474,-0.08035459438
3.39,0.07827591641,-0.08168338081
3.4,0.07557677466,-0.08291822712
3.41,0.07288942738,-0.08406170896
3.42,0.07021708338,-0.08511653178
3.43,0.06756274992,-0.08608551861
3.44,0.06492922822,-0.08697159759
3.45,0.0623191097,-0.08777778943
3.46,0.05973477297,-0.08850719464
3.47,0.0571783815,-0.08916298069
3.48,0.05465188211,-0.08974836918
3.49,0.05215700406,-0.0902666229
3.5,0.04969525898,-0.09072103301
3.51,0.04726794149,-0.09111490621
3.52,0.04487613048,-0.0914515521
3.53,0.04252069119,-0.09173427061
3.54,0.04020227793,-0.09196633967
3.55,0.03792133749,-0.09215100311
3.56,0.03567811322,-0.09229145874
3.57,0.03347264977,-0.09239084688
3.58,0.03130479847,-0.09245223903
3.59,0.02917422328,-0.09247862709
3.6,0.02708040738,-0.09247291287
3.61,0.02502266029,-0.09243789808
3.62,0.02300012555,-0.09237627472
3.63,0.02101178887,-0.09229061605
3.64,0.01905648681,-0.09218336802
3.65,0.0171329159,-0.09205684124
3.66,0.01523964213,-0.09191320354
3.67,0.01337511088,-0.09175447309
3.68,0.0115376572,-0.09158251218
3.69,0.00972551635,-0.09139902151
3.7,0.007936834694,-0.09120553526
3.71,0.006169680765,-0.09100341674
3.72,0.00442205659,-0.09079385468
3.73,0.002691909152,-0.09057786024
3.74,0.0009771419903,-0.09035626469
3.75,-0.0007243731089,-0.09012971778
3.76,-0.002414784377,-0.08989868679
3.77,-0.00409624831,-0.08966345623
3.78,-0.005770917947,-0.08942412836
3.79,-0.007440931211,-0.08918062421
3.8,-0.009108399361,-0.08893268546
3.81,-0.01077539557,-0.08867987682
3.82,-0.01244394372,-0.08842158926
3.83,-0.01411600737,-0.08815704371
3.84,-0.01579347898,-0.0878852955
3.85,-0.01747816948,-0.0876052394
3.86,-0.01917179812,-0.08731561528
3.87,-0.02087598263,-0.08701501429
3.88,-0.02259222986,-0.08670188564
3.89,-0.02432192681,-0.08637454398
3.9,-0.02606633203,-0.08603117714
3.91,-0.02782656763,-0.08566985454
3.92,-0.02960361169,-0.08528853589
3.93,-0.03139829123,-0.08488508044
3.94,-0.03321127574,-0.08445725658
3.95,-0.03504307128,-0.08400275178
3.96,-0.03689401514,-0.08351918291
3.97,-0.0387642712,-0.08300410687
3.98,-0.04065382576,-0.08245503141
3.99,-0.04256248418,-0.08186942624
4,-0.04448986806,-0.08124473432
4.01,-0.04643541311,-0.08057838331
4.02,-0.04839836769,-0.07986779712
4.03,-0.05037779204,-0.07911040752
4.04,-0.05237255816,-0.07830366587
4.05,-0.05438135039,-0.07744505477
4.06,-0.05640266666,-0.0765320997
4.07,-0.05843482039,-0.07556238063
4.08,-0.06047594312,-0.07453354345
4.09,-0.06252398775,-0.07344331127
4.1,-0.06457673245,-0.07228949561
4.11,-0.06663178521,-0.07107000723
4.12,-0.06868658905,-0.06978286685
4.13,-0.07073842778,-0.06842621545
4.14,-0.07278443242,-0.06699832432
4.15,-0.07482158816,-0.06549760473
4.16,-0.07684674191,-0.06392261718
4.17,-0.07885661032,-0.06227208031
4.18,-0.08084778843,-0.06054487922
4.19,-0.08281675865,-0.05874007346
4.2,-0.08475990034,-0.05685690439
4.21,-0.08667349973,-0.0548948021
4.22,-0.08855376028,-0.05285339169
4.23,-0.09039681337,-0.05073249905
4.24,-0.0921987294,-0.04853215598
4.25,-0.09395552908,-0.04625260475
4.26,-0.09566319511,-0.04389430197
4.27,-0.09731768399,-0.04145792184
4.28,-0.09891493809,-0.03894435876
4.29,-0.1004508979,-0.03635472926
4.3,-0.1019215141,-0.03369037321
4.31,-0.1033227606,-0.03095285439
4.32,-0.1046506462,-0.02814396037
4.33,-0.1059012276,-0.02526570168
4.34,-0.1070706217,-0.02232031031
4.35,-0.1081550181,-0.01931023748
4.36,-0.1091506909,-0.01623815078
4.37,-0.1100540116,-0.01310693057
4.38,-0.1108614602,-0.009919665775
4.39,-0.1115696376,-0.006679648977
4.4,-0.1121752767,-0.003390370853
4.41,-0.1126752539,-5.551400559E-05
4.42,-0.1130665994,0.003321053841
4.43,-0.1133465085,0.00673528724
4.44,-0.1135123509,0.01018297101
4.45,-0.1135616811,0.01365972875
4.46,-0.1134922471,0.01716103197
4.47,-0.1133019995,0.0206822096
4.48,-0.1129890998,0.02421845813
4.49,-0.1125519277,0.0277648521
4.5,-0.1119890887,0.03131635506
4.51,-0.1112994205,0.03486783093
4.52,-0.110481999,0.03841405569
4.53,-0.1095361437,0.04194972948
4.54,-0.1084614222,0.04546948889
4.55,-0.1072576547,0.04896791959
4.56,-0.1059249169,0.05243956917
4.57,-0.1044635431,0.05587896016
4.58,-0.102874128,0.05928060322
4.59,-0.101157528,0.06263901044
4.6,-0.09931486203,0.06594870869
4.61,-0.09734751121,0.06920425306
4.62,-0.09525711821,0.0724002403
4.63,-0.09304558566,0.07553132216
4.64,-0.09071507396,0.07859221874
4.65,-0.08826799832,0.08157773167
4.66,-0.08570702516,0.08448275715
4.67,-0.0830350678,0.08730229884
4.68,-0.08025528145,0.0900314805
4.69,-0.07737105759,0.09266555834
4.7,-0.07438601764,0.09519993313
4.71,-0.071304006,0.09763016194
4.72,-0.06812908257,0.09995196955
4.73,-0.0648655145,0.1021612595
4.74,-0.06151776755,0.1042541244
4.75,-0.05809049676,0.1062268565
4.76,-0.05458853668,0.1080759568
4.77,-0.05101689105,0.1097981448
4.78,-0.04738072203,0.1113903661
4.79,-0.04368533899,0.1128498017
4.8,-0.03993618688,0.114173874
4.81,-0.03613883423,0.1153602549
4.82,-0.03229896081,0.1164068712
4.83,-0.02842234493,0.1173119102
4.84,-0.02451485051,0.118073825
4.85,-0.02058241391,0.1186913382
4.86,-0.01663103053,0.1191634457
4.87,-0.01266674124,0.1194894197
4.88,-0.008695618688,0.1196688101
4.89,-0.004723753506,0.1197014468
4.9,-0.0007572404733,0.1195874397
4.91,0.003197835353,0.1193271791
4.92,0.007135412488,0.1189213346
4.93,0.0110494668,0.1183708538
4.94,0.01493402523,0.1176769604
4.95,0.01878317931,0.1168411508
4.96,0.02259109859,0.1158651909
4.97,0.02635204382,0.1147511116
4.98,0.0300603799,0.1135012041
4.99,0.03371058851,0.1121180142
5,0.03729728052,0.1106043361
5.01,0.04081520797,0.1089632053
5.02,0.04425927571,0.1071978916
5.03,0.04762455263,0.1053118905
5.04,0.05090628245,0.1033089151
5.05,0.05409989401,0.1011928865
5.06,0.05720101114,0.09896792458
5.07,0.06020546195,0.09663833734
5.08,0.06310928757,0.09420861072
5.09,0.06590875034,0.09168339738
5.1,0.06860034144,0.08906750529
5.11,0.07118078786,0.08636588593
5.12,0.07364705876,0.08358362221
5.13,0.07599637121,0.08072591599
5.14,0.07822619523,0.07779807546
5.15,0.08033425822,0.07480550221
5.16,0.08231854865,0.07175367811
5.17,0.08417731909,0.0686481521
5.18,0.08590908856,0.0654945268
5.19,0.08751264417,0.06229844507
5.2,0.08898704202,0.05906557651
5.21,0.09033160749,0.055801604
5.22,0.09154593473,0.05251221017
5.23,0.09262988551,0.04920306408
5.24,0.09358358741,0.04587980788
5.25,0.09440743123,0.0425480437
5.26,0.0951020678,0.03921332062
5.27,0.09566840416,0.03588112197
5.28,0.09610759898,0.0325568528
5.29,0.09642105743,0.02924582763
5.3,0.09661042545,0.02595325856
5.31,0.09667758334,0.02268424366
5.32,0.09662463883,0.01944375583
5.33,0.0964539196,0.01623663194
5.34,0.09616796521,0.0130675625
5.35,0.09576951862,0.009941081791
5.36,0.09526151709,0.006861558391
5.37,0.09464708279,0.003833186323
5.38,0.0939295128,0.0008599766561
5.39,0.09311226891,-0.002054250301
5.4,0.09219896686,-0.00490587225
5.41,0.09119336542,-0.007691471555
5.42,0.09009935505,-0.01040784129
5.43,0.08892094631,-0.01305199069
5.44,0.08766225811,-0.01562114989
5.45,0.08632750566,-0.01811277416
5.46,0.08492098834,-0.02052454735
5.47,0.08344707737,-0.02285438474
5.48,0.08191020345,-0.02510043528
5.49,0.08031484428,-0.02726108302
5.5,0.07866551212,-0.02933494804
5.51,0.0769667413,-0.03132088663
5.52,0.07522307587,-0.03321799078
5.53,0.07343905719,-0.03502558709
5.54,0.07161921181,-0.03674323499
5.55,0.06976803935,-0.03837072432
5.56,0.0678900007,-0.03990807226
5.57,0.06598950633,-0.04135551975
5.58,0.06407090489,-0.04271352711
5.59,0.06213847216,-0.0439827693
5.6,0.0601964002,-0.04516413041
5.61,0.05824878694,-0.04625869773
5.62,0.05629962607,-0.04726775527
5.63,0.05435279739,-0.0481927767
5.64,0.05241205756,-0.04903541788
5.65,0.05048103128,-0.04979750891
5.66,0.04856320296,-0.05048104573
5.67,0.04666190893,-0.05108818134
5.68,0.04478033007,-0.05162121661
5.69,0.04292148505,-0.05208259079
5.7,0.04108822408,-0.05247487163
5.71,0.03928322326,-0.05280074527
5.72,0.03750897949,-0.05306300588
5.73,0.03576780594,-0.05326454503
5.74,0.03406182817,-0.05340834086
5.75,0.03239298083,-0.05349744722
5.76,0.03076300501,-0.05353498249
5.77,0.02917344611,-0.05352411848
5.78,0.02762565248,-0.05346806916
5.79,0.02612077457,-0.05337007945
5.8,0.02465976471,-0.05323341398
5.81,0.02324337757,-0.05306134589
5.82,0.02187217116,-0.05285714573
5.83,0.02054650851,-0.05262407045
5.84,0.01926655987,-0.05236535259
5.85,0.01803230555,-0.05208418955
5.86,0.01684353932,-0.05178373319
5.87,0.01569987235,-0.05146707953
5.88,0.01460073778,-0.05113725888
5.89,0.01354539569,-0.0507972261
5.9,0.01253293867,-0.05044985134
5.91,0.01156229789,-0.050097911
5.92,0.01063224957,-0.04974407918
5.93,0.00974142198,-0.04939091945
5.94,0.00888830279,-0.04904087708
5.95,0.008071246875,-0.04869627176
5.96,0.007288484465,-0.04835929067
5.97,0.00653812965,-0.04803198218
5.98,0.0058181892,-0.04771624996
5.99,0.005126571678,-0.04741384761
6,0.004461096807,-0.0471263739
