"Freq [GHz]","re(S(Tx_p1,Tx_p1)) []","im(S(Tx_p1,Tx_p1)) []"
1,-0.002835525382,-0.08490014773
1.01,-0.005351495592,-0.08326179348
1.02,-0.007776723539,-0.0815467786
1.03,-0.01010739294,-0.07975914542
1.04,-0.01233992637,-0.07790320493
1.05,-0.01447100094,-0.07598351833
1.06,-0.01649756278,-0.07400487799
1.07,-0.01841684027,-0.0719722878
1.08,-0.02022635596,-0.06989094307
1.09,-0.02192393726,-0.06776621001
1.1,-0.02350772581,-0.0656036048
1.11,-0.02497618553,-0.0634087724
1.12,-0.02632810943,-0.0611874651
1.13,-0.02756262498,-0.05894552091
1.14,-0.02867919832,-0.05668884185
1.15,-0.02967763702,-0.05442337218
1.16,-0.03055809166,-0.05215507669
1.17,-0.03132105603,-0.04988991906
1.18,-0.03196736609,-0.04763384044
1.19,-0.03249819766,-0.04539273813
1.2,-0.0329150629,-0.04317244477
1.21,-0.0332198055,-0.04097870766
1.22,-0.0334145948,-0.03881716866
1.23,-0.03350191862,-0.0366933445
1.24,-0.03348457506,-0.03461260771
1.25,-0.03336566318,-0.03258016803
1.26,-0.03314857262,-0.03060105461
1.27,-0.03283697225,-0.02868009885
1.28,-0.03243479786,-0.026821918
1.29,-0.03194623885,-0.02503089965
1.3,-0.03137572421,-0.02331118698
1.31,-0.03072790758,-0.02166666495
1.32,-0.03000765161,-0.02010094753
1.33,-0.02922001159,-0.01861736571
1.34,-0.0283702185,-0.01721895675
1.35,-0.02746366141,-0.01590845431
1.36,-0.02650586947,-0.01468827974
1.37,-0.02550249336,-0.01356053443
1.38,-0.02445928639,-0.01252699328
1.39,-0.02338208532,-0.01158909937
1.4,-0.02227679087,-0.01074795967
1.41,-0.02114934808,-0.01000434196
1.42,-0.02000572658,-0.009358672958
1.43,-0.01885190072,-0.008811037512
1.44,-0.01769382986,-0.008361179042
1.45,-0.01653743857,-0.008008501086
1.46,-0.01538859716,-0.007752070008
1.47,-0.0142531023,-0.00759061884
1.48,-0.01313665795,-0.007522552234
1.49,-0.01204485669,-0.007545952511
1.5,-0.01098316136,-0.007658586778
1.51,-0.00995688725,-0.007857915092
1.52,-0.008971184787,-0.008141099632
1.53,-0.008031022767,-0.008505014852
1.54,-0.007141172271,-0.008946258572
1.55,-0.006306191242,-0.009461163976
1.56,-0.005530409803,-0.01004581246
1.57,-0.004817916361,-0.01069604731
1.58,-0.004172544532,-0.01140748809
1.59,-0.003597860937,-0.01217554587
1.6,-0.003097153907,-0.01299543894
1.61,-0.002673423127,-0.01386220929
1.62,-0.002329370248,-0.01477073953
1.63,-0.002067390513,-0.0157157704
1.64,-0.001889565396,-0.01669191863
1.65,-0.0017976563,-0.01769369519
1.66,-0.001793099314,-0.01871552392
1.67,-0.001877001054,-0.01975176033
1.68,-0.0020501356,-0.02079671062
1.69,-0.002312942518,-0.02184465079
1.7,-0.002665526003,-0.02288984592
1.71,-0.003107655107,-0.02392656927
1.72,-0.003638765078,-0.02494912146
1.73,-0.004257959781,-0.02595184949
1.74,-0.004964015207,-0.02692916547
1.75,-0.005755384038,-0.02787556526
1.76,-0.006630201271,-0.02878564666
1.77,-0.007586290855,-0.02965412726
1.78,-0.008621173342,-0.03047586193
1.79,-0.009732074505,-0.03124585973
1.8,-0.01091593489,-0.03195930031
1.81,-0.01216942031,-0.03261154976
1.82,-0.01348893315,-0.03319817575
1.83,-0.01487062456,-0.03371496203
1.84,-0.01631040743,-0.03415792215
1.85,-0.01780397007,-0.03452331244
1.86,-0.01934679062,-0.03480764417
1.87,-0.02093415213,-0.03500769478
1.88,-0.02256115815,-0.03512051834
1.89,-0.02422274898,-0.03514345501
1.9,-0.02591371834,-0.0350741395
1.91,-0.02762873045,-0.03491050872
1.92,-0.02936233758,-0.03465080825
1.93,-0.03110899782,-0.03429359791
1.94,-0.03286309313,-0.03383775628
1.95,-0.03461894768,-0.03328248411
1.96,-0.03637084619,-0.03262730681
1.97,-0.03811305243,-0.03187207577
1.98,-0.03983982774,-0.03101696867
1.99,-0.04154544949,-0.03006248874
2,-0.04322422942,-0.029009463
2.01,-0.04487053185,-0.0278590394
2.02,-0.04647879164,-0.026612683
2.03,-0.04804353192,-0.02527217111
2.04,-0.04955938141,-0.02383958744
2.05,-0.05102109146,-0.02231731533
2.06,-0.05242355249,-0.02070802996
2.07,-0.05376181011,-0.01901468973
2.08,-0.05503108056,-0.01724052674
2.09,-0.05622676564,-0.01538903637
2.1,-0.05734446693,-0.01346396613
2.11,-0.0583799994,-0.01146930373
2.12,-0.05932940422,-0.009409264352
2.13,-0.06018896091,-0.007288277336
2.14,-0.06095519854,-0.005110972172
2.15,-0.06162490628,-0.002882163924
2.16,-0.0621951429,-0.0006068381127
2.17,-0.06266324554,0.001709864889
2.18,-0.06302683748,0.004062665889
2.19,-0.06328383497,0.006446163297
2.2,-0.06343245317,0.008854849859
2.21,-0.06347121103,0.01128312968
2.22,-0.06339893529,0.01372533542
2.23,-0.06321476342,0.01617574571
2.24,-0.06291814559,0.01862860262
2.25,-0.06250884566,0.02107812913
2.26,-0.06198694117,0.02351854673
2.27,-0.06135282229,0.02594409276
2.28,-0.06060718992,0.02834903777
2.29,-0.05975105266,0.03072770264
2.3,-0.05878572296,0.03307447546
2.31,-0.05771281226,0.03538382809
2.32,-0.05653422525,0.0376503325
2.33,-0.0552521532,0.03986867653
2.34,-0.05386906648,0.0420336794
2.35,-0.05238770619,0.04414030655
2.36,-0.05081107505,0.04618368412
2.37,-0.04914242741,0.04815911267
2.38,-0.04738525866,0.05006208048
2.39,-0.04554329386,0.05188827597
2.4,-0.04362047573,0.05363359964
2.41,-0.04162095202,0.05529417511
2.42,-0.03954906239,0.0568663595
2.43,-0.03740932463,0.05834675295
2.44,-0.03520642054,0.05973220743
2.45,-0.0329451813,0.06101983456
2.46,-0.03063057252,0.0622070127
2.47,-0.02826767892,0.06329139309
2.48,-0.02586168877,0.06427090516
2.49,-0.02341787811,0.06514376085
2.5,-0.02094159478,0.06590845809
2.51,-0.01843824236,0.06656378338
2.52,-0.01591326403,0.06710881337
2.53,-0.01337212644,0.06754291559
2.54,-0.0108203036,0.06786574824
2.55,-0.008263260899,0.06807725913
2.56,-0.005706439234,0.06817768362
2.57,-0.003155239362,0.06816754177
2.58,-0.0006150064914,0.0680476346
2.59,0.001908984837,0.06781903949
2.6,0.00441154552,0.06748310474
2.61,0.00688758628,0.06704144341
2.62,0.009332131617,0.06649592624
2.63,0.01174033329,0.065848674
2.64,0.01410748331,0.06510204895
2.65,0.0164290263,0.06425864577
2.66,0.01870057139,0.06332128174
2.67,0.02091790341,0.06229298636
2.68,0.02307699341,0.06117699038
2.69,0.02517400859,0.05997671431
2.7,0.02720532145,0.05869575644
2.71,0.02916751822,0.05733788044
2.72,0.03105740654,0.05590700249
2.73,0.03287202242,0.05440717815
2.74,0.03460863632,0.05284258883
2.75,0.0362647585,0.05121752811
2.76,0.03783814354,0.0495363877
2.77,0.03932679403,0.04780364339
2.78,0.04072896347,0.04602384075
2.79,0.04204315833,0.04420158088
2.8,0.04326813925,0.042341506
2.81,0.04440292149,0.04044828523
2.82,0.04544677452,0.03852660027
2.83,0.04639922084,0.03658113136
2.84,0.04726003397,0.03461654327
2.85,0.04802923568,0.03263747158
2.86,0.0487070925,0.0306485092
2.87,0.04929411143,0.02865419315
2.88,0.04979103495,0.0266589917
2.89,0.0501988354,0.02466729189
2.9,0.05051870854,0.02268338745
2.91,0.05075206667,0.02071146716
2.92,0.05090053096,0.0187556037
2.93,0.05096592333,0.01681974302
2.94,0.05095025769,0.01490769426
2.95,0.05085573078,0.01302312017
2.96,0.05068471238,0.01116952824
2.97,0.05043973529,0.009350262379
2.98,0.0501234847,0.007568495205
2.99,0.04973878736,0.005827221082
3,0.04928860038,0.004129249759
3.01,0.04877599975,0.002477200722
3.02,0.04820416859,0.0008734982486
3.03,0.04757638532,-0.0006796328404
3.04,0.04689601157,-0.002180170709
3.05,0.04616648003,-0.003626299321
3.06,0.04539128226,-0.005016410537
3.07,0.0445739564,-0.006349105494
3.08,0.04371807502,-0.007623195275
3.09,0.04282723289,-0.008837700874
3.1,0.041905035,-0.009991852464
3.11,0.04095508457,-0.01108508798
3.12,0.03998097138,-0.01211705101
3.13,0.03898626023,-0.0130875881
3.14,0.03797447966,-0.01399674531
3.15,0.036949111,-0.01484476426
3.16,0.03591357773,-0.01563207748
3.17,0.03487123516,-0.01635930331
3.18,0.03382536055,-0.01702724009
3.19,0.03277914359,-0.01763685999
3.2,0.03173567736,-0.01818930225
3.21,0.03069794979,-0.01868586596
3.22,0.02966883547,-0.01912800247
3.23,0.02865108819,-0.01951730731
3.24,0.02764733379,-0.01985551185
3.25,0.0266600637,-0.02014447451
3.26,0.02569162901,-0.02038617178
3.27,0.02474423511,-0.02058268889
3.28,0.02381993686,-0.02073621031
3.29,0.02292063448,-0.02084901006
3.3,0.02204806993,-0.02092344179
3.31,0.02120382392,-0.02096192886
3.32,0.02038931357,-0.02096695425
3.33,0.01960579064,-0.02094105043
3.34,0.01885434035,-0.02088678931
3.35,0.01813588082,-0.02080677207
3.36,0.01745116312,-0.02070361917
3.37,0.01680077187,-0.02057996044
3.38,0.01618512639,-0.02043842522
3.39,0.01560448252,-0.02028163277
3.4,0.01505893481,-0.02011218276
3.41,0.01454841943,-0.01993264612
3.42,0.01407271743,-0.01974555599
3.43,0.01363145857,-0.01955339906
3.44,0.01322412566,-0.01935860717
3.45,0.01285005921,-0.01916354926
3.46,0.01250846267,-0.01897052365
3.47,0.01219840793,-0.01878175073
3.48,0.01191884131,-0.01859936601
3.49,0.01166858978,-0.01842541361
3.5,0.0114463676,-0.01826184016
3.51,0.01125078318,-0.01811048916
3.52,0.01108034627,-0.01797309581
3.53,0.01093347529,-0.01785128227
3.54,0.01080850495,-0.01774655344
3.55,0.01070369401,-0.0176602932
3.56,0.01061723312,-0.01759376113
3.57,0.0105472529,-0.01754808977
3.58,0.01049183198,-0.01752428233
3.59,0.01044900513,-0.0175232109
3.6,0.01041677147,-0.01754561519
3.61,0.01039310256,-0.01759210171
3.62,0.01037595054,-0.01766314348
3.63,0.01036325617,-0.01775908017
3.64,0.01035295677,-0.01788011874
3.65,0.01034299409,-0.01802633452
3.66,0.01033132194,-0.01819767277
3.67,0.01031591373,-0.01839395058
3.68,0.01029476982,-0.01861485933
3.69,0.01026592457,-0.0188599674
3.7,0.01022745323,-0.01912872338
3.71,0.01017747858,-0.01942045957
3.72,0.01011417719,-0.01973439585
3.73,0.01003578552,-0.0200696439
3.74,0.009940605623,-0.02042521168
3.75,0.009827010527,-0.02080000821
3.76,0.009693449338,-0.02119284864
3.77,0.00953845193,-0.0216024595
3.78,0.00936063331,-0.02202748418
3.79,0.009158697612,-0.02246648864
3.8,0.008931441707,-0.02291796725
3.81,0.008677758448,-0.02338034873
3.82,0.008396639524,-0.0238520023
3.83,0.008087177931,-0.02433124387
3.84,0.007748570063,-0.02481634225
3.85,0.00738011741,-0.0253055255
3.86,0.006981227884,-0.02579698725
3.87,0.006551416762,-0.02628889299
3.88,0.006090307255,-0.02677938641
3.89,0.005597630715,-0.02726659563
3.9,0.005073226485,-0.02774863938
3.91,0.004517041388,-0.0282236331
3.92,0.003929128897,-0.02868969493
3.93,0.003309647954,-0.02914495159
3.94,0.002658861494,-0.02958754405
3.95,0.001977134651,-0.03001563315
3.96,0.001264932684,-0.03042740494
3.97,0.0005228186286,-0.03082107588
3.98,-0.0002485493135,-0.03119489782
3.99,-0.001048420623,-0.03154716281
4,-0.00187595554,-0.03187620757
4.01,-0.002730228343,-0.03218041788
4.02,-0.003610230828,-0.03245823258
4.03,-0.004514875952,-0.03270814739
4.04,-0.005443001632,-0.03292871849
4.05,-0.006393374688,-0.03311856575
4.06,-0.007364694895,-0.0332763758
4.07,-0.008355599139,-0.03340090474
4.08,-0.009364665657,-0.03349098062
4.09,-0.01039041834,-0.03354550567
4.1,-0.01143133108,-0.03356345819
4.11,-0.01248583216,-0.03354389426
4.12,-0.01355230864,-0.03348594912
4.13,-0.01462911072,-0.03338883831
4.14,-0.01571455618,-0.03325185856
4.15,-0.01680693464,-0.03307438844
4.16,-0.01790451191,-0.03285588875
4.17,-0.01900553419,-0.03259590266
4.18,-0.02010823222,-0.03229405572
4.19,-0.02121082536,-0.03195005551
4.2,-0.02231152556,-0.03156369119
4.21,-0.02340854124,-0.03113483285
4.22,-0.02450008098,-0.03066343064
4.23,-0.02558435722,-0.03014951372
4.24,-0.02665958967,-0.02959318912
4.25,-0.02772400874,-0.02899464037
4.26,-0.02877585868,-0.02835412606
4.27,-0.02981340065,-0.02767197824
4.28,-0.03083491565,-0.02694860073
4.29,-0.03183870727,-0.02618446732
4.3,-0.03282310425,-0.02538011991
4.31,-0.03378646293,-0.02453616654
4.32,-0.03472716957,-0.02365327939
4.33,-0.0356436424,-0.02273219275
4.34,-0.03653433366,-0.02177370089
4.35,-0.0373977314,-0.02077865598
4.36,-0.03823236114,-0.01974796594
4.37,-0.03903678743,-0.01868259232
4.38,-0.03980961521,-0.01758354817
4.39,-0.04054949113,-0.01645189594
4.4,-0.04125510464,-0.01528874536
4.41,-0.04192518904,-0.01409525144
4.42,-0.04255852239,-0.01287261238
4.43,-0.04315392833,-0.01162206766
4.44,-0.04371027675,-0.0103448961
4.45,-0.0442264845,-0.009042413946
4.46,-0.04470151585,-0.007715973125
4.47,-0.04513438308,-0.006366959447
4.48,-0.04552414678,-0.004996790935
4.49,-0.04586991636,-0.003606916199
4.5,-0.04617085026,-0.002198812879
4.51,-0.04642615632,-0.0007739861506
4.52,-0.04663509205,0.000666032702
4.53,-0.04679696487,0.002119687655
4.54,-0.04691113235,0.003585399252
4.55,-0.0469770025,0.005061565857
4.56,-0.04699403398,0.006546564852
4.57,-0.04696173643,0.008038753792
4.58,-0.04687967068,0.009536471513
4.59,-0.04674744916,0.01103803921
4.6,-0.04656473618,0.01254176148
4.61,-0.04633124832,0.01404592733
4.62,-0.04604675491,0.01554881122
4.63,-0.04571107842,0.01704867401
4.64,-0.04532409501,0.018543764
4.65,-0.04488573511,0.02003231791
4.66,-0.04439598398,0.02151256191
4.67,-0.04385488237,0.02298271268
4.68,-0.04326252725,0.02444097847
4.69,-0.04261907252,0.02588556022
4.7,-0.04192472981,0.02731465275
4.71,-0.04117976932,0.02872644597
4.72,-0.04038452064,0.03011912621
4.73,-0.03953937368,0.03149087754
4.74,-0.03864477956,0.03283988326
4.75,-0.03770125158,0.03416432744
4.76,-0.0367093661,0.03546239654
4.77,-0.03566976357,0.03673228116
4.78,-0.03458314939,0.03797217787
4.79,-0.03345029492,0.03918029118
4.8,-0.03227203833,0.04035483561
4.81,-0.03104928549,0.04149403785
4.82,-0.02978301079,0.04259613914
4.83,-0.02847425796,0.04365939762
4.84,-0.0271241407,0.04468209093
4.85,-0.02573384338,0.04566251892
4.86,-0.02430462155,0.04659900638
4.87,-0.02283780239,0.04748990606
4.88,-0.021334785,0.04833360163
4.89,-0.01979704068,0.0491285109
4.9,-0.01822611292,0.04987308904
4.91,-0.01662361734,0.050565832
4.92,-0.01499124149,0.05120527996
4.93,-0.01333074435,0.05179002089
4.94,-0.01164395582,0.05231869421
4.95,-0.0099327759,0.05278999446
4.96,-0.008199173671,0.05320267514
4.97,-0.006445186139,0.05355555249
4.98,-0.004672916796,0.05384750936
4.99,-0.002884533971,0.05407749911
5,-0.001082268955,0.05424454951
5.01,0.0007315861255,0.05434776663
5.02,0.002554680675,0.05438633869
5.03,0.004384608247,0.05435953998
5.04,0.006218909416,0.05426673454
5.05,0.008055074903,0.05410738
5.06,0.009890548961,0.05388103114
5.07,0.01172273301,0.05358734344
5.08,0.01354898955,0.05322607654
5.09,0.01536664628,0.05279709747
5.1,0.01717300052,0.05230038381
5.11,0.01896532384,0.05173602662
5.12,0.02074086695,0.0511042332
5.13,0.02249686481,0.05040532965
5.14,0.02423054194,0.0496397632
5.15,0.02593911801,0.04880810426
5.16,0.02761981353,0.04791104826
5.17,0.02926985582,0.04694941719
5.18,0.03088648513,0.04592416085
5.19,0.03246696087,0.04483635778
5.2,0.03400856802,0.04368721587
5.21,0.03550862371,0.04247807268
5.22,0.03696448384,0.04121039536
5.23,0.0383735498,0.03988578019
5.24,0.03973327531,0.03850595187
5.25,0.04104117323,0.03707276227
5.26,0.04229482249,0.03558818892
5.27,0.04349187491,0.03405433307
5.28,0.04463006213,0.03247341731
5.29,0.04570720235,0.03084778285
5.3,0.04672120718,0.02917988637
5.31,0.0476700882,0.02747229647
5.32,0.04855196357,0.02572768969
5.33,0.0493650644,0.02394884619
5.34,0.050107741,0.02213864495
5.35,0.0507784689,0.02030005865
5.36,0.05137585468,0.01843614815
5.37,0.05189864156,0.01655005654
5.38,0.05234571469,0.01464500289
5.39,0.05271610619,0.01272427564
5.4,0.05300899983,0.01079122559
5.41,0.05322373542,0.008849258636
5.42,0.05335981279,0.006901828158
5.43,0.05341689542,0.00495242713
5.44,0.05339481368,0.003004579958
5.45,0.05329356759,0.001061834065
5.46,0.05311332918,-0.0008722487381
5.47,0.05285444441,-0.002794101103
5.48,0.05251743457,-0.004700159154
5.49,0.05210299723,-0.006586871663
5.5,0.05161200666,-0.008450709338
5.51,0.05104551374,-0.01028817422
5.52,0.05040474539,-0.01209580912
5.53,0.04969110341,-0.01387020713
5.54,0.04890616281,-0.01560802113
5.55,0.04805166961,-0.01730597322
5.56,0.04712953811,-0.01896086416
5.57,0.04614184752,-0.02056958272
5.58,0.0450908382,-0.02212911481
5.59,0.04397890723,-0.02363655261
5.6,0.04280860351,-0.02508910337
5.61,0.04158262233,-0.02648409809
5.62,0.04030379938,-0.02781899988
5.63,0.03897510433,-0.02909141208
5.64,0.03759963382,-0.03029908603
5.65,0.03618060407,-0.03143992854
5.66,0.03472134297,-0.03251200895
5.67,0.03322528175,-0.03351356578
5.68,0.03169594618,-0.03444301293
5.69,0.0301369475,-0.03529894554
5.7,0.02855197282,-0.03608014514
5.71,0.02694477528,-0.03678558455
5.72,0.02531916387,-0.03741443202
5.73,0.02367899293,-0.03796605494
5.74,0.02202815143,-0.03844002296
5.75,0.020370552,-0.03883611048
5.76,0.01871011978,-0.03915429858
5.77,0.01705078111,-0.03939477624
5.78,0.01539645211,-0.03955794104
5.79,0.01375102714,-0.03964439913
5.8,0.01211836726,-0.03965496456
5.81,0.01050228865,-0.03959065798
5.82,0.008906551043,-0.03945270464
5.83,0.00733484629,-0.03924253174
5.84,0.005790786965,-0.03896176513
5.85,0.004277895151,-0.0386122253
5.86,0.002799591404,-0.03819592279
5.87,0.001359183946,-0.0377150529
5.88,-4.014188388E-05,-0.03717198977
5.89,-0.001395333872,-0.03656927982
5.9,-0.002703482831,-0.03590963466
5.91,-0.003961832128,-0.03519592329
5.92,-0.005167786796,-0.03443116385
5.93,-0.006318922199,-0.03361851471
5.94,-0.007412992214,-0.03276126512
5.95,-0.008447936899,-0.03186282534
5.96,-0.009421889616,-0.03092671624
5.97,-0.01033318358,-0.02995655857
5.98,-0.01118035779,-0.02895606174
5.99,-0.01196216236,-0.02792901221
6,-0.01267756319,-0.02687926166
