"Freq [GHz]","re(S(Tx_p1,Tx_p1)) []","im(S(Tx_p1,Tx_p1)) []"
1,-0.005069546141,-0.08074509925
1.01,-0.007371682366,-0.07929126641
1.02,-0.009591772862,-0.07777269878
1.03,-0.01172694155,-0.07619335067
1.04,-0.01377456236,-0.07455736775
1.05,-0.01573226951,-0.07286906761
1.06,-0.01759796646,-0.07113292006
1.07,-0.01936983355,-0.0693535272
1.08,-0.02104633437,-0.06753560339
1.09,-0.02262622074,-0.06568395507
1.1,-0.02410853646,-0.06380346061
1.11,-0.02549261977,-0.06189905025
1.12,-0.0267781045,-0.05997568609
1.13,-0.02796492004,-0.05803834233
1.14,-0.02905329001,-0.05609198574
1.15,-0.03004372986,-0.0541415565
1.16,-0.03093704313,-0.05219194934
1.17,-0.03173431679,-0.05024799521
1.18,-0.0324369153,-0.04831444342
1.19,-0.03304647373,-0.04639594432
1.2,-0.03356488988,-0.04449703264
1.21,-0.03399431535,-0.04262211147
1.22,-0.03433714579,-0.04077543697
1.23,-0.03459601024,-0.0389611038
1.24,-0.03477375968,-0.03718303145
1.25,-0.03487345482,-0.03544495129
1.26,-0.0348983532,-0.03375039461
1.27,-0.03485189567,-0.03210268149
1.28,-0.03473769226,-0.03050491068
1.29,-0.03455950754,-0.02895995037
1.3,-0.0343212456,-0.02747043003
1.31,-0.03402693455,-0.0260387332
1.32,-0.03368071074,-0.02466699131
1.33,-0.03328680274,-0.02335707854
1.34,-0.03284951506,-0.0221106077
1.35,-0.03237321185,-0.02092892717
1.36,-0.03186230042,-0.01981311887
1.37,-0.03132121484,-0.01876399722
1.38,-0.03075439954,-0.01778210918
1.39,-0.0301662931,-0.01686773528
1.4,-0.02956131215,-0.01602089161
1.41,-0.02894383559,-0.01524133283
1.42,-0.02831818903,-0.01452855613
1.43,-0.02768862961,-0.01388180603
1.44,-0.02705933129,-0.01330008022
1.45,-0.02643437052,-0.0127821361
1.46,-0.02581771244,-0.01232649828
1.47,-0.02521319763,-0.0119314668
1.48,-0.0246245295,-0.01159512611
1.49,-0.02405526227,-0.01131535474
1.5,-0.02350878961,-0.0110898357
1.51,-0.02298833409,-0.01091606738
1.52,-0.02249693723,-0.01079137513
1.53,-0.02203745046,-0.01071292326
1.54,-0.02161252675,-0.01067772759
1.55,-0.02122461318,-0.01068266835
1.56,-0.02087594424,-0.01072450345
1.57,-0.02056853606,-0.01079988209
1.58,-0.02030418145,-0.01090535855
1.59,-0.02008444582,-0.01103740627
1.6,-0.01991066403,-0.01119243199
1.61,-0.01978393804,-0.01136679
1.62,-0.01970513549,-0.01155679645
1.63,-0.01967488911,-0.01175874359
1.64,-0.01969359702,-0.01196891399
1.65,-0.01976142389,-0.01218359458
1.66,-0.0198783029,-0.01239909055
1.67,-0.02004393852,-0.01261173902
1.68,-0.02025781013,-0.01281792242
1.69,-0.02051917636,-0.01301408154
1.7,-0.02082708024,-0.01319672826
1.71,-0.02118035495,-0.01336245784
1.72,-0.02157763044,-0.01350796077
1.73,-0.0220173405,-0.01363003413
1.74,-0.02249773064,-0.01372559245
1.75,-0.02301686639,-0.01379167797
1.76,-0.02357264228,-0.01382547038
1.77,-0.0241627912,-0.01382429593
1.78,-0.02478489432,-0.01378563584
1.79,-0.02543639141,-0.01370713416
1.8,-0.02611459146,-0.01358660484
1.81,-0.02681668374,-0.01342203822
1.82,-0.02753974906,-0.0132116067
1.83,-0.02828077133,-0.01295366978
1.84,-0.02903664927,-0.01264677832
1.85,-0.02980420832,-0.01228967809
1.86,-0.03058021257,-0.01188131259
1.87,-0.03136137685,-0.01142082513
1.88,-0.03214437877,-0.01090756015
1.89,-0.03292587072,-0.01034106391
1.9,-0.03370249185,-0.009721084357
1.91,-0.03447087988,-0.009047570354
1.92,-0.0352276828,-0.008320670213
1.93,-0.03596957031,-0.007540729544
1.94,-0.0366932451,-0.006708288458
1.95,-0.0373954538,-0.005824078141
1.96,-0.03807299764,-0.00488901682
1.97,-0.03872274278,-0.003904205139
1.98,-0.03934163026,-0.002870920985
1.99,-0.03992668551,-0.001790613785
2,-0.04047502753,-0.0006648983046
2.01,-0.04098387751,0.0005044520206
2.02,-0.04145056701,0.001715512188
2.03,-0.04187254567,0.002966213127
2.04,-0.04224738838,0.004254349574
2.05,-0.04257280189,0.005577588261
2.06,-0.04284663094,0.00693347642
2.07,-0.04306686376,0.008319450525
2.08,-0.04323163707,0.009732845271
2.09,-0.04333924045,0.01117090273
2.1,-0.0433881202,0.01263078167
2.11,-0.04337688251,0.01410956694
2.12,-0.04330429623,0.01560427901
2.13,-0.04316929486,0.01711188347
2.14,-0.04297097814,0.01862930059
2.15,-0.04270861297,0.02015341484
2.16,-0.04238163383,0.0216810843
2.17,-0.04198964265,0.02320915007
2.18,-0.04153240815,0.02473444544
2.19,-0.04100986463,0.02625380503
2.2,-0.04042211035,0.02776407361
2.21,-0.0397694053,0.02926211485
2.22,-0.03905216867,0.0307448197
2.23,-0.03827097572,0.0322091146
2.24,-0.03742655438,0.03365196938
2.25,-0.03651978134,0.03507040485
2.26,-0.03555167782,0.03646150007
2.27,-0.03452340503,0.03782239926
2.28,-0.03343625925,0.03915031842
2.29,-0.03229166666,0.04044255151
2.3,-0.03109117789,0.04169647626
2.31,-0.0298364623,0.04290955967
2.32,-0.02852930214,0.04407936297
2.33,-0.02717158643,0.04520354634
2.34,-0.02576530476,0.04627987309
2.35,-0.02431254087,0.04730621349
2.36,-0.02281546625,0.04828054823
2.37,-0.02127633356,0.04920097136
2.38,-0.01969747006,0.05006569296
2.39,-0.01808127096,0.0508730413
2.4,-0.01643019288,0.05162146466
2.41,-0.01474674718,0.0523095328
2.42,-0.01303349346,0.05293593793
2.43,-0.0112930331,0.05349949548
2.44,-0.009528002822,0.05399914438
2.45,-0.007741068467,0.05443394706
2.46,-0.005934918807,0.05480308913
2.47,-0.004112259549,0.05510587872
2.48,-0.002275807488,0.05534174556
2.49,-0.0004282848204,0.05551023971
2.5,0.00142758634,0.05561103012
2.51,0.003289089263,0.05564390291
2.52,0.005153517686,0.05560875936
2.53,0.007018180693,0.0555056138
2.54,0.008880407362,0.05533459123
2.55,0.01073755119,0.05509592481
2.56,0.01258699429,0.05478995319
2.57,0.01442615134,0.05441711766
2.58,0.01625247331,0.05397795928
2.59,0.01806345095,0.05347311584
2.6,0.01985661805,0.05290331872
2.61,0.02162955443,0.05226938978
2.62,0.02337988876,0.05157223813
2.63,0.02510530112,0.05081285687
2.64,0.02680352534,0.04999231986
2.65,0.02847235118,0.04911177844
2.66,0.03010962618,0.0481724582
2.67,0.03171325751,0.04717565576
2.68,0.03328121343,0.04612273557
2.69,0.03481152473,0.04501512678
2.7,0.03630228595,0.04385432019
2.71,0.0377516564,0.04264186516
2.72,0.0391578611,0.04137936674
2.73,0.04051919161,0.04006848278
2.74,0.04183400664,0.03871092112
2.75,0.04310073266,0.03730843694
2.76,0.04431786435,0.03586283009
2.77,0.04548396502,0.03437594267
2.78,0.0465976669,0.03284965649
2.79,0.04765767141,0.03128589086
2.8,0.04866274938,0.02968660025
2.81,0.04961174123,0.02805377218
2.82,0.05050355712,0.02638942516
2.83,0.05133717707,0.02469560668
2.84,0.05211165114,0.02297439129
2.85,0.0528260995,0.02122787878
2.86,0.05347971261,0.01945819236
2.87,0.05407175135,0.01766747695
2.88,0.05460154726,0.01585789751
2.89,0.05506850268,0.01403163736
2.9,0.05547209101,0.01219089656
2.91,0.05581185704,0.01033789035
2.92,0.05608741718,0.00847484754
2.93,0.05629845991,0.006604008913
2.94,0.05644474608,0.004727625641
2.95,0.05652610944,0.00284795767
2.96,0.05654245704,0.0009672720671
2.97,0.05649376979,-0.0009121586517
2.98,0.05638010297,-0.002788058258
2.99,0.05620158682,-0.004658148596
3,0.05595842712,-0.00652015143
3.01,0.05565090581,-0.008371790375
3.02,0.05527938159,-0.0102107929
3.03,0.05484429055,-0.0120348924
3.04,0.05434614676,-0.01384183044
3.05,0.0537855429,-0.01562935896
3.06,0.05316315077,-0.01739524271
3.07,0.05247972186,-0.01913726177
3.08,0.0517360878,-0.02085321409
3.09,0.05093316077,-0.02254091825
3.1,0.05007193387,-0.02419821629
3.11,0.04915348135,-0.02582297665
3.12,0.04817895878,-0.02741309721
3.13,0.04714960308,-0.02896650844
3.14,0.04606673249,-0.03048117673
3.15,0.0449317463,-0.03195510769
3.16,0.04374612457,-0.03338634963
3.17,0.04251142753,-0.03477299713
3.18,0.04122929498,-0.03611319466
3.19,0.03990144536,-0.03740514026
3.2,0.03852967473,-0.03864708936
3.21,0.03711585549,-0.03983735851
3.22,0.03566193494,-0.0409743293
3.23,0.03416993354,-0.04205645219
3.24,0.03264194305,-0.04308225044
3.25,0.03108012431,-0.04405032394
3.26,0.02948670493,-0.04495935312
3.27,0.02786397657,-0.04580810277
3.28,0.02621429213,-0.04659542577
3.29,0.02454006254,-0.04732026689
3.3,0.02284375343,-0.04798166634
3.31,0.02112788148,-0.0485787633
3.32,0.01939501049,-0.04911079936
3.33,0.0176477473,-0.04957712174
3.34,0.01588873735,-0.04997718639
3.35,0.01412066009,-0.05031056092
3.36,0.01234622414,-0.05057692733
3.37,0.01056816217,-0.05077608452
3.38,0.008789225644,-0.05090795055
3.39,0.007012179299,-0.0509725647
3.4,0.005239795476,-0.05097008921
3.41,0.003474848247,-0.0509008108
3.42,0.001720107382,-0.05076514179
3.43,-2.166782141E-05,-0.05056362106
3.44,-0.001747734849,-0.05029691451
3.45,-0.003455374386,-0.04996581536
3.46,-0.005141896832,-0.04957124391
3.47,-0.006804648881,-0.04911424713
3.48,-0.008441020158,-0.04859599772
3.49,-0.01004844988,-0.04801779291
3.5,-0.01162443354,-0.04738105278
3.51,-0.01316652954,-0.04668731826
3.52,-0.01467236579,-0.04593824872
3.53,-0.01613964629,-0.04513561915
3.54,-0.01756615756,-0.04428131691
3.55,-0.01894977497,-0.0433773382
3.56,-0.02028846894,-0.042425784
3.57,-0.02158031095,-0.04142885571
3.58,-0.02282347942,-0.0403888504
3.59,-0.02401626525,-0.03930815565
3.6,-0.02515707723,-0.03818924405
3.61,-0.02624444715,-0.03703466735
3.62,-0.02727703459,-0.03584705027
3.63,-0.02825363142,-0.03462908398
3.64,-0.02917316592,-0.0333835193
3.65,-0.03003470665,-0.03211315951
3.66,-0.03083746577,-0.03082085308
3.67,-0.03158080212,-0.02950948592
3.68,-0.03226422378,-0.02818197359
3.69,-0.03288739025,-0.02684125323
3.7,-0.03345011411,-0.02549027529
3.71,-0.03395236229,-0.02413199515
3.72,-0.03439425683,-0.02276936459
3.73,-0.03477607511,-0.02140532321
3.74,-0.03509824967,-0.02004278971
3.75,-0.0353613674,-0.01868465319
3.76,-0.03556616835,-0.01733376441
3.77,-0.03571354389,-0.01599292711
3.78,-0.0358045345,-0.01466488938
3.79,-0.03584032687,-0.01335233506
3.8,-0.03582225063,-0.01205787536
3.81,-0.03575177448,-0.01078404053
3.82,-0.03563050187,-0.009533271839
3.83,-0.03546016613,-0.008307913637
3.84,-0.03524262512,-0.007110205764
3.85,-0.03497985549,-0.005942276204
3.86,-0.03467394631,-0.004806134048
3.87,-0.03432709244,-0.003703662813
3.88,-0.03394158737,-0.00263661412
3.89,-0.03351981563,-0.001606601773
3.9,-0.03306424494,-0.0006150962669
3.91,-0.03257741783,0.0003365802548
3.92,-0.03206194312,0.001247258571
3.93,-0.03152048692,0.002115926453
3.94,-0.03095576345,0.002941732213
3.95,-0.03037052559,0.00372398772
3.96,-0.02976755523,0.004462170857
3.97,-0.02914965343,0.005155927404
3.98,-0.02851963037,0.005805072343
3.99,-0.02788029532,0.006409590554
4,-0.02723444643,0.006969636921
4.01,-0.02658486049,0.007485535811
4.02,-0.02593428274,0.007957779938
4.03,-0.02528541668,0.008387028612
4.04,-0.02464091392,0.008774105358
4.05,-0.02400336424,0.009119994921
4.06,-0.02337528571,0.009425839653
4.07,-0.02275911502,0.009692935298
4.08,-0.02215719809,0.009922726168
4.09,-0.02157178087,0.01011679974
4.1,-0.02100500046,0.01027688069
4.11,-0.02045887664,0.01040482432
4.12,-0.01993530366,0.01050260955
4.13,-0.01943604254,0.01057233126
4.14,-0.01896271371,0.01061619226
4.15,-0.01851679024,0.0106364947
4.16,-0.01809959147,0.0106356311
4.17,-0.0177122772,0.01061607494
4.18,-0.0173558425,0.01058037089
4.19,-0.017031113,0.01053112465
4.2,-0.01673874089,0.01047099253
4.21,-0.01647920144,0.0104026707
4.22,-0.01625279028,0.01032888427
4.23,-0.01605962127,0.01025237611
4.24,-0.01589962504,0.0101758955
4.25,-0.0157725483,0.01010218676
4.26,-0.01567795374,0.01003397768
4.27,-0.01561522074,0.009973967974
4.28,-0.0155835467,0.009924817766
4.29,-0.01558194916,0.00988913608
4.3,-0.01560926857,0.009869469457
4.31,-0.0156641718,0.0098682907
4.32,-0.01574515634,0.009887987805
4.33,-0.01585055518,0.009930853124
4.34,-0.01597854242,0.009999072787
4.35,-0.01612713945,0.01009471645
4.36,-0.01629422189,0.0102197274
4.37,-0.01647752704,0.010375913
4.38,-0.01667466204,0.01056493569
4.39,-0.01688311255,0.01078830431
4.4,-0.01710025198,0.01104736605
4.41,-0.01732335128,0.01134329888
4.42,-0.01754958919,0.01167710458
4.43,-0.01777606297,0.01204960238
4.44,-0.01799979949,0.01246142325
4.45,-0.01821776681,0.01291300479
4.46,-0.01842688601,0.01340458692
4.47,-0.01862404336,0.0139362082
4.48,-0.01880610274,0.0145077029
4.49,-0.01896991828,0.01511869883
4.5,-0.01911234716,0.01576861596
4.51,-0.01923026258,0.01645666577
4.52,-0.01932056669,0.01718185144
4.53,-0.01938020369,0.01794296877
4.54,-0.01940617284,0.01873860796
4.55,-0.01939554136,0.01956715619
4.56,-0.01934545729,0.0204268009
4.57,-0.01925316217,0.02131553401
4.58,-0.01911600343,0.02223115679
4.59,-0.01893144662,0.02317128559
4.6,-0.01869708728,0.02413335829
4.61,-0.01841066242,0.02511464146
4.62,-0.01807006168,0.02611223833
4.63,-0.01767333794,0.02712309735
4.64,-0.01721871755,0.02814402153
4.65,-0.01670460992,0.0291716783
4.66,-0.01612961662,0.03020261011
4.67,-0.01549253984,0.03123324551
4.68,-0.01479239017,0.03225991083
4.69,-0.01402839374,0.03327884236
4.7,-0.01319999864,0.03428619893
4.71,-0.0123068806,0.03527807502
4.72,-0.01134894785,0.03625051419
4.73,-0.01032634527,0.0371995228
4.74,-0.009239457644,0.0381210841
4.75,-0.008088912134,0.03901117253
4.76,-0.006875579866,0.03986576816
4.77,-0.005600576678,0.04068087131
4.78,-0.004265262977,0.04145251726
4.79,-0.002871242723,0.04217679099
4.8,-0.00142036153,0.04284984184
4.81,8.529612408E-05,0.04346789817
4.82,0.001643410562,0.04402728188
4.83,0.00325143145,0.04452442268
4.84,0.004906583209,0.04495587223
4.85,0.006605871272,0.04531831793
4.86,0.008346089191,0.04560859635
4.87,0.01012382654,0.04582370634
4.88,0.01193547766,0.04596082166
4.89,0.01377725111,0.0460173031
4.9,0.01564517991,0.04599071014
4.91,0.01753513248,0.04587881196
4.92,0.0194428243,0.04567959783
4.93,0.0213638301,0.0453912869
4.94,0.0232935968,0.04501233723
4.95,0.02522745688,0.04454145407
4.96,0.02716064238,0.04397759743
4.97,0.0290882993,0.04331998875
4.98,0.03100550245,0.04256811684
4.99,0.03290727069,0.04172174286
5,0.03478858244,0.04078090446
5.01,0.03664439156,0.03974591903
5.02,0.03846964337,0.03861738598
5.03,0.04025929086,0.03739618811
5.04,0.04200831099,0.03608349205
5.05,0.0437117211,0.03468074767
5.06,0.04536459524,0.03318968665
5.07,0.04696208052,0.03161231993
5.08,0.04849941323,0.02995093438
5.09,0.04997193492,0.02820808835
5.1,0.05137510816,0.02638660642
5.11,0.052704532,0.0244895731
5.12,0.05395595716,0.02252032571
5.13,0.05512530077,0.02048244632
5.14,0.05620866066,0.01837975281
5.15,0.05720232918,0.01621628914
5.16,0.05810280641,0.01399631472
5.17,0.05890681285,0.01172429309
5.18,0.05961130137,0.009404879814
5.19,0.06021346856,0.007042909606
5.2,0.06071076524,0.004643382894
5.21,0.06110090631,0.002211451681
5.22,0.06138187972,-0.0002475951418
5.23,0.06155195458,-0.002728347026
5.24,0.06160968844,-0.005225287473
5.25,0.06155393364,-0.007732810174
5.26,0.06138384274,-0.01024523553
5.27,0.06109887296,-0.01275682748
5.28,0.0606987897,-0.01526181064
5.29,0.06018366903,-0.01775438756
5.3,0.05955389922,-0.02022875626
5.31,0.05881018117,-0.02267912771
5.32,0.05795352797,-0.02509974348
5.33,0.05698526332,-0.02748489328
5.34,0.05590701894,-0.02982893242
5.35,0.0547207311,-0.03212629915
5.36,0.05342863598,-0.03437153179
5.37,0.05203326414,-0.03655928554
5.38,0.050537434,-0.03868434905
5.39,0.0489442444,-0.04074166058
5.4,0.04725706611,-0.04272632366
5.41,0.04547953263,-0.04463362234
5.42,0.04361552992,-0.04645903591
5.43,0.04166918542,-0.04819825292
5.44,0.03964485622,-0.04984718463
5.45,0.03754711645,-0.05140197781
5.46,0.03538074398,-0.05285902672
5.47,0.03315070637,-0.05421498433
5.48,0.03086214631,-0.05546677279
5.49,0.02852036629,-0.05661159295
5.5,0.02613081294,-0.05764693311
5.51,0.02369906069,-0.05857057669
5.52,0.02123079515,-0.05938060916
5.53,0.01873179602,-0.06007542379
5.54,0.01620791976,-0.06065372661
5.55,0.01366508191,-0.06111454019
5.56,0.01110923932,-0.06145720652
5.57,0.008546372126,-0.06168138879
5.58,0.005982465763,-0.06178707217
5.59,0.003423492861,-0.06177456354
5.6,0.0008753952492,-0.06164449018
5.61,-0.001655933957,-0.06139779739
5.62,-0.004164668103,-0.06103574515
5.63,-0.006645064516,-0.06055990369
5.64,-0.009091481731,-0.05997214813
5.65,-0.01149839639,-0.05927465205
5.66,-0.01386041973,-0.05846988021
5.67,-0.01617231359,-0.05756058021
5.68,-0.018429006,-0.05654977336
5.69,-0.02062560605,-0.05544074454
5.7,-0.02275741829,-0.0542370314
5.71,-0.02481995644,-0.05294241255
5.72,-0.02680895628,-0.05156089517
5.73,-0.02872038795,-0.05009670175
5.74,-0.03055046738,-0.04855425627
5.75,-0.03229566682,-0.04693816971
5.76,-0.03395272469,-0.04525322495
5.77,-0.03551865434,-0.04350436119
5.78,-0.03699075199,-0.0416966579
5.79,-0.03836660372,-0.03983531833
5.8,-0.03964409144,-0.03792565266
5.81,-0.0408213979,-0.03597306089
5.82,-0.04189701068,-0.03398301545
5.83,-0.04286972519,-0.03196104365
5.84,-0.04373864659,-0.02991270997
5.85,-0.04450319074,-0.02784359836
5.86,-0.04516308405,-0.02575929449
5.87,-0.0457183624,-0.02366536805
5.88,-0.04616936889,-0.02156735522
5.89,-0.04651675077,-0.01947074129
5.9,-0.04676145516,-0.01738094352
5.91,-0.04690472397,-0.01530329434
5.92,-0.04694808772,-0.0132430248
5.93,-0.04689335856,-0.01120524861
5.94,-0.0467426222,-0.00919494642
5.95,-0.04649822915,-0.007216950852
5.96,-0.04616278498,-0.005275931915
5.97,-0.04573913982,-0.003376383137
5.98,-0.04523037708,-0.001522608327
5.99,-0.04463980143,0.0002812909453
6,-0.0439709261,0.002031427136
