"Freq [GHz]","re(S(Tx_p1,Tx_p1)) []","im(S(Tx_p1,Tx_p1)) []"
1,-0.03323864732,-0.1061476565
1.01,-0.03662783925,-0.1033541683
1.02,-0.03987061399,-0.1004424848
1.03,-0.04296106442,-0.09741980938
1.04,-0.04589371238,-0.09429371831
1.05,-0.0486635293,-0.09107213088
1.06,-0.05126595512,-0.0877632787
1.07,-0.05369691514,-0.08437567429
1.08,-0.05595283502,-0.08091807904
1.09,-0.0580306537,-0.07739947052
1.1,-0.05992783443,-0.07382900943
1.11,-0.06164237374,-0.07021600616
1.12,-0.06317280837,-0.06656988715
1.13,-0.06451822028,-0.06290016107
1.14,-0.06567823955,-0.05921638499
1.15,-0.06665304534,-0.05552813065
1.16,-0.06744336489,-0.05184495089
1.17,-0.06805047047,-0.04817634639
1.18,-0.06847617453,-0.04453173279
1.19,-0.0687228228,-0.0409204083
1.2,-0.06879328566,-0.03735152198
1.21,-0.06869094762,-0.03383404259
1.22,-0.06841969503,-0.03037672836
1.23,-0.06798390211,-0.02698809761
1.24,-0.0673884153,-0.02367640026
1.25,-0.06663853601,-0.02044959059
1.26,-0.06574000186,-0.01731530095
1.27,-0.06469896649,-0.01428081688
1.28,-0.0635219779,-0.01135305336
1.29,-0.06221595564,-0.008538532615
1.3,-0.06078816665,-0.005843363213
1.31,-0.05924620006,-0.003273220762
1.32,-0.05759794093,-0.0008333301295
1.33,-0.05585154308,0.001471550718
1.34,-0.054015401,0.003637145217
1.35,-0.05209812112,0.005659671002
1.36,-0.05010849238,0.00753585098
1.37,-0.04805545623,0.009262922629
1.38,-0.04594807626,0.01083864551
1.39,-0.04379550747,0.01226130699
1.4,-0.04160696526,0.01352972613
1.41,-0.03939169438,0.01464325575
1.42,-0.03715893783,0.01560178268
1.43,-0.03491790579,0.01640572623
1.44,-0.03267774485,0.01705603477
1.45,-0.03044750741,0.01755418061
1.46,-0.0282361216,0.01790215308
1.47,-0.02605236156,0.01810244986
1.48,-0.02390481846,0.01815806666
1.49,-0.02180187207,0.01807248522
1.5,-0.01975166322,0.01784965963
1.51,-0.01776206704,0.01749400124
1.52,-0.01584066725,0.01701036191
1.53,-0.01399473141,0.0164040159
1.54,-0.01223118732,0.01568064037
1.55,-0.01055660067,0.01484629451
1.56,-0.008977153856,0.01390739753
1.57,-0.007498626234,0.01287070541
1.58,-0.006126375691,0.01174328659
1.59,-0.004865321724,0.01053249666
1.6,-0.003719930006,0.009245952151
1.61,-0.002694198519,0.007891503523
1.62,-0.001791645274,0.006477207357
1.63,-0.001015297678,0.005011297982
1.64,-0.0003676835662,0.003502158529
1.65,0.0001491760794,0.001958291552
1.66,0.0005337726865,0.0003882893032
1.67,0.0007851139281,-0.001199196232
1.68,0.000902725817,-0.002795483447
1.69,0.0008866530611,-0.004391891264
1.7,0.0007374576792,-0.005979769234
1.71,0.0004562158878,-0.007550527475
1.72,4.45132706E-05,-0.009095666356
1.73,-0.0004955617477,-0.01060680583
1.74,-0.0011614261,-0.01207571433
1.75,-0.001950011918,-0.01349433708
1.76,-0.002857777976,-0.01485482382
1.77,-0.003880722702,-0.01614955578
1.78,-0.005014398708,-0.01737117184
1.79,-0.00625392879,-0.0185125938
1.8,-0.007594023333,-0.01956705063
1.81,-0.009028999082,-0.02052810174
1.82,-0.01055279919,-0.02138965907
1.83,-0.01215901449,-0.02214600793
1.84,-0.01384090593,-0.02279182666
1.85,-0.01559142804,-0.02332220488
1.86,-0.01740325345,-0.02373266043
1.87,-0.01926879827,-0.02401915477
1.88,-0.02118024834,-0.02417810695
1.89,-0.02312958616,-0.02420640606
1.9,-0.02510861855,-0.02410142204
1.91,-0.02710900478,-0.02386101492
1.92,-0.02912228526,-0.02348354247
1.93,-0.03113991051,-0.02296786607
1.94,-0.03315327048,-0.02231335508
1.95,-0.03515372397,-0.02151988934
1.96,-0.03713262824,-0.02058786012
1.97,-0.03908136849,-0.0195181693
1.98,-0.04099138734,-0.01831222691
1.99,-0.04285421399,-0.01697194695
2,-0.04466149318,-0.01549974158
2.01,-0.04640501371,-0.01389851364
2.02,-0.04807673646,-0.01217164764
2.03,-0.04966882185,-0.01032299903
2.04,-0.05117365665,-0.008356882047
2.05,-0.05258388002,-0.006278056016
2.06,-0.05389240869,-0.004091710177
2.07,-0.05509246127,-0.001803447137
2.08,-0.05617758154,0.0005807350505
2.09,-0.05714166067,0.003054462076
2.1,-0.05797895832,0.005611003807
2.11,-0.05868412251,0.008243295871
2.12,-0.0592522082,0.01094396233
2.13,-0.05967869465,0.01370533935
2.14,-0.05995950126,0.01651949985
2.15,-0.06009100206,0.01937827894
2.16,-0.0600700387,0.0222733002
2.17,-0.05989393193,0.02519600257
2.18,-0.05956049153,0.02813766791
2.19,-0.05906802467,0.03108944903
2.2,-0.05841534261,0.03404239812
2.21,-0.05760176583,0.03698749555
2.22,-0.05662712751,0.03991567887
2.23,-0.05549177534,0.04281787197
2.24,-0.05419657167,0.04568501426
2.25,-0.05274289206,0.04850808984
2.26,-0.0511326221,0.05127815648
2.27,-0.04936815267,0.05398637439
2.28,-0.04745237356,0.0566240347
2.29,-0.04538866544,0.05918258742
2.3,-0.04318089039,0.06165366905
2.31,-0.04083338074,0.06402912943
2.32,-0.03835092654,0.06630105803
2.33,-0.03573876148,0.06846180941
2.34,-0.03300254749,0.07050402789
2.35,-0.0301483579,0.07242067126
2.36,-0.02718265933,0.07420503353
2.37,-0.02411229234,0.07585076655
2.38,-0.02094445093,0.0773519006
2.39,-0.01768666081,0.07870286369
2.4,-0.01434675679,0.07989849964
2.41,-0.01093285906,0.08093408486
2.42,-0.007453348642,0.08180534373
2.43,-0.00391684203,0.08250846264
2.44,-0.0003321650561,0.08304010244
2.45,0.00329167386,0.08339740958
2.46,0.006945511037,0.08357802556
2.47,0.01062005534,0.08358009492
2.48,0.01430591638,0.08340227166
2.49,0.01799363299,0.08304372399
2.5,0.02167370194,0.08250413752
2.51,0.02533660676,0.08178371689
2.52,0.0289728466,0.08088318566
2.53,0.03257296498,0.0798037847
2.54,0.03612757846,0.07854726891
2.55,0.03962740499,0.07711590234
2.56,0.043063292,0.07551245178
2.57,0.04642624401,0.07374017873
2.58,0.04970744974,0.07180282995
2.59,0.0528983087,0.06970462635
2.6,0.05599045697,0.0674502506
2.61,0.05897579237,0.06504483319
2.62,0.06184649869,0.0624939372
2.63,0.06459506908,0.0598035417
2.64,0.06721432843,0.05698002393
2.65,0.06969745469,0.0540301402
2.66,0.07203799914,0.05096100574
2.67,0.07422990539,0.04778007339
2.68,0.07626752723,0.04449511134
2.69,0.07814564518,0.04111417983
2.7,0.07985948166,0.03764560714
2.71,0.08140471484,0.03409796463
2.72,0.08277749104,0.03048004118
2.73,0.08397443563,0.02680081695
2.74,0.08499266258,0.02306943663
2.75,0.08582978232,0.01929518217
2.76,0.0864839082,0.01548744522
2.77,0.08695366131,0.01165569922
2.78,0.0872381738,0.007809471312
2.79,0.08733709062,0.003958314124
2.8,0.0872505696,0.0001117775777
2.81,0.08697928009,-0.003720619292
2.82,0.08652439994,-0.007529416332
2.83,0.08588761099,-0.01130524004
2.84,0.08507109298,-0.01503883099
2.85,0.08407751597,-0.01872107087
2.86,0.08291003131,-0.02234300901
2.87,0.0815722611,-0.02589588833
2.88,0.08006828628,-0.02937117064
2.89,0.07840263335,-0.0327605612
2.9,0.0765802597,-0.03605603248
2.91,0.07460653774,-0.03924984704
2.92,0.07248723776,-0.04233457945
2.93,0.07022850964,-0.04530313717
2.94,0.06783686341,-0.04814878044
2.95,0.06531914884,-0.05086514092
2.96,0.06268253395,-0.05344623923
2.97,0.0599344827,-0.05588650118
2.98,0.05708273181,-0.05818077273
2.99,0.05413526679,-0.06032433365
3,0.05110029734,-0.06231290977
3.01,0.04798623209,-0.0641426838
3.02,0.04480165284,-0.06581030478
3.03,0.04155528836,-0.06731289602
3.04,0.03825598784,-0.06864806156
3.05,0.03491269401,-0.06981389111
3.06,0.03153441613,-0.07080896359
3.07,0.02813020284,-0.07163234898
3.08,0.02470911501,-0.0722836088
3.09,0.02128019863,-0.072762795
3.1,0.01785245785,-0.07307044737
3.11,0.0144348283,-0.07320758947
3.12,0.01103615066,-0.07317572304
3.13,0.007665144663,-0.07297682097
3.14,0.004330383569,-0.07261331892
3.15,0.001040269203,-0.07208810543
3.16,-0.002196992385,-0.07140451075
3.17,-0.005373414551,-0.07056629429
3.18,-0.008481252906,-0.06957763088
3.19,-0.01151302732,-0.06844309572
3.2,-0.01446154299,-0.0671676482
3.21,-0.01731991061,-0.06575661455
3.22,-0.02008156535,-0.06421566952
3.23,-0.02274028494,-0.06255081693
3.24,-0.0252902064,-0.06076836942
3.25,-0.02772584177,-0.05887492721
3.26,-0.03004209246,-0.05687735617
3.27,-0.03223426237,-0.05478276503
3.28,-0.03429806968,-0.05259848211
3.29,-0.03622965734,-0.05033203131
3.3,-0.0380256021,-0.04799110768
3.31,-0.03968292219,-0.04558355259
3.32,-0.04119908358,-0.04311732853
3.33,-0.04257200477,-0.04060049362
3.34,-0.0438000602,-0.03804117602
3.35,-0.04488208212,-0.03544754816
3.36,-0.04581736109,-0.03282780105
3.37,-0.04660564499,-0.03019011858
3.38,-0.0472471366,-0.027542652
3.39,-0.04774248977,-0.02489349466
3.4,-0.0480928042,-0.022250657
3.41,-0.04829961873,-0.01962204197
3.42,-0.04836490345,-0.01701542093
3.43,-0.0482910503,-0.01443841003
3.44,-0.04808086252,-0.01189844728
3.45,-0.04773754277,-0.009402770213
3.46,-0.04726468006,-0.006958394419
3.47,-0.04666623552,-0.004572092775
3.48,-0.04594652705,-0.002250375639
3.49,-0.04511021291,5.280494149E-07
3.5,-0.04416227432,0.002174688661
3.51,-0.04310799712,0.004266492723
3.52,-0.04195295251,0.006270658655
3.53,-0.04070297701,0.008182251375
3.54,-0.03936415168,0.009996695696
3.55,-0.03794278065,0.01170978851
3.56,-0.03644536901,0.01331770972
3.57,-0.03487860022,0.01481703184
3.58,-0.03324931306,0.01620472833
3.59,-0.03156447814,0.01747818055
3.6,-0.02983117417,0.01863518342
3.61,-0.02805656397,0.0196739496
3.62,-0.02624787036,0.02059311243
3.63,-0.02441235193,0.0213917274
3.64,-0.02255727887,0.02206927225
3.65,-0.02068990884,0.02262564576
3.66,-0.01881746308,0.02306116507
3.67,-0.01694710265,0.02337656176
3.68,-0.0150859051,0.02357297654
3.69,-0.01324084146,0.02365195262
3.7,-0.01141875367,0.02361542783
3.71,-0.009626332669,0.02346572551
3.72,-0.007870096947,0.02320554408
3.73,-0.006156371849,0.02283794559
3.74,-0.004491269593,0.02236634298
3.75,-0.002880670087,0.02179448637
3.76,-0.001330202607,0.02112644823
3.77,0.0001547716227,0.02036660758
3.78,0.001569175867,0.01951963332
3.79,0.002908233316,0.01859046658
3.8,0.00416748145,0.01758430233
3.81,0.005342785302,0.01650657022
3.82,0.006430349581,0.01536291475
3.83,0.007426729609,0.01415917477
3.84,0.008328841052,0.01290136251
3.85,0.00913396842,0.01159564206
3.86,0.009839772293,0.01024830749
3.87,0.01044429529,0.008865760602
3.88,0.01094596671,0.007454488497
3.89,0.01134360592,0.006021040847
3.9,0.0116364244,0.004572007151
3.91,0.01182402646,0.003113993915
3.92,0.0119064087,0.00165360188
3.93,0.01188395813,0.00019740337
3.94,0.01175744901,-0.001248080176
3.95,0.01152803842,-0.002676400405
3.96,0.01119726056,-0.004081203924
3.97,0.01076701984,-0.005456253758
3.98,0.01023958277,-0.006795450351
3.99,0.009617568599,-0.008092852007
4,0.008903938941,-0.009342694743
4.01,0.008101986199,-0.01053941146
4.02,0.007215320973,-0.0116776504
4.03,0.006247858453,-0.0127522928
4.04,0.005203803835,-0.01375846969
4.05,0.004087636834,-0.01469157786
4.06,0.002904095333,-0.01554729481
4.07,0.001658158231,-0.01632159274
4.08,0.000355027547,-0.01701075152
4.09,-0.0009998901577,-0.01761137056
4.1,-0.002401002975,-0.01812037963
4.11,-0.003842553398,-0.01853504845
4.12,-0.005318638558,-0.01885299521
4.13,-0.006823230875,-0.01907219383
4.14,-0.008350199057,-0.01919098005
4.15,-0.009893329386,-0.01920805631
4.16,-0.0114463472,-0.01912249531
4.17,-0.0130029385,-0.01893374244
4.18,-0.01455677168,-0.01864161686
4.19,-0.01610151915,-0.01824631141
4.2,-0.01763087898,-0.01774839123
4.21,-0.01913859633,-0.01714879114
4.22,-0.02061848469,-0.01644881187
4.23,-0.02206444682,-0.01565011498
4.24,-0.02347049534,-0.01475471667
4.25,-0.02483077287,-0.01376498042
4.26,-0.02613957175,-0.01268360846
4.27,-0.02739135314,-0.01151363221
4.28,-0.02858076552,-0.01025840156
4.29,-0.02970266257,-0.008921573193
4.3,-0.03075212024,-0.007507097939
4.31,-0.03172445312,-0.006019207107
4.32,-0.03261522992,-0.004462397999
4.33,-0.03342028811,-0.002841418548
4.34,-0.03413574761,-0.001161251182
4.35,-0.03475802349,0.000572904056
4.36,-0.03528383774,0.002355647056
4.37,-0.03571022993,0.004181395805
4.38,-0.03603456681,0.006044405112
4.39,-0.03625455082,0.007938785809
4.4,-0.03636822749,0.009858524397
4.41,-0.03637399163,0.01179750303
4.42,-0.03627059248,0.01374951983
4.43,-0.03605713752,0.01570830936
4.44,-0.03573309525,0.01766756336
4.45,-0.03529829668,0.01962095143
4.46,-0.03475293567,0.02156214192
4.47,-0.03409756807,0.02348482257
4.48,-0.0333331097,0.02538272122
4.49,-0.03246083311,0.02724962618
4.5,-0.03148236326,0.0290794065
4.51,-0.03039967196,0.0308660318
4.52,-0.02921507131,0.03260359184
4.53,-0.02793120594,0.03428631552
4.54,-0.02655104427,0.03590858952
4.55,-0.02507786867,0.03746497625
4.56,-0.0235152647,0.0389502313
4.57,-0.02186710932,0.04035932016
4.58,-0.02013755823,0.0416874342
4.59,-0.01833103231,0.04293000591
4.6,-0.01645220329,0.04408272334
4.61,-0.01450597856,0.04514154362
4.62,-0.01249748534,0.04610270562
4.63,-0.01043205414,0.04696274165
4.64,-0.008315201594,0.0477184882
4.65,-0.006152612784,0.04836709561
4.66,-0.003950123032,0.04890603682
4.67,-0.001713699276,0.04933311494
4.68,0.0005505789331,0.04964646978
4.69,0.002836538743,0.0498445833
4.7,0.005137933556,0.04992628395
4.71,0.007448462764,0.04989074983
4.72,0.009761791602,0.04973751077
4.73,0.01207157105,0.04946644928
4.74,0.01437145774,0.04907780031
4.75,0.01665513374,0.04857214996
4.76,0.01891632625,0.04795043304
4.77,0.02114882707,0.04721392949
4.78,0.02334651178,0.04636425973
4.79,0.02550335863,0.045403379
4.8,0.027613467,0.04433357054
4.81,0.02967107549,0.04315743783
4.82,0.03167057938,0.04187789581
4.83,0.03360654766,0.04049816112
4.84,0.03547373938,0.03902174143
4.85,0.03726711936,0.03745242393
4.86,0.03898187316,0.03579426285
4.87,0.04061342136,0.0340515663
4.88,0.04215743297,0.03222888228
4.89,0.04360983804,0.03033098403
4.9,0.04496683942,0.02836285466
4.91,0.04622492354,0.0263296712
4.92,0.04738087031,0.02423678814
4.93,0.04843176203,0.02208972042
4.94,0.04937499131,0.01989412597
4.95,0.05020826797,0.01765578791
4.96,0.05092962491,0.01538059641
4.97,0.05153742293,0.01307453028
4.98,0.05203035454,0.01074363835
4.99,0.05240744659,0.008394020737
5,0.05266806197,0.006031810009
5.01,0.05281190015,0.003663152322
5.02,0.05283899666,0.001294188622
5.03,0.05274972156,-0.001068964069
5.04,0.05254477683,-0.003420231199
5.05,0.05222519269,-0.005753599015
5.06,0.05179232296,-0.008063132607
5.07,0.05124783939,-0.01034299363
5.08,0.05059372503,-0.0125874576
5.09,0.0498322666,-0.01479093082
5.1,0.04896604601,-0.01694796671
5.11,0.04799793094,-0.01905328166
5.12,0.04693106462,-0.02110177029
5.13,0.04576885467,-0.02308852
5.14,0.04451496134,-0.02500882492
5.15,0.04317328488,-0.02685819905
5.16,0.04174795226,-0.02863238874
5.17,0.04024330324,-0.03032738424
5.18,0.03866387591,-0.03193943052
5.19,0.03701439154,-0.03346503716
5.2,0.0352997391,-0.03490098741
5.21,0.03352495921,-0.03624434624
5.22,0.03169522777,-0.03749246756
5.23,0.02981583926,-0.0386430004
5.24,0.02789218971,-0.03969389414
5.25,0.02592975952,-0.04064340281
5.26,0.02393409605,-0.0414900883
5.27,0.02191079616,-0.04223282267
5.28,0.01986548866,-0.04287078943
5.29,0.01780381679,-0.04340348376
5.3,0.01573142077,-0.04383071185
5.31,0.01365392043,-0.04415258919
5.32,0.01157689809,-0.04436953789
5.33,0.009505881588,-0.04448228305
5.34,0.007446327639,-0.04449184822
5.35,0.005403605539,-0.04439954989
5.36,0.003382981223,-0.04420699111
5.37,0.00138960178,-0.04391605423
5.38,-0.0005715195498,-0.04352889285
5.39,-0.002495517855,-0.04304792285
5.4,-0.004377690452,-0.04247581276
5.41,-0.006213510174,-0.04181547332
5.42,-0.007998638001,-0.04107004638
5.43,-0.009728935005,-0.04024289308
5.44,-0.01140047356,-0.03933758149
5.45,-0.01300954782,-0.03835787361
5.46,-0.01455268335,-0.03730771187
5.47,-0.01602664603,-0.03619120516
5.48,-0.01742845005,-0.03501261442
5.49,-0.01875536508,-0.03377633782
5.5,-0.02000492256,-0.03248689563
5.51,-0.02117492109,-0.03114891484
5.52,-0.02226343095,-0.02976711349
5.53,-0.02326879768,-0.02834628488
5.54,-0.02418964472,-0.02689128162
5.55,-0.02502487521,-0.02540699962
5.56,-0.02577367278,-0.02389836208
5.57,-0.02643550151,-0.0223703035
5.58,-0.02701010492,-0.02082775377
5.59,-0.02749750407,-0.01927562241
5.6,-0.02789799482,-0.01771878301
5.61,-0.02821214415,-0.01616205788
5.62,-0.02844078569,-0.01461020302
5.63,-0.02858501436,-0.01306789341
5.64,-0.02864618026,-0.01153970866
5.65,-0.02862588172,-0.01003011913
5.66,-0.02852595763,-0.008543472493
5.67,-0.02834847905,-0.007083980799
5.68,-0.02809574007,-0.005655708106
5.69,-0.02777024812,-0.004262558682
5.7,-0.02737471352,-0.002908265839
5.71,-0.02691203861,-0.001596381406
5.72,-0.02638530616,-0.0003302658942
5.73,-0.02579776744,0.0008869206333
5.74,-0.02515282974,0.002052226955
5.75,-0.02445404351,0.00316291833
5.76,-0.0237050891,0.004216483354
5.77,-0.02290976325,0.00521064003
5.78,-0.02207196521,0.006143341023
5.79,-0.02119568275,0.007012778101
5.8,-0.02028497786,0.00781738574
5.81,-0.01934397245,0.008555843903
5.82,-0.01837683386,0.009227079974
5.83,-0.01738776043,0.009830269861
5.84,-0.01638096701,0.01036483825
5.85,-0.01536067059,0.01083045807
5.86,-0.014331076,0.01122704904
5.87,-0.01329636182,0.01155477553
5.88,-0.01226066642,0.01181404356
5.89,-0.01122807432,0.01200549697
5.9,-0.01020260279,0.01213001291
5.91,-0.00918818883,0.01218869656
5.92,-0.008188676475,0.01218287509
5.93,-0.007207804566,0.01211409098
5.94,-0.00624919494,0.01198409464
5.95,-0.005316341116,0.01179483639
5.96,-0.004412597511,0.01154845787
5.97,-0.003541169203,0.01124728283
5.98,-0.002705102287,0.01089380741
5.99,-0.001907274836,0.0104906899
6,-0.001150388508,0.01004074006
