"Freq [GHz]","re(S(Tx_p1,Tx_p1)) []","im(S(Tx_p1,Tx_p1)) []"
1,-0.00143821238,-0.05898860552
1.01,-0.003201918908,-0.05834915613
1.02,-0.004932204339,-0.05765703894
1.03,-0.006626861425,-0.05691371879
1.04,-0.008283783592,-0.05612079017
1.05,-0.009900971405,-0.05527996822
1.06,-0.01147653838,-0.05439307961
1.07,-0.01300871616,-0.05346205322
1.08,-0.01449585908,-0.05248891079
1.09,-0.015936448,-0.05147575747
1.1,-0.01732909368,-0.05042477235
1.11,-0.01867253935,-0.04933819897
1.12,-0.0199656628,-0.04821833589
1.13,-0.02120747781,-0.04706752733
1.14,-0.02239713501,-0.04588815383
1.15,-0.02353392217,-0.04468262317
1.16,-0.0246172639,-0.04345336129
1.17,-0.02564672088,-0.04220280353
1.18,-0.02662198849,-0.04093338595
1.19,-0.02754289497,-0.03964753702
1.2,-0.02840939912,-0.03834766943
1.21,-0.0292215875,-0.03703617231
1.22,-0.02997967122,-0.03571540367
1.23,-0.03068398233,-0.03438768322
1.24,-0.03133496976,-0.03305528547
1.25,-0.03193319501,-0.03172043325
1.26,-0.03247932738,-0.03038529163
1.27,-0.03297413902,-0.02905196213
1.28,-0.03341849958,-0.02772247742
1.29,-0.03381337071,-0.02639879644
1.3,-0.03415980028,-0.02508279988
1.31,-0.03445891646,-0.02377628614
1.32,-0.03471192156,-0.02248096772
1.33,-0.03492008583,-0.02119846802
1.34,-0.03508474109,-0.01993031865
1.35,-0.0352072743,-0.01867795708
1.36,-0.0352891211,-0.01744272484
1.37,-0.03533175932,-0.01622586605
1.38,-0.03533670249,-0.01502852646
1.39,-0.03530549341,-0.01385175291
1.4,-0.03523969773,-0.01269649313
1.41,-0.03514089771,-0.01156359603
1.42,-0.03501068598,-0.01045381236
1.43,-0.03485065951,-0.009367795728
1.44,-0.03466241373,-0.008306104026
1.45,-0.03444753678,-0.00726920116
1.46,-0.03420760403,-0.00625745917
1.47,-0.03394417274,-0.00527116063
1.48,-0.03365877702,-0.004310501372
1.49,-0.03335292302,-0.003375593479
1.5,-0.03302808433,-0.002466468548
1.51,-0.03268569777,-0.001583081194
1.52,-0.03232715937,-0.000725312767
1.53,-0.03195382067,0.0001070247226
1.54,-0.03156698541,0.0009141845082
1.55,-0.0311679064,0.001696480815
1.56,-0.03075778282,0.002454284478
1.57,-0.03033775781,0.003188018449
1.58,-0.02990891638,0.003898153219
1.59,-0.02947228366,0.004585202178
1.6,-0.02902882349,0.005249716931
1.61,-0.02857943731,0.005892282599
1.62,-0.02812496339,0.00651351312
1.63,-0.02766617639,0.007114046573
1.64,-0.02720378724,0.007694540551
1.65,-0.02673844328,0.008255667596
1.66,-0.02627072875,0.008798110718
1.67,-0.02580116554,0.009322559019
1.68,-0.02533021424,0.009829703439
1.69,-0.02485827546,0.01032023263
1.7,-0.02438569134,0.01079482901
1.71,-0.02391274739,0.01125416492
1.72,-0.02343967452,0.01169889909
1.73,-0.02296665125,0.01212967312
1.74,-0.02249380617,0.01254710837
1.75,-0.02202122051,0.01295180286
1.76,-0.02154893096,0.0133443286
1.77,-0.02107693256,0.01372522897
1.78,-0.02060518176,0.01409501647
1.79,-0.02013359954,0.01445417066
1.8,-0.0196620747,0.01480313636
1.81,-0.01919046712,0.01514232211
1.82,-0.01871861121,0.01547209884
1.83,-0.01824631922,0.01579279889
1.84,-0.01777338474,0.01610471519
1.85,-0.01729958612,0.01640810073
1.86,-0.01682468985,0.01670316828
1.87,-0.01634845393,0.01699009038
1.88,-0.01587063128,0.0172689995
1.89,-0.01539097289,0.01753998849
1.9,-0.01490923111,0.01780311126
1.91,-0.01442516265,0.01805838364
1.92,-0.01393853164,0.01830578446
1.93,-0.01344911243,0.01854525685
1.94,-0.01295669235,0.01877670969
1.95,-0.01246107425,0.01900001928
1.96,-0.011962079,0.01921503113
1.97,-0.01145954765,0.01942156193
1.98,-0.01095334362,0.01961940163
1.99,-0.01044335451,0.01980831569
2,-0.009929493886,0.01998804737
2.01,-0.009411702785,0.02015832018
2.02,-0.008889951036,0.02031884037
2.03,-0.008364238393,0.02046929951
2.04,-0.007834595467,0.02060937709
2.05,-0.007301084441,0.02073874319
2.06,-0.006763799594,0.02085706114
2.07,-0.006222867611,0.02096399021
2.08,-0.005678447704,0.0210591883
2.09,-0.005130731524,0.02114231455
2.1,-0.004579942884,0.02121303197
2.11,-0.004026337291,0.02127101002
2.12,-0.003470201296,0.02131592711
2.13,-0.002911851665,0.021347473
2.14,-0.002351634377,0.02136535114
2.15,-0.001789923465,0.02136928096
2.16,-0.001227119703,0.02135899995
2.17,-0.0006636491405,0.0213342657
2.18,-9.996151703E-05,0.02129485777
2.19,0.0004634714595,0.02124057947
2.2,0.00102615794,0.02117125946
2.21,0.001587587865,0.02108675316
2.22,0.002147234984,0.02098694415
2.23,0.002704558954,0.02087174521
2.24,0.0032590075,0.02074109938
2.25,0.003810018631,0.02059498074
2.26,0.004357022893,0.02043339503
2.27,0.004899445652,0.02025638017
2.28,0.005436709396,0.02006400651
2.29,0.005968236025,0.01985637703
2.3,0.006493449148,0.01963362722
2.31,0.007011776351,0.01939592493
2.32,0.007522651426,0.01914347
2.33,0.008025516563,0.0188764937
2.34,0.008519824482,0.01859525807
2.35,0.009005040498,0.01830005512
2.36,0.009480644507,0.01799120578
2.37,0.009946132892,0.01766905885
2.38,0.01040102032,0.01733398975
2.39,0.01084484144,0.01698639916
2.4,0.0112771525,0.01662671151
2.41,0.01169753277,0.01625537348
2.42,0.01210558591,0.01587285226
2.43,0.01250094118,0.01547963385
2.44,0.01288325451,0.01507622121
2.45,0.01325220944,0.01466313238
2.46,0.0136075179,0.01424089856
2.47,0.01394892084,0.0138100621
2.48,0.01427618877,0.01337117452
2.49,0.01458912204,0.01292479447
2.5,0.01488755109,0.0124714857
2.51,0.01517133646,0.01201181503
2.52,0.01544036872,0.01154635035
2.53,0.01569456819,0.01107565859
2.54,0.01593388457,0.01060030382
2.55,0.0161582964,0.01012084528
2.56,0.01636781042,0.009637835592
2.57,0.01656246076,0.009151818916
2.58,0.01674230801,0.008663329263
2.59,0.01690743823,0.00817288886
2.6,0.01705796179,0.007681006606
2.61,0.01719401209,0.007188176628
2.62,0.01731574427,0.006694876946
2.63,0.01742333376,0.006201568243
2.64,0.0175169748,0.005708692755
2.65,0.01759687883,0.005216673284
2.66,0.01766327287,0.004725912331
2.67,0.01771639787,0.004236791367
2.68,0.01775650697,0.003749670231
2.69,0.01778386375,0.00326488666
2.7,0.01779874044,0.002782755961
2.71,0.01780141621,0.002303570815
2.72,0.01779217533,0.001827601218
2.73,0.01777130542,0.001355094557
2.74,0.01773909574,0.000886275822
2.75,0.01769583545,0.000421347942
2.76,0.01764181193,-3.950774095E-05
2.77,0.01757730921,-0.0004961308807
2.78,0.01750260633,-0.000948381413
2.79,0.01741797594,-0.001396138727
2.8,0.01732368281,-0.001839300729
2.81,0.01721998251,-0.0022777828
2.82,0.01710712022,-0.002711516656
2.83,0.0169853295,-0.003140449131
2.84,0.01685483133,-0.003564540856
2.85,0.01671583315,-0.003983764892
2.86,0.01656852801,-0.004398105274
2.87,0.01641309393,-0.004807555515
2.88,0.0162496933,-0.005212117056
2.89,0.01607847245,-0.005611797682
2.9,0.0158995613,-0.006006609908
2.91,0.01571307319,-0.006396569347
2.92,0.01551910485,-0.006781693074
2.93,0.01531773642,-0.007161997984
2.94,0.0151090317,-0.00753749917
2.95,0.01489303849,-0.007908208312
2.96,0.01466978899,-0.008274132111
2.97,0.01443930046,-0.008635270745
2.98,0.01420157591,-0.008991616394
2.99,0.0139566049,-0.009343151809
3,0.01370436451,-0.009689848954
3.01,0.01344482038,-0.01003166772
3.02,0.01317792787,-0.01036855475
3.03,0.01290363331,-0.01070044227
3.04,0.01262187531,-0.01102724716
3.05,0.01233258622,-0.01134886999
3.06,0.01203569362,-0.01166519425
3.07,0.01173112184,-0.01197608565
3.08,0.01141879362,-0.01228139162
3.09,0.01109863176,-0.01258094078
3.1,0.01077056084,-0.01287454276
3.11,0.01043450892,-0.0131619879
3.12,0.01009040934,-0.01344304733
3.13,0.009738202454,-0.01371747299
3.14,0.009377837415,-0.01398499789
3.15,0.009009273917,-0.01424533649
3.16,0.008632483944,-0.01449818519
3.17,0.008247453471,-0.014743223
3.18,0.007854184135,-0.01498011228
3.19,0.007452694855,-0.01520849965
3.2,0.007043023394,-0.01542801707
3.21,0.00662522785,-0.0156382829
3.22,0.006199388079,-0.01583890327
3.23,0.005765607021,-0.0160294734
3.24,0.005324011947,-0.01620957912
3.25,0.004874755592,-0.01637879845
3.26,0.004418017186,-0.01653670326
3.27,0.003954003373,-0.0166828611
3.28,0.003482949,-0.016816837
3.29,0.00300511779,-0.01693819538
3.3,0.002520802869,-0.01704650208
3.31,0.002030327171,-0.0171413263
3.32,0.001534043691,-0.01722224278
3.33,0.001032335601,-0.01728883381
3.34,0.0005256162149,-0.01734069138
3.35,1.432881103E-05,-0.01737741933
3.36,-0.0005010537019,-0.01739863549
3.37,-0.001020029262,-0.01740397378
3.38,-0.001542067286,-0.01739308633
3.39,-0.002066609443,-0.01736564556
3.4,-0.002593070584,-0.01732134622
3.41,-0.003120839804,-0.01725990739
3.42,-0.003649281658,-0.01718107436
3.43,-0.004177737504,-0.01708462055
3.44,-0.004705526984,-0.01697034924
3.45,-0.005231949628,-0.01683809529
3.46,-0.005756286588,-0.01668772671
3.47,-0.006277802477,-0.01651914615
3.48,-0.006795747324,-0.01633229229
3.49,-0.007309358627,-0.01612714106
3.5,-0.007817863498,-0.01590370677
3.51,-0.008320480894,-0.01566204311
3.52,-0.008816423924,-0.01540224399
3.53,-0.009304902218,-0.0151244442
3.54,-0.009785124356,-0.01482882003
3.55,-0.01025630034,-0.01451558958
3.56,-0.01071764412,-0.01418501305
3.57,-0.01116837609,-0.01383739278
3.58,-0.01160772569,-0.01347307318
3.59,-0.01203493391,-0.01309244045
3.6,-0.01244925588,-0.01269592219
3.61,-0.01284996338,-0.01228398679
3.62,-0.01323634731,-0.01185714267
3.63,-0.01360772022,-0.01141593741
3.64,-0.01396341864,-0.01096095665
3.65,-0.01430280551,-0.01049282285
3.66,-0.01462527237,-0.01001219396
3.67,-0.01493024164,-0.009519761836
3.68,-0.01521716866,-0.009016250622
3.69,-0.01548554373,-0.008502414905
3.7,-0.015734894,-0.007979037796
3.71,-0.01596478522,-0.00744692887
3.72,-0.01617482342,-0.006906921987
3.73,-0.01636465643,-0.006359873015
3.74,-0.01653397521,-0.005806657445
3.75,-0.01668251513,-0.005248167924
3.76,-0.016810057,-0.004685311703
3.77,-0.01691642804,-0.00411900802
3.78,-0.01700150255,-0.00355018542
3.79,-0.01706520258,-0.002979779026
3.8,-0.0171074983,-0.002408727776
3.81,-0.01712840824,-0.001837971627
3.82,-0.01712799938,-0.001268448747
3.83,-0.01710638703,-0.0007010927056
3.84,-0.01706373455,-0.0001368296602
3.85,-0.01700025291,0.0004234244264
3.86,-0.01691620001,0.0009787665471
3.87,-0.01681187994,0.001528309369
3.88,-0.01668764197,0.0020711839
3.89,-0.01654387944,0.002606542092
3.9,-0.01638102842,0.003133559373
3.91,-0.01619956631,0.003651437095
3.92,-0.0160000102,0.004159404888
3.93,-0.01578291513,0.004656722908
3.94,-0.01554887221,0.005142683981
3.95,-0.01529850658,0.005616615617
3.96,-0.01503247532,0.0060778819
3.97,-0.01475146515,0.006525885242
3.98,-0.01445619009,0.006960067985
3.99,-0.014147389,0.007379913864
4,-0.01382582305,0.007784949305
4.01,-0.01349227312,0.008174744566
4.02,-0.01314753708,0.008548914706
4.03,-0.0127924271,0.008907120393
4.04,-0.01242776685,0.009249068529
4.05,-0.0120543887,0.009574512709
4.06,-0.01167313088,0.009883253491
4.07,-0.01128483468,0.0101751385
4.08,-0.01089034158,0.01045006234
4.09,-0.01049049044,0.01070796636
4.1,-0.0100861147,0.01094883818
4.11,-0.009678039655,0.0111727111
4.12,-0.009267079708,0.01137966335
4.13,-0.008854035738,0.01156981708
4.14,-0.008439692518,0.01174333731
4.15,-0.008024816215,0.0119004306
4.16,-0.007610151978,0.01204134367
4.17,-0.007196421633,0.01216636181
4.18,-0.006784321476,0.01227580715
4.19,-0.006374520195,0.01237003684
4.2,-0.005967656913,0.01244944108
4.21,-0.005564339361,0.012514441
4.22,-0.005165142201,0.0125654865
4.23,-0.00477060549,0.01260305393
4.24,-0.004381233299,0.01262764374
4.25,-0.00399749249,0.01263977798
4.26,-0.00361981166,0.0126399978
4.27,-0.003248580247,0.01262886088
4.28,-0.002884147811,0.01260693874
4.29,-0.002526823485,0.01257481415
4.3,-0.002176875601,0.0125330784
4.31,-0.001834531493,0.01248232859
4.32,-0.001499977473,0.01242316498
4.33,-0.001173358987,0.01235618824
4.34,-0.0008547809385,0.01228199684
4.35,-0.0005443081906,0.01220118437
4.36,-0.0002419662318,0.01211433697
4.37,5.225798844E-05,0.01202203082
4.38,0.0003384150645,0.01192482964
4.39,0.0006165919819,0.0118232823
4.4,0.0008869108132,0.01171792056
4.41,0.001149527269,0.01160925679
4.42,0.001404629109,0.01149778194
4.43,0.001652434425,0.01138396352
4.44,0.001893189795,0.0112682437
4.45,0.00212716833,0.01115103763
4.46,0.002354667605,0.01103273182
4.47,0.002576007502,0.01091368267
4.48,0.00279152796,0.01079421516
4.49,0.003001586652,0.01067462173
4.5,0.003206556587,0.01055516124
4.51,0.003406823666,0.01043605818
4.52,0.003602784188,0.01031750198
4.53,0.003794842315,0.01019964652
4.54,0.003983407529,0.01008260981
4.55,0.004168892056,0.009966473821
4.56,0.004351708311,0.009851284511
4.57,0.004532266335,0.009737052015
4.58,0.004710971265,0.009623750995
4.59,0.00488822083,0.009511321172
4.6,0.005064402893,0.009399668013
4.61,0.005239893049,0.009288663587
4.62,0.00541505228,0.009178147574
4.63,0.005590224694,0.00906792843
4.64,0.005765735345,0.008957784704
4.65,0.00594188814,0.008847466489
4.66,0.00611896386,0.008736697011
4.67,0.006297218286,0.008625174357
4.68,0.006476880445,0.008512573307
4.69,0.006658150984,0.008398547289
4.7,0.006841200679,0.008282730442
4.71,0.007026169084,0.008164739762
4.72,0.007213163324,0.008044177345
4.73,0.007402257046,0.007920632697
4.74,0.007593489518,0.00779368512
4.75,0.007786864893,0.007662906144
4.76,0.007982351639,0.00752786201
4.77,0.008179882127,0.007388116185
4.78,0.008379352393,0.007243231899
4.79,0.008580622068,0.007092774698
4.8,0.008783514476,0.006936314995
4.81,0.008987816898,0.006773430617
4.82,0.00919328101,0.006603709322
4.83,0.009399623484,0.006426751291
4.84,0.009606526751,0.006242171581
4.85,0.009813639927,0.006049602518
4.86,0.01002057989,0.005848696034
4.87,0.01022693254,0.005639125921
4.88,0.01043225413,0.00542059002
4.89,0.01063607284,0.005192812296
4.9,0.01083789041,0.004955544833
4.91,0.01103718394,0.004708569706
4.92,0.01123340778,0.004451700742
4.93,0.01142599558,0.004184785154
4.94,0.01161436239,0.003907705041
4.95,0.0117979069,0.003620378756
4.96,0.01197601376,0.003322762126
4.97,0.01214805593,0.00301484952
4.98,0.0123133972,0.002696674764
4.99,0.01247139464,0.002368311905
5,0.01262140122,0.002029875803
5.01,0.01276276836,0.001681522565
5.02,0.0128948486,0.00132344981
5.03,0.01301699824,0.0009558967689
5.04,0.01312857996,0.0005791442141
5.05,0.01322896549,0.000193514222
5.06,0.01331753823,-0.0002006302329
5.07,0.01339369587,-0.0006028858494
5.08,0.01345685291,-0.001012809735
5.09,0.01350644326,-0.001429920304
5.1,0.0135419226,-0.00185369833
5.11,0.01356277086,-0.002283588157
5.12,0.0135684945,-0.002718999056
5.13,0.01355862872,-0.00315930673
5.14,0.01353273966,-0.003603854951
5.15,0.01349042637,-0.004051957335
5.16,0.01343132276,-0.004502899238
5.17,0.01335509941,-0.004955939774
5.18,0.01326146523,-0.005410313942
5.19,0.01315016903,-0.005865234847
5.2,0.01302100089,-0.006319896029
5.21,0.01287379344,-0.006773473865
5.22,0.01270842301,-0.007225130049
5.23,0.01252481051,-0.007674014138
5.24,0.01232292231,-0.008119266158
5.25,0.01210277084,-0.008560019249
5.26,0.01186441509,-0.008995402347
5.27,0.01160796093,-0.0094245429
5.28,0.01133356123,-0.009846569587
5.29,0.01104141589,-0.01026061505
5.3,0.01073177165,-0.01066581863
5.31,0.01040492172,-0.01106132905
5.32,0.0100612053,-0.01144630714
5.33,0.009701006929,-0.01181992843
5.34,0.009324755612,-0.01218138581
5.35,0.008932923885,-0.01252989204
5.36,0.008526026666,-0.01286468228
5.37,0.008104619985,-0.01318501642
5.38,0.00766929956,-0.0134901815
5.39,0.007220699254,-0.01377949389
5.4,0.006759489384,-0.01405230144
5.41,0.006286374921,-0.01430798555
5.42,0.005802093568,-0.01454596303
5.43,0.00530741373,-0.01476568795
5.44,0.004803132383,-0.01496665331
5.45,0.004290072853,-0.01514839256
5.46,0.003769082509,-0.01531048103
5.47,0.003241030377,-0.01545253717
5.48,0.002706804696,-0.01557422372
5.49,0.002167310408,-0.01567524863
5.5,0.001623466606,-0.0157553659
5.51,0.001076203943,-0.01581437627
5.52,0.000526462005,-0.01585212769
5.53,-2.481332356E-05,-0.01586851571
5.54,-0.0005766725139,-0.01586348367
5.55,-0.001128165042,-0.01583702273
5.56,-0.001678342032,-0.01578917178
5.57,-0.002226258873,-0.01572001716
5.58,-0.00277097782,-0.01562969223
5.59,-0.003311570546,-0.01551837682
5.6,-0.003847120656,-0.01538629653
5.61,-0.00437672614,-0.0152337218
5.62,-0.004899501767,-0.01506096701
5.63,-0.005414581407,-0.01486838927
5.64,-0.005921120273,-0.01465638721
5.65,-0.006418297078,-0.01442539955
5.66,-0.006905316095,-0.01417590364
5.67,-0.007381409124,-0.01390841382
5.68,-0.007845837347,-0.01362347972
5.69,-0.008297893069,-0.01332168443
5.7,-0.008736901354,-0.01300364258
5.71,-0.009162221524,-0.01266999841
5.72,-0.009573248547,-0.01232142364
5.73,-0.009969414279,-0.01195861539
5.74,-0.01035018859,-0.01158229396
5.75,-0.01071508035,-0.01119320062
5.76,-0.01106363826,-0.01079209533
5.77,-0.01139545157,-0.01037975439
5.78,-0.01171015066,-0.009956968184
5.79,-0.01200740744,-0.009524538764
5.8,-0.01228693564,-0.009083277525
5.81,-0.01254849099,-0.008634002851
5.82,-0.01279187118,-0.008177537768
5.83,-0.01301691578,-0.007714707627
5.84,-0.01322350594,-0.007246337803
5.85,-0.01341156403,-0.006773251441
5.86,-0.01358105308,-0.00629626723
5.87,-0.01373197617,-0.005816197243
5.88,-0.01386437564,-0.005333844823
5.89,-0.0139783322,-0.004850002538
5.9,-0.01407396397,-0.004365450207
5.91,-0.01415142533,-0.003880953002
5.92,-0.01421090575,-0.003397259632
5.93,-0.01425262849,-0.002915100618
5.94,-0.01427684918,-0.002435186661
5.95,-0.01428385442,-0.001958207104
5.96,-0.01427396016,-0.001484828502
5.97,-0.01424751014,-0.001015693292
5.98,-0.01420487421,-0.0005514185806
5.99,-0.01414644658,-9.259503137E-05
6,-0.01407264406,0.0003602141225
