"Freq [GHz]","re(S(Tx_p1,Tx_p1)) []","im(S(Tx_p1,Tx_p1)) []"
1,0.04937355823,-0.1068106886
1.01,0.04668543754,-0.106604893
1.02,0.04402799826,-0.1063444955
1.03,0.04140357102,-0.1060300759
1.04,0.03881443632,-0.1056624313
1.05,0.03626281065,-0.1052425665
1.06,0.0337508334,-0.1047716837
1.07,0.03128055462,-0.1042511717
1.08,0.02885392358,-0.1036825953
1.09,0.02647277814,-0.1030676834
1.1,0.02413883498,-0.1024083179
1.11,0.02185368062,-0.1017065216
1.12,0.01961876332,-0.100964446
1.13,0.01743538578,-0.1001843589
1.14,0.01530469866,-0.09936863209
1.15,0.01322769498,-0.09851972829
1.16,0.01120520529,-0.0976401888
1.17,0.009237893743,-0.09673262041
1.18,0.007326254894,-0.09579968261
1.19,0.005470611395,-0.09484407473
1.2,0.003671112456,-0.09386852318
1.21,0.001927733114,-0.09287576867
1.22,0.0002402742835,-0.0918685537
1.23,-0.001391636414,-0.09084961011
1.24,-0.002968543072,-0.08982164686
1.25,-0.00449115917,-0.08878733806
1.26,-0.005960364534,-0.08774931128
1.27,-0.007377201585,-0.08671013613
1.28,-0.00874287091,-0.08567231327
1.29,-0.01005872619,-0.08463826369
1.3,-0.01132626846,-0.08361031848
1.31,-0.01254713984,-0.08259070906
1.32,-0.01372311659,-0.08158155777
1.33,-0.01485610174,-0.08058486914
1.34,-0.01594811707,-0.0796025215
1.35,-0.01700129478,-0.0786362593
1.36,-0.01801786856,-0.07768768593
1.37,-0.01900016435,-0.07675825717
1.38,-0.0199505907,-0.07584927521
1.39,-0.02087162881,-0.07496188341
1.4,-0.02176582226,-0.07409706162
1.41,-0.02263576653,-0.0732556222
1.42,-0.02348409825,-0.07243820672
1.43,-0.02431348436,-0.07164528337
1.44,-0.02512661104,-0.07087714501
1.45,-0.02592617267,-0.07013390794
1.46,-0.02671486065,-0.06941551142
1.47,-0.0274953523,-0.0687217178
1.48,-0.02827029972,-0.06805211337
1.49,-0.0290423188,-0.06740610997
1.5,-0.02981397832,-0.06678294717
1.51,-0.03058778919,-0.06618169519
1.52,-0.03136619398,-0.06560125844
1.53,-0.03215155658,-0.06504037975
1.54,-0.03294615218,-0.06449764515
1.55,-0.03375215762,-0.06397148932
1.56,-0.034571642,-0.06346020158
1.57,-0.03540655772,-0.06296193247
1.58,-0.03625873194,-0.06247470083
1.59,-0.03712985843,-0.06199640145
1.6,-0.03802148997,-0.06152481308
1.61,-0.03893503119,-0.06105760705
1.62,-0.03987173196,-0.06059235615
1.63,-0.04083268128,-0.06012654401
1.64,-0.04181880182,-0.05965757477
1.65,-0.042830845,-0.0591827831
1.66,-0.0438693866,-0.05869944447
1.67,-0.04493482314,-0.05820478566
1.68,-0.04602736875,-0.05769599555
1.69,-0.04714705274,-0.05717023598
1.7,-0.04829371782,-0.05662465279
1.71,-0.04946701895,-0.05605638697
1.72,-0.05066642283,-0.05546258587
1.73,-0.05189120809,-0.05484041432
1.74,-0.05314046611,-0.05418706592
1.75,-0.05441310248,-0.05349977409
1.76,-0.05570783912,-0.05277582313
1.77,-0.05702321704,-0.05201255912
1.78,-0.05835759973,-0.05120740064
1.79,-0.05970917713,-0.05035784929
1.8,-0.06107597027,-0.04946149999
1.81,-0.06245583646,-0.04851605097
1.82,-0.06384647503,-0.04751931352
1.83,-0.06524543369,-0.04646922128
1.84,-0.06665011533,-0.04536383931
1.85,-0.06805778541,-0.04420137268
1.86,-0.06946557983,-0.0429801746
1.87,-0.07087051316,-0.04169875418
1.88,-0.07226948748,-0.04035578368
1.89,-0.07365930143,-0.03895010523
1.9,-0.07503665981,-0.03748073706
1.91,-0.07639818343,-0.03594687918
1.92,-0.07774041924,-0.0343479185
1.93,-0.0790598509,-0.03268343334
1.94,-0.08035290942,-0.03095319741
1.95,-0.08161598412,-0.0291571831
1.96,-0.08284543375,-0.02729556426
1.97,-0.08403759777,-0.02536871823
1.98,-0.08518880769,-0.02337722733
1.99,-0.08629539852,-0.02132187969
2,-0.08735372031,-0.01920366937
2.01,-0.08836014958,-0.01702379596
2.02,-0.08931110082,-0.01478366343
2.03,-0.09020303784,-0.0124848784
2.04,-0.09103248509,-0.01012924772
2.05,-0.09179603878,-0.007718775489
2.06,-0.09249037785,-0.005255659429
2.07,-0.09311227474,-0.002742286614
2.08,-0.09365860587,-0.0001812286545
2.09,-0.09412636188,0.002424763724
2.1,-0.0945126576,0.005072766661
2.11,-0.09481474154,0.007759689681
2.12,-0.0950300052,0.01048228275
2.13,-0.09515599181,0.01323714384
2.14,-0.09519040472,0.01602072693
2.15,-0.09513111537,0.01882935053
2.16,-0.0949761707,0.02165920658
2.17,-0.09472380008,0.02450636976
2.18,-0.09437242179,0.02736680721
2.19,-0.09392064885,0.03023638852
2.2,-0.09336729437,0.0331108961
2.21,-0.09271137623,0.03598603576
2.22,-0.09195212132,0.03885744761
2.23,-0.09108896899,0.04172071711
2.24,-0.09012157406,0.04457138631
2.25,-0.08904980903,0.04740496523
2.26,-0.08787376586,0.05021694336
2.27,-0.08659375694,0.0530028012
2.28,-0.08521031551,0.05575802188
2.29,-0.08372419546,0.05847810269
2.3,-0.08213637044,0.0611585667
2.31,-0.08044803236,0.06379497413
2.32,-0.07866058933,0.06638293382
2.33,-0.07677566289,0.06891811437
2.34,-0.07479508466,0.07139625519
2.35,-0.07272089249,0.07381317734
2.36,-0.07055532589,0.0761647941
2.37,-0.06830082101,0.07844712127
2.38,-0.065960005,0.08065628717
2.39,-0.06353568992,0.08278854227
2.4,-0.0610308661,0.08484026854
2.41,-0.05844869499,0.08680798831
2.42,-0.05579250163,0.08868837276
2.43,-0.05306576665,0.09047824996
2.44,-0.05027211783,0.09217461251
2.45,-0.04741532134,0.09377462454
2.46,-0.04449927263,0.09527562842
2.47,-0.04152798693,0.09667515074
2.48,-0.03850558955,0.09797090791
2.49,-0.03543630589,0.09916081117
2.5,-0.0323244512,0.100242971
2.51,-0.02917442018,0.1012157009
2.52,-0.02599067639,0.102077521
2.53,-0.02277774159,0.1028271603
2.54,-0.01954018494,0.1034635592
2.55,-0.0162826121,0.1039858707
2.56,-0.01300965442,0.1043934618
2.57,-0.009725958013,0.1046859133
2.58,-0.006436172958,0.10486302
2.59,-0.003144942508,0.1049247897
2.6,0.0001431075638,0.1048714419
2.61,0.003423379492,0.1047034058
2.62,0.00669131389,0.1044213178
2.63,0.009942399921,0.1040260187
2.64,0.01317218525,0.1035185497
2.65,0.01637628576,0.102900149
2.66,0.01955039493,0.1021722463
2.67,0.02269029305,0.1013364589
2.68,0.0257918559,0.1003945852
2.69,0.02885106332,0.09934859953
2.7,0.03186400719,0.0982006453
2.71,0.03482689916,0.09695302861
2.72,0.03773607792,0.09560821103
2.73,0.04058801606,0.09416880222
2.74,0.04337932642,0.09263755217
2.75,0.04610676808,0.09101734322
2.76,0.04876725184,0.08931118176
2.77,0.05135784516,0.0875221897
2.78,0.05387577668,0.08565359584
2.79,0.05631844022,0.08370872688
2.8,0.05868339828,0.08169099849
2.81,0.06096838498,0.07960390612
2.82,0.06317130857,0.07745101577
2.83,0.06529025335,0.07523595475
2.84,0.0673234811,0.0729624023
2.85,0.06926943205,0.07063408037
2.86,0.07112672523,0.06825474428
2.87,0.07289415845,0.06582817353
2.88,0.07457070767,0.06335816265
2.89,0.07615552596,0.06084851222
2.9,0.07764794197,0.05830301997
2.91,0.07904745786,0.05572547207
2.92,0.08035374693,0.05311963462
2.93,0.08156665066,0.05048924537
2.94,0.08268617541,0.04783800562
2.95,0.08371248873,0.04516957244
2.96,0.0846459152,0.04248755114
2.97,0.08548693203,0.03979548807
2.98,0.08623616418,0.03709686367
2.99,0.08689437925,0.03439508598
3,0.08746248203,0.03169348434
3.01,0.08794150878,0.02899530361
3.02,0.08833262124,0.02630369866
3.03,0.08863710045,0.02362172928
3.04,0.08885634029,0.02095235557
3.05,0.08899184088,0.01829843355
3.06,0.08904520187,0.0156627114
3.07,0.08901811548,0.01304782597
3.08,0.08891235957,0.01045629976
3.09,0.08872979051,0.007890538349
3.1,0.08847233607,0.005352828188
3.11,0.08814198827,0.002845334886
3.12,0.08774079616,0.0003701018664
3.13,0.08727085873,-0.002070950536
3.14,0.08673431777,-0.004476025574
3.15,0.08613335084,-0.006843450182
3.16,0.08547016432,-0.009171674673
3.17,0.08474698656,-0.01145927205
3.18,0.08396606122,-0.01370493693
3.19,0.08312964065,-0.01590748413
3.2,0.08223997959,-0.01806584689
3.21,0.08129932893,-0.02017907473
3.22,0.08030992976,-0.02224633104
3.23,0.07927400765,-0.02426689033
3.24,0.07819376709,-0.02624013519
3.25,0.07707138628,-0.028165553
3.26,0.07590901217,-0.03004273238
3.27,0.07470875571,-0.03187135938
3.28,0.0734726875,-0.03365121351
3.29,0.07220283363,-0.03538216355
3.3,0.07090117196,-0.03706416314
3.31,0.06956962857,-0.03869724632
3.32,0.06821007463,-0.04028152283
3.33,0.06682432358,-0.04181717339
3.34,0.06541412861,-0.04330444481
3.35,0.06398118047,-0.04474364511
3.36,0.06252710564,-0.04613513852
3.37,0.06105346482,-0.0474793405
3.38,0.05956175169,-0.04877671273
3.39,0.05805339208,-0.05002775811
3.4,0.0565297434,-0.05123301583
3.41,0.05499209438,-0.05239305642
3.42,0.05344166514,-0.05350847694
3.43,0.05187960754,-0.05457989622
3.44,0.05030700584,-0.05560795018
3.45,0.04872487758,-0.05659328734
3.46,0.04713417477,-0.05753656442
3.47,0.04553578535,-0.05843844206
3.48,0.04393053487,-0.05929958078
3.49,0.04231918836,-0.06012063705
3.5,0.04070245248,-0.06090225959
3.51,0.03908097782,-0.06164508585
3.52,0.03745536143,-0.0623497387
3.53,0.03582614947,-0.06301682335
3.54,0.03419384006,-0.0636469245
3.55,0.03255888622,-0.0642406037
3.56,0.03092169897,-0.06479839697
3.57,0.0292826505,-0.06532081264
3.58,0.02764207747,-0.0658083295
3.59,0.02600028434,-0.06626139511
3.6,0.02435754677,-0.06668042442
3.61,0.02271411503,-0.06706579863
3.62,0.02107021751,-0.0674178643
3.63,0.01942606411,-0.06773693271
3.64,0.01778184974,-0.06802327945
3.65,0.01613775768,-0.06827714427
3.66,0.01449396298,-0.06849873117
3.67,0.0128506358,-0.06868820868
3.68,0.01120794456,-0.06884571045
3.69,0.009566059169,-0.06897133595
3.7,0.007925154045,-0.06906515148
3.71,0.006285411037,-0.06912719126
3.72,0.004647022244,-0.06915745888
3.73,0.003010192689,-0.06915592872
3.74,0.00137514284,-0.06912254772
3.75,-0.0002578890165,-0.06905723719
3.76,-0.001888644574,-0.06895989482
3.77,-0.003516843471,-0.06883039679
3.78,-0.005142181435,-0.06866860001
3.79,-0.006764328614,-0.06847434447
3.8,-0.008382928093,-0.06824745564
3.81,-0.009997594609,-0.06798774701
3.82,-0.01160791345,-0.06769502263
3.83,-0.01321343958,-0.06736907972
3.84,-0.0148136969,-0.06700971135
3.85,-0.01640817778,-0.06661670905
3.86,-0.01799634277,-0.06618986553
3.87,-0.01957762043,-0.06572897728
3.88,-0.02115140747,-0.06523384726
3.89,-0.022717069,-0.06470428749
3.9,-0.02427393896,-0.06414012157
3.91,-0.02582132079,-0.06354118721
3.92,-0.02735848816,-0.06290733864
3.93,-0.02888468602,-0.06223844894
3.94,-0.03039913163,-0.06153441229
3.95,-0.03190101588,-0.06079514615
3.96,-0.03338950468,-0.06002059321
3.97,-0.03486374044,-0.05921072339
3.98,-0.03632284378,-0.05836553558
3.99,-0.03776591524,-0.05748505928
4,-0.03919203713,-0.05656935615
4.01,-0.04060027548,-0.05561852135
4.02,-0.04198968202,-0.05463268477
4.03,-0.04335929626,-0.0536120121
4.04,-0.0447081476,-0.05255670572
4.05,-0.0460352575,-0.0514670055
4.06,-0.0473396416,-0.05034318936
4.07,-0.04862031199,-0.04918557375
4.08,-0.04987627937,-0.04799451392
4.09,-0.05110655522,-0.04677040407
4.1,-0.05231015399,-0.04551367735
4.11,-0.05348609524,-0.0442248057
4.12,-0.05463340575,-0.04290429955
4.13,-0.05575112152,-0.04155270741
4.14,-0.05683828982,-0.04017061526
4.15,-0.05789397107,-0.03875864594
4.16,-0.05891724069,-0.03731745829
4.17,-0.05990719091,-0.03584774626
4.18,-0.06086293237,-0.0343502379
4.19,-0.06178359574,-0.03282569424
4.2,-0.06266833321,-0.03127490813
4.21,-0.0635163198,-0.02969870296
4.22,-0.06432675468,-0.02809793131
4.23,-0.06509886226,-0.02647347362
4.24,-0.06583189325,-0.0248262367
4.25,-0.06652512556,-0.02315715228
4.26,-0.06717786511,-0.02146717556
4.27,-0.06778944644,-0.01975728362
4.28,-0.06835923334,-0.01802847396
4.29,-0.06888661922,-0.01628176298
4.3,-0.06937102749,-0.01451818443
4.31,-0.06981191171,-0.012738788
4.32,-0.07020875573,-0.0109446378
4.33,-0.07056107368,-0.009136810975
4.34,-0.07086840983,-0.007316396349
4.35,-0.07113033845,-0.005484493085
4.36,-0.07134646348,-0.003642209449
4.37,-0.07151641816,-0.001790661619
4.38,-0.07163986461,6.902741791E-05
4.39,-0.0717164933,0.001935728903
4.4,-0.07174602249,0.003808309247
4.41,-0.0717281976,0.005685630885
4.42,-0.07166279053,0.007566553041
4.43,-0.071549599,0.009449932395
4.44,-0.07138844577,0.01133462365
4.45,-0.07117917793,0.01321948001
4.46,-0.07092166618,0.01510335352
4.47,-0.07061580401,0.01698509537
4.48,-0.07026150702,0.01886355605
4.49,-0.06985871219,0.02073758541
4.5,-0.06940737721,0.02260603263
4.51,-0.06890747981,0.02446774611
4.52,-0.06835901718,0.02632157324
4.53,-0.06776200543,0.02816636014
4.54,-0.0671164791,0.03000095123
4.55,-0.06642249079,0.03182418879
4.56,-0.06568011081,0.03363491246
4.57,-0.06488942695,0.03543195863
4.58,-0.06405054434,0.03721415979
4.59,-0.06316358544,0.03898034384
4.6,-0.06222869006,0.04072933338
4.61,-0.06124601555,0.04245994493
4.62,-0.06021573713,0.04417098818
4.63,-0.05913804825,0.04586126514
4.64,-0.05801316114,0.04752956942
4.65,-0.05684130747,0.0491746854
4.66,-0.05562273913,0.05079538748
4.67,-0.05435772911,0.05239043939
4.68,-0.05304657257,0.05395859344
4.69,-0.05168958796,0.05549858996
4.7,-0.05028711829,0.05700915666
4.71,-0.04883953257,0.05848900823
4.72,-0.04734722724,0.05993684587
4.73,-0.04581062786,0.06135135701
4.74,-0.0442301908,0.06273121515
4.75,-0.04260640504,0.06407507973
4.76,-0.04093979412,0.06538159625
4.77,-0.03923091811,0.06664939645
4.78,-0.03748037568,0.06787709863
4.79,-0.03568880625,0.06906330821
4.8,-0.03385689214,0.07020661836
4.81,-0.03198536083,0.07130561088
4.82,-0.03007498721,0.0723588572
4.83,-0.02812659587,0.07336491964
4.84,-0.02614106333,0.07432235275
4.85,-0.02411932039,0.075229705
4.86,-0.02206235435,0.07608552052
4.87,-0.01997121118,0.07688834112
4.88,-0.01784699777,0.07763670852
4.89,-0.01569088395,0.07832916676
4.9,-0.01350410456,0.07896426479
4.91,-0.01128796132,0.07954055934
4.92,-0.009043824664,0.0800566179
4.93,-0.006773135383,0.08051102196
4.94,-0.004477406182,0.0809023704
4.95,-0.002158223026,0.0812292831
4.96,0.0001827536624,0.08149040469
4.97,0.002543788006,0.08168440851
4.98,0.004923067879,0.08181000067
4.99,0.007318704332,0.08186592435
5,0.009728731249,0.0818509641
5.01,0.01215110525,0.08176395044
5.02,0.01458370587,0.08160376442
5.03,0.01702433597,0.08136934231
5.04,0.01947072243,0.08105968046
5.05,0.02192051723,0.0806738401
5.06,0.02437129864,0.08021095226
5.07,0.02682057292,0.0796702227
5.08,0.02926577618,0.07905093682
5.09,0.03170427664,0.07835246464
5.1,0.03413337717,0.07757426564
5.11,0.03655031819,0.07671589363
5.12,0.03895228087,0.07577700153
5.13,0.04133639065,0.07475734604
5.14,0.04369972113,0.07365679218
5.15,0.0460392982,0.07247531777
5.16,0.04835210459,0.07121301767
5.17,0.05063508465,0.06987010785
5.18,0.05288514948,0.06844692934
5.19,0.05509918234,0.06694395183
5.2,0.05727404435,0.06536177714
5.21,0.0594065805,0.06370114239
5.22,0.06149362585,0.06196292283
5.23,0.06353201204,0.06014813448
5.24,0.06551857406,0.05825793633
5.25,0.06745015713,0.05629363229
5.26,0.06932362393,0.05425667276
5.27,0.07113586185,0.05214865578
5.28,0.07288379058,0.04997132787
5.29,0.07456436965,0.04772658442
5.3,0.07617460629,0.04541646968
5.31,0.07771156317,0.04304317634
5.32,0.07917236643,0.04060904462
5.33,0.08055421358,0.03811656102
5.34,0.08185438153,0.03556835649
5.35,0.08307023456,0.03296720427
5.36,0.0841992323,0.03031601719
5.37,0.0852389376,0.02761784451
5.38,0.08618702436,0.02487586834
5.39,0.08704128525,0.02209339958
5.4,0.08779963922,0.01927387337
5.41,0.08846013893,0.0164208441
5.42,0.08902097793,0.01353798001
5.43,0.08948049762,0.0106290573
5.44,0.08983719397,0.007697953793
5.45,0.09008972396,0.00474864223
5.46,0.0902369117,0.001785183119
5.47,0.09027775421,-0.001188282805
5.48,0.0902114269,-0.004167542501
5.49,0.09003728858,-0.007148318902
5.5,0.08975488612,-0.01012627954
5.51,0.0893639587,-0.01309704549
5.52,0.08886444154,-0.01605620061
5.53,0.08825646922,-0.01899930109
5.54,0.08754037846,-0.02192188521
5.55,0.08671671048,-0.02481948331
5.56,0.08578621269,-0.02768762804
5.57,0.08474983998,-0.0305218647
5.58,0.08360875542,-0.03331776174
5.59,0.0823643303,-0.0360709214
5.6,0.08101814376,-0.03877699037
5.61,0.07957198169,-0.04143167054
5.62,0.07802783513,-0.04403072977
5.63,0.07638789804,-0.04657001258
5.64,0.07465456448,-0.04904545085
5.65,0.07283042522,-0.05145307439
5.66,0.0709182637,-0.05378902141
5.67,0.06892105147,-0.0560495488
5.68,0.06684194297,-0.05823104227
5.69,0.06468426982,-0.06033002619
5.7,0.06245153443,-0.06234317324
5.71,0.06014740318,-0.0642673137
5.72,0.05777569897,-0.06609944448
5.73,0.05534039329,-0.06783673774
5.74,0.05284559772,-0.06947654911
5.75,0.05029555506,-0.07101642554
5.76,0.04769462985,-0.07245411264
5.77,0.04504729858,-0.07378756157
5.78,0.04235813937,-0.07501493541
5.79,0.03963182136,-0.07613461501
5.8,0.03687309367,-0.07714520423
5.81,0.03408677406,-0.0780455347
5.82,0.03127773727,-0.07883466982
5.83,0.02845090314,-0.07951190833
5.84,0.02561122441,-0.08007678705
5.85,0.02276367448,-0.08052908308
5.86,0.01991323481,-0.08086881532
5.87,0.01706488237,-0.08109624526
5.88,0.01422357692,-0.08121187708
5.89,0.01139424829,-0.08121645715
5.9,0.008581783592,-0.08111097268
5.91,0.005791014565,-0.08089664978
5.92,0.003026704906,-0.08057495074
5.93,0.0002935377782,-0.08014757068
5.94,-0.002403896548,-0.07961643341
5.95,-0.005061112848,-0.07898368668
5.96,-0.00767374286,-0.07825169669
5.97,-0.01023754692,-0.07742304197
5.98,-0.01274842528,-0.07650050658
5.99,-0.01520242906,-0.07548707266
6,-0.01759577085,-0.07438591238
