"Freq [GHz]","re(S(Tx_p1,Tx_p1)) []","im(S(Tx_p1,Tx_p1)) []"
1,-0.01128081568,-0.03913343793
1.01,-0.01249447215,-0.03830865582
1.02,-0.01366665563,-0.03744587432
1.03,-0.01479581381,-0.03654714683
1.04,-0.01588052452,-0.03561460806
1.05,-0.01691949912,-0.03465046432
1.06,-0.01791158521,-0.03365698385
1.07,-0.01885576872,-0.03263648716
1.08,-0.01975117539,-0.03159133738
1.09,-0.02059707156,-0.03052393075
1.1,-0.02139286447,-0.02943668718
1.11,-0.0221381019,-0.028332041
1.12,-0.0228324712,-0.02721243185
1.13,-0.02347579789,-0.02608029582
1.14,-0.02406804364,-0.02493805679
1.15,-0.02460930373,-0.02378811809
1.16,-0.02509980411,-0.02263285443
1.17,-0.02553989792,-0.02147460409
1.18,-0.02593006163,-0.02031566158
1.19,-0.02627089071,-0.01915827052
1.2,-0.026563095,-0.01800461703
1.21,-0.0268074937,-0.01685682341
1.22,-0.02700500999,-0.01571694231
1.23,-0.02715666544,-0.0145869513
1.24,-0.02726357413,-0.01346874787
1.25,-0.02732693651,-0.01236414488
1.26,-0.02734803313,-0.01127486652
1.27,-0.02732821813,-0.01020254462
1.28,-0.02726891268,-0.00914871556
1.29,-0.02717159825,-0.008114817543
1.3,-0.02703780983,-0.007102188376
1.31,-0.02686912914,-0.006112063714
1.32,-0.0266671778,-0.005145575761
1.33,-0.0264336105,-0.004203752422
1.34,-0.0261701083,-0.003287516902
1.35,-0.02587837188,-0.002397687741
1.36,-0.02556011505,-0.001534979276
1.37,-0.02521705821,-0.0007000025062
1.38,-0.02485092216,0.0001067336307
1.39,-0.02446342189,0.000884820614
1.4,-0.02405626075,0.001633948323
1.41,-0.02363112468,0.002353902676
1.42,-0.02318967682,0.003044562946
1.43,-0.02273355227,0.003705898761
1.44,-0.0222643532,0.00433796683
1.45,-0.02178364416,0.0049409074
1.46,-0.02129294783,0.005514940471
1.47,-0.02079374091,0.006060361803
1.48,-0.02028745048,0.006577538714
1.49,-0.0197754506,0.00706690573
1.5,-0.01925905929,0.007528960068
1.51,-0.01873953583,0.007964257016
1.52,-0.01821807842,0.008373405206
1.53,-0.01769582216,0.008757061823
1.54,-0.0171738374,0.009115927754
1.55,-0.01665312842,0.009450742729
1.56,-0.01613463247,0.009762280447
1.57,-0.01561921907,0.01005134373
1.58,-0.01510768977,0.01031875971
1.59,-0.01460077808,0.01056537512
1.6,-0.01409914984,0.01079205158
1.61,-0.01360340379,0.01099966112
1.62,-0.01311407249,0.01118908168
1.63,-0.01263162348,0.01136119291
1.64,-0.01215646075,0.01151687193
1.65,-0.0116889264,0.01165698947
1.66,-0.01122930253,0.01178240606
1.67,-0.01077781342,0.01189396844
1.68,-0.01033462783,0.01199250623
1.69,-0.009899861513,0.01207882878
1.7,-0.009473579886,0.01215372225
1.71,-0.009055800842,0.01221794694
1.72,-0.008646497696,0.01227223487
1.73,-0.00824560223,0.01231728758
1.74,-0.007853007829,0.01235377421
1.75,-0.007468572683,0.0123823298
1.76,-0.007092123046,0.01240355391
1.77,-0.006723456523,0.0124180094
1.78,-0.006362345367,0.01242622154
1.79,-0.006008539779,0.01242867734
1.8,-0.005661771181,0.01242582508
1.81,-0.005321755457,0.01241807417
1.82,-0.004988196133,0.01240579519
1.83,-0.00466078749,0.01238932012
1.84,-0.004339217594,0.01236894283
1.85,-0.004023171227,0.01234491982
1.86,-0.003712332703,0.01231747101
1.87,-0.003406388566,0.01228678089
1.88,-0.003105030146,0.01225299973
1.89,-0.002807955982,0.01221624495
1.9,-0.002514874076,0.01217660271
1.91,-0.002225503996,0.01213412955
1.92,-0.001939578809,0.01208885422
1.93,-0.001656846833,0.01204077955
1.94,-0.001377073214,0.01198988445
1.95,-0.001100041324,0.01193612599
1.96,-0.0008255539611,0.01187944151
1.97,-0.0005534343789,0.01181975081
1.98,-0.0002835271145,0.01175695833
1.99,-1.569863798E-05,0.01169095537
2,0.0002501621847,0.01162162234
2.01,0.0005141438112,0.01154883097
2.02,0.000776311919,0.01147244645
2.03,0.001036709476,0.01139232964
2.04,0.001295356977,0.01130833911
2.05,0.001552252844,0.01122033324
2.06,0.001807373973,0.01112817213
2.07,0.002060676438,0.0110317195
2.08,0.002312096321,0.01093084448
2.09,0.002561550671,0.01082542327
2.1,0.00280893859,0.01071534075
2.11,0.00305414241,0.0106004919
2.12,0.00329702898,0.01048078314
2.13,0.003537451034,0.01035613351
2.14,0.003775248624,0.01022647577
2.15,0.004010250627,0.01009175729
2.16,0.004242276297,0.009951940844
2.17,0.004471136849,0.009807005242
2.18,0.004696637078,0.00965694583
2.19,0.004918576988,0.009501774834
2.2,0.00513675342,0.009341521568
2.21,0.005350961677,0.009176232492
2.22,0.005560997127,0.009005971143
2.23,0.005766656767,0.008830817917
2.24,0.005967740757,0.008650869728
2.25,0.006164053895,0.008466239537
2.26,0.006355407027,0.008277055766
2.27,0.006541618399,0.008083461588
2.28,0.006722514911,0.00788561412
2.29,0.006897933303,0.007683683509
2.3,0.007067721236,0.007477851935
2.31,0.007231738271,0.007268312524
2.32,0.007389856753,0.007055268193
2.33,0.00754196257,0.00683893043
2.34,0.007687955807,0.006619518018
2.35,0.007827751276,0.006397255718
2.36,0.007961278928,0.006172372921
2.37,0.008088484144,0.005945102268
2.38,0.008209327893,0.005715678267
2.39,0.008323786779,0.005484335901
2.4,0.00843185296,0.005251309248
2.41,0.00853353394,0.005016830113
2.42,0.008628852255,0.004781126698
2.43,0.00871784503,0.004544422296
2.44,0.008800563436,0.004306934044
2.45,0.008877072031,0.004068871726
2.46,0.008947448004,0.003830436641
2.47,0.009011780326,0.003591820543
2.48,0.009070168803,0.003353204661
2.49,0.009122723055,0.003114758811
2.5,0.009169561418,0.002876640592
2.51,0.009210809779,0.00263899469
2.52,0.009246600351,0.00240195228
2.53,0.009277070408,0.002165630543
2.54,0.009302360966,0.001930132286
2.55,0.009322615447,0.001695545689
2.56,0.009337978315,0.001461944159
2.57,0.009348593702,0.001229386309
2.58,0.009354604033,0.0009979160531
2.59,0.009356148662,0.0007675628243
2.6,0.009353362524,0.0005383419078
2.61,0.009346374811,0.000310254892
2.62,0.009335307698,8.329023376E-05
2.63,0.009320275101,-0.0001425760647
2.64,0.0093013815,-0.0003673796725
2.65,0.009278720826,-0.000591167044
2.66,0.009252375419,-0.0008139944349
2.67,0.009222415064,-0.001035926827
2.68,0.009188896122,-0.001257036769
2.69,0.009151860752,-0.001477403138
2.7,0.009111336232,-0.00169710983
2.71,0.009067334396,-0.001916244393
2.72,0.009019851169,-0.002134896599
2.73,0.008968866236,-0.002353156979
2.74,0.008914342816,-0.002571115314
2.75,0.008856227571,-0.002788859108
2.76,0.00879445063,-0.003006472041
2.77,0.008728925754,-0.003224032412
2.78,0.008659550613,-0.003441611594
2.79,0.008586207204,-0.003659272495
2.8,0.008508762394,-0.003877068045
2.81,0.008427068579,-0.004095039719
2.82,0.008340964482,-0.004313216101
2.83,0.008250276059,-0.004531611502
2.84,0.008154817527,-0.004750224642
2.85,0.008054392507,-0.0049690374
2.86,0.007948795264,-0.005188013652
2.87,0.007837812063,-0.005407098189
2.88,0.007721222602,-0.005626215743
2.89,0.007598801553,-0.005845270107
2.9,0.007470320163,-0.006064143378
2.91,0.00733554794,-0.006282695307
2.92,0.007194254395,-0.006500762783
2.93,0.007046210845,-0.00671815944
2.94,0.006891192251,-0.006934675403
2.95,0.006728979097,-0.007150077167
2.96,0.006559359293,-0.007364107619
2.97,0.006382130086,-0.007576486206
2.98,0.006197099983,-0.007786909241
2.99,0.00600409066,-0.007995050361
3,0.005802938853,-0.00820056113
3.01,0.005593498226,-0.008403071781
3.02,0.005375641189,-0.008602192108
3.03,0.005149260675,-0.008797512496
3.04,0.004914271853,-0.008988605086
3.05,0.004670613763,-0.009175025082
3.06,0.004418250884,-0.009356312175
3.07,0.004157174594,-0.009531992102
3.08,0.003887404546,-0.009701578317
3.09,0.003608989922,-0.009864573773
3.1,0.003322010575,-0.01002047281
3.11,0.003026578049,-0.01016876312
3.12,0.002722836459,-0.01030892785
3.13,0.002410963234,-0.01044044773
3.14,0.002091169723,-0.01056280325
3.15,0.001763701633,-0.01067547699
3.16,0.001428839331,-0.01077795592
3.17,0.001086897971,-0.01086973371
3.18,0.0007382274688,-0.01095031319
3.19,0.0003832123061,-0.01101920867
3.2,2.227117295E-05,-0.01107594838
3.21,-0.0003441435606,-0.01112007683
3.22,-0.0007155465374,-0.0111511572
3.23,-0.001091420273,-0.01116877367
3.24,-0.001471216177,-0.01117253368
3.25,-0.001854355743,-0.01116207018
3.26,-0.002240231887,-0.01113704383
3.27,-0.002628210444,-0.01109714503
3.28,-0.003017631818,-0.01104209595
3.29,-0.00340781277,-0.01097165241
3.3,-0.003798048337,-0.01088560569
3.31,-0.004187613898,-0.01078378418
3.32,-0.004575767341,-0.01066605492
3.33,-0.004961751358,-0.01053232502
3.34,-0.005344795833,-0.01038254289
3.35,-0.005724120335,-0.01021669935
3.36,-0.006098936685,-0.01003482858
3.37,-0.006468451603,-0.0098370089
3.38,-0.006831869409,-0.009623363357
3.39,-0.007188394786,-0.009394060176
3.4,-0.00753723557,-0.009149312998
3.41,-0.007877605575,-0.008889380953
3.42,-0.008208727428,-0.008614568543
3.43,-0.008529835405,-0.008325225338
3.44,-0.008840178261,-0.008021745491
3.45,-0.009139022031,-0.007704567061
3.46,-0.009425652801,-0.007374171159
3.47,-0.009699379423,-0.007031080901
3.48,-0.009959536179,-0.006675860196
3.49,-0.01020548537,-0.006309112347
3.5,-0.0104366198,-0.005931478484
3.51,-0.01065236521,-0.005543635838
3.52,-0.01085218256,-0.005146295849
3.53,-0.0110355702,-0.004740202125
3.54,-0.01120206597,-0.004326128257
3.55,-0.01135124904,-0.003904875501
3.56,-0.01148274175,-0.003477270326
3.57,-0.0115962112,-0.003044161855
3.58,-0.01169137068,-0.002606419193
3.59,-0.01176798097,-0.002164928661
3.6,-0.01182585147,-0.001720590947
3.61,-0.01186484107,-0.001274318182
3.62,-0.01188485891,-0.0008270309577
3.63,-0.01188586497,-0.0003796552957
3.64,-0.01186787033,6.688042095E-05
3.65,-0.01183093741,0.0005116485361
3.66,-0.01177517989,0.0009537252205
3.67,-0.01170076248,0.001392193567
3.68,-0.01160790045,0.001826146672
3.69,-0.01149685907,0.002254690682
3.7,-0.0113679527,0.002676947806
3.71,-0.01122154382,0.003092059263
3.72,-0.01105804183,0.003499188171
3.73,-0.01087790162,0.003897522349
3.74,-0.01068162204,0.004286277034
3.75,-0.01046974412,0.004664697484
3.76,-0.01024284924,0.005032061479
3.77,-0.01000155699,0.005387681686
3.78,-0.009746523036,0.005730907897
3.79,-0.009478436719,0.006061129117
3.8,-0.00919801862,0.006377775499
3.81,-0.008906017955,0.006680320119
3.82,-0.008603209877,0.006968280582
3.83,-0.008290392686,0.007241220447
3.84,-0.007968384943,0.007498750478
3.85,-0.007638022528,0.007740529703
3.86,-0.00730015562,0.007966266277
3.87,-0.006955645646,0.008175718165
3.88,-0.006605362186,0.008368693606
3.89,-0.006250179862,0.008545051399
3.9,-0.005890975212,0.008704700973
3.91,-0.005528623582,0.008847602268
3.92,-0.005163996023,0.008973765405
3.93,-0.004797956228,0.00908325017
3.94,-0.004431357512,0.009176165299
3.95,-0.004065039845,0.009252667565
3.96,-0.003699826961,0.009312960689
3.97,-0.003336523541,0.009357294062
3.98,-0.0029759125,0.009385961291
3.99,-0.002618752365,0.009399298579
4,-0.002265774784,0.009397682943
4.01,-0.001917682145,0.009381530273
4.02,-0.001575145343,0.009351293254
4.03,-0.001238801685,0.009307459144
4.04,-0.0009092529518,0.009250547435
4.05,-0.0005870636142,0.009181107394
4.06,-0.0002727592261,0.009099715499
4.07,3.317501587E-05,0.009006972789
4.08,0.0003302955301,0.008903502122
4.09,0.0006182014238,0.00878994538
4.1,0.0008965353795,0.008666960604
4.11,0.00116498435,0.008535219092
4.12,0.00142328006,0.008395402466
4.13,0.001671199316,0.008248199721
4.14,0.001908564117,0.008094304269
4.15,0.002135241574,0.007934410991
4.16,0.002351143636,0.007769213308
4.17,0.002556226625,0.007599400293
4.18,0.002750490585,0.007425653817
4.19,0.00293397844,0.007248645766
4.2,0.003106774986,0.00706903532
4.21,0.003269005694,0.006887466317
4.22,0.003420835358,0.006704564709
4.23,0.003562466573,0.006520936127
4.24,0.003694138066,0.00633716355
4.25,0.003816122878,0.006153805109
4.26,0.003928726413,0.005971392016
4.27,0.004032284361,0.005790426637
4.28,0.004127160497,0.005611380718
4.29,0.004213744386,0.00543469376
4.3,0.004292448981,0.005260771563
4.31,0.004363708146,0.005089984934
4.32,0.004427974099,0.004922668575
4.33,0.004485714802,0.004759120136
4.34,0.004537411295,0.004599599463
4.35,0.004583555003,0.00444432802
4.36,0.004624645007,0.004293488495
4.37,0.004661185317,0.004147224598
4.38,0.004693682137,0.004005641038
4.39,0.004722641144,0.003868803687
4.4,0.004748564801,0.003736739926
4.41,0.004771949696,0.003609439172
4.42,0.00479328394,0.00348685358
4.43,0.004813044622,0.003368898918
4.44,0.004831695339,0.003255455614
4.45,0.004849683806,0.003146369957
4.46,0.004867439564,0.00304145546
4.47,0.00488537179,0.00294049437
4.48,0.004903867221,0.002843239319
4.49,0.004923288201,0.002749415109
4.5,0.004943970856,0.002658720617
4.51,0.004966223413,0.002570830823
4.52,0.004990324662,0.002485398932
4.53,0.005016522565,0.002402058603
4.54,0.005045033034,0.00232042625
4.55,0.005076038859,0.002240103426
4.56,0.005109688816,0.002160679264
4.57,0.005146096934,0.002081732967
4.58,0.005185341939,0.002002836345
4.59,0.005227466879,0.001923556368
4.6,0.005272478915,0.001843457743
4.61,0.005320349294,0.001762105488
4.62,0.005371013495,0.001679067507
4.63,0.005424371557,0.00159391713
4.64,0.005480288564,0.001506235637
4.65,0.005538595318,0.001415614731
4.66,0.005599089161,0.001321658952
4.67,0.005661534971,0.001223988038
4.68,0.005725666308,0.001122239199
4.69,0.005791186714,0.001016069313
4.7,0.005857771152,0.0009051570195
4.71,0.005925067591,0.0007892047158
4.72,0.005992698715,0.0006679404327
4.73,0.006060263752,0.0005411195922
4.74,0.006127340426,0.0004085266357
4.75,0.006193486998,0.0002699765138
4.76,0.006258244416,0.0001253160351
4.77,0.006321138543,-2.557493434E-05
4.78,0.006381682457,-0.0001827824253
4.79,0.00643937882,-0.0003463574774
4.8,0.0064937223,-0.0005163154125
4.81,0.006544202027,-0.000692635273
4.82,0.006590304095,-0.0008752594265
4.83,0.006631514068,-0.001064093338
4.84,0.006667319505,-0.001259005513
4.85,0.006697212481,-0.001459827603
4.86,0.006720692089,-0.00166635469
4.87,0.006737266926,-0.001878345723
4.88,0.006746457534,-0.002095524132
4.89,0.006747798802,-0.00231757859
4.9,0.006740842307,-0.002544163947
4.91,0.006725158593,-0.002774902298
4.92,0.006700339365,-0.003009384219
4.93,0.006665999605,-0.00324717013
4.94,0.006621779591,-0.003487791799
4.95,0.006567346809,-0.003730753979
4.96,0.006502397756,-0.003975536159
4.97,0.006426659625,-0.004221594435
4.98,0.006339891859,-0.004468363487
4.99,0.006241887579,-0.004715258644
5,0.006132474868,-0.004961678052
5.01,0.006011517914,-0.005207004905
5.02,0.005878918005,-0.005450609757
5.03,0.005734614368,-0.005691852883
5.04,0.005578584863,-0.005930086696
5.05,0.005410846505,-0.006164658202
5.06,0.00523145584,-0.006394911473
5.07,0.005040509149,-0.006620190153
5.08,0.004838142502,-0.006839839959
5.09,0.004624531639,-0.007053211181
5.1,0.004399891705,-0.007259661172
5.11,0.00416447681,-0.007458556812
5.12,0.003918579454,-0.007649276932
5.13,0.003662529774,-0.007831214701
5.14,0.003396694666,-0.008003779959
5.15,0.003121476744,-0.008166401479
5.16,0.002837313167,-0.008318529163
5.17,0.002544674327,-0.008459636158
5.18,0.002244062413,-0.008589220876
5.19,0.001936009843,-0.008706808921
5.2,0.001621077589,-0.008811954915
5.21,0.001299853388,-0.008904244199
5.22,0.0009729498519,-0.008983294434
5.23,0.0006410024876,-0.009048757062
5.24,0.0003046676292,-0.009100318647
5.25,-3.537970447E-05,-0.009137702079
5.26,-0.0003784480195,-0.009160667638
5.27,-0.0007238316142,-0.00916901392
5.28,-0.001070812895,-0.009162578615
5.29,-0.001418664732,-0.009141239142
5.3,-0.001766652841,-0.009104913125
5.31,-0.002114038192,-0.009053558736
5.32,-0.002460079417,-0.008987174872
5.33,-0.002804035233,-0.008905801191
5.34,-0.00314516684,-0.008809517996
5.35,-0.003482740313,-0.008698445969
5.36,-0.003816028963,-0.008572745766
5.37,-0.004144315655,-0.008432617463
5.38,-0.004466895092,-0.008278299863
5.39,-0.004783076036,-0.008110069666
5.4,-0.005092183467,-0.007928240514
5.41,-0.005393560679,-0.007733161898
5.42,-0.005686571292,-0.007525217953
5.43,-0.005970601177,-0.007304826127
5.44,-0.006245060297,-0.007072435752
5.45,-0.006509384445,-0.006828526498
5.46,-0.006763036877,-0.006573606743
5.47,-0.007005509836,-0.006308211842
5.48,-0.007236325969,-0.006032902322
5.49,-0.007455039613,-0.005748262
5.5,-0.007661237968,-0.005454896032
5.51,-0.007854542143,-0.005153428911
5.52,-0.00803460807,-0.004844502403
5.53,-0.00820112729,-0.004528773456
5.54,-0.008353827606,-0.004206912066
5.55,-0.008492473604,-0.003879599119
5.56,-0.008616867037,-0.003547524223
5.57,-0.008726847079,-0.003211383525
5.58,-0.008822290445,-0.002871877537
5.59,-0.008903111374,-0.002529708963
5.6,-0.008969261489,-0.00218558055
5.61,-0.009020729524,-0.00184019296
5.62,-0.009057540926,-0.001494242677
5.63,-0.009079757333,-0.001148419959
5.64,-0.00908747594,-0.0008034068285
5.65,-0.009080828737,-0.0004598751258
5.66,-0.00905998165,-0.0001184846237
5.67,-0.009025133569,0.0002201187934
5.68,-0.008976515275,0.0005553048728
5.69,-0.008914388273,0.000886460659
5.7,-0.008839043541,0.001212992073
5.71,-0.008750800185,0.001534325401
5.72,-0.008650004028,0.001849908693
5.73,-0.008537026122,0.002159213057
5.74,-0.008412261199,0.002461733858
5.75,-0.008276126065,0.002756991807
5.76,-0.008129057945,0.003044533947
5.77,-0.007971512786,0.003323934528
5.78,-0.007803963524,0.003594795771
5.79,-0.007626898323,0.003856748521
5.8,-0.007440818794,0.004109452791
5.81,-0.0072462382,0.004352598183
5.82,-0.007043679656,0.004585904211
5.83,-0.006833674331,0.004809120501
5.84,-0.006616759651,0.005022026886
5.85,-0.006393477524,0.005224433394
5.86,-0.006164372585,0.005416180123
5.87,-0.005929990463,0.005597137018
5.88,-0.005690876092,0.005767203546
5.89,-0.005447572047,0.005926308272
5.9,-0.005200616942,0.006074408335
5.91,-0.004950543866,0.006211488846
5.92,-0.00469787888,0.006337562188
5.93,-0.004443139579,0.006452667241
5.94,-0.004186833706,0.006556868523
5.95,-0.00392945785,0.006650255271
5.96,-0.003671496209,0.00673294044
5.97,-0.003413419429,0.006805059651
5.98,-0.003155683525,0.006866770078
5.99,-0.002898728882,0.006918249287
6,-0.002642979341,0.006959694031
