"Freq [GHz]","re(S(Tx_p1,Tx_p1)) []","im(S(Tx_p1,Tx_p1)) []"
1,0.01022239002,-0.06184324965
1.01,0.008418754503,-0.06134815245
1.02,0.006643763872,-0.06080172491
1.03,0.004899728465,-0.0602048898
1.04,0.003188898818,-0.05955872798
1.05,0.001513456662,-0.05886447156
1.06,-0.0001244935661,-0.05812349691
1.07,-0.001722932705,-0.05733731722
1.08,-0.003279934311,-0.05650757491
1.09,-0.004793671579,-0.05563603374
1.1,-0.006262423719,-0.05472457072
1.11,-0.007684581799,-0.0537751678
1.12,-0.009058654038,-0.05278990343
1.13,-0.01038327056,-0.05177094393
1.14,-0.01165718758,-0.05072053479
1.15,-0.01287929109,-0.04964099181
1.16,-0.01404859995,-0.04853469225
1.17,-0.01516426846,-0.04740406589
1.18,-0.01622558839,-0.04625158606
1.19,-0.01723199048,-0.04507976075
1.2,-0.01818304539,-0.04389112367
1.21,-0.01907846419,-0.04268822545
1.22,-0.01991809823,-0.04147362491
1.23,-0.02070193863,-0.04024988036
1.24,-0.0214301152,-0.03901954121
1.25,-0.02210289491,-0.03778513956
1.26,-0.02272067989,-0.03654918208
1.27,-0.02328400494,-0.03531414211
1.28,-0.02379353473,-0.0340824519
1.29,-0.02425006041,-0.03285649519
1.3,-0.02465449596,-0.03163860001
1.31,-0.02500787406,-0.03043103181
1.32,-0.02531134169,-0.02923598683
1.33,-0.0255661553,-0.02805558588
1.34,-0.02577367573,-0.02689186838
1.35,-0.02593536275,-0.0257467868
1.36,-0.02605276943,-0.02462220148
1.37,-0.02612753615,-0.02351987576
1.38,-0.02616138448,-0.02244147158
1.39,-0.02615611074,-0.02138854543
1.4,-0.02611357949,-0.02036254473
1.41,-0.02603571677,-0.01936480457
1.42,-0.02592450328,-0.01839654499
1.43,-0.02578196741,-0.01745886853
1.44,-0.02561017818,-0.0165527583
1.45,-0.02541123817,-0.01567907649
1.46,-0.02518727633,-0.0148385632
1.47,-0.0249404409,-0.01403183583
1.48,-0.02467289222,-0.01325938879
1.49,-0.02438679567,-0.01252159366
1.5,-0.0240843146,-0.01181869977
1.51,-0.02376760344,-0.01115083518
1.52,-0.02343880082,-0.01051800804
1.53,-0.02310002286,-0.009920108336
1.54,-0.02275335661,-0.009356910072
1.55,-0.02240085368,-0.008828073718
1.56,-0.02204452402,-0.008333149086
1.57,-0.02168632993,-0.007871578517
1.58,-0.02132818031,-0.007442700389
1.59,-0.02097192513,-0.007045752946
1.6,-0.02061935017,-0.006679878405
1.61,-0.02027217203,-0.006344127351
1.62,-0.01993203346,-0.006037463375
1.63,-0.01960049892,-0.005758767968
1.64,-0.01927905053,-0.005506845615
1.65,-0.01896908429,-0.005280429105
1.66,-0.01867190669,-0.005078185012
1.67,-0.01838873155,-0.004898719335
1.68,-0.01812067737,-0.004740583282
1.69,-0.01786876487,-0.004602279167
1.7,-0.01763391498,-0.004482266406
1.71,-0.01741694718,-0.004378967581
1.72,-0.01721857819,-0.004290774572
1.73,-0.017039421,-0.004216054705
1.74,-0.0168799843,-0.004153156923
1.75,-0.01674067226,-0.004100417941
1.76,-0.01662178463,-0.004056168375
1.77,-0.01652351727,-0.004018738817
1.78,-0.01644596291,-0.003986465841
1.79,-0.01638911239,-0.003957697917
1.8,-0.01635285613,-0.003930801218
1.81,-0.01633698592,-0.003904165297
1.82,-0.01634119714,-0.003876208622
1.83,-0.01636509112,-0.00384538394
1.84,-0.01640817795,-0.003810183474
1.85,-0.01646987944,-0.003769143913
1.86,-0.01654953243,-0.003720851199
1.87,-0.01664639232,-0.003663945091
1.88,-0.01675963684,-0.003597123485
1.89,-0.01688837006,-0.003519146494
1.9,-0.01703162658,-0.003428840264
1.91,-0.01718837593,-0.003325100516
1.92,-0.01735752713,-0.003206895813
1.93,-0.01753793341,-0.003073270541
1.94,-0.01772839711,-0.00292334759
1.95,-0.01792767458,-0.002756330738
1.96,-0.01813448136,-0.002571506729
1.97,-0.01834749726,-0.002368247043
1.98,-0.01856537166,-0.002146009349
1.99,-0.01878672874,-0.001904338652
2,-0.01901017281,-0.001642868122
2.01,-0.01923429361,-0.001361319607
2.02,-0.01945767164,-0.001059503838
2.03,-0.01967888342,-0.0007373203292
2.04,-0.01989650671,-0.0003947569588
2.05,-0.02010912574,-3.188926502E-05
2.06,-0.02031533624,0.0003511205628
2.07,-0.02051375048,0.0007540249778
2.08,-0.02070300213,0.00117649265
2.09,-0.02088175106,0.001618110316
2.1,-0.0210486879,0.002078384883
2.11,-0.02120253856,0.002556745799
2.12,-0.02134206849,0.003052547652
2.13,-0.02146608679,0.003565073008
2.14,-0.02157345013,0.004093535462
2.15,-0.02166306645,0.004637082897
2.16,-0.02173389847,0.005194800934
2.17,-0.02178496693,0.005765716559
2.18,-0.02181535365,0.006348801914
2.19,-0.02182420429,0.006942978235
2.2,-0.02181073087,0.007547119925
2.21,-0.02177421412,0.008160058742
2.22,-0.02171400543,0.008780588093
2.23,-0.02162952863,0.009407467407
2.24,-0.02152028151,0.01003942659
2.25,-0.02138583696,0.0106751705
2.26,-0.02122584401,0.01131338354
2.27,-0.02104002843,0.01195273416
2.28,-0.02082819317,0.01259187943
2.29,-0.02059021849,0.01322946962
2.3,-0.02032606181,0.01386415274
2.31,-0.02003575734,0.01449457894
2.32,-0.01971941543,0.01511940506
2.33,-0.01937722162,0.01573729888
2.34,-0.01900943553,0.01634694346
2.35,-0.01861638945,0.01694704128
2.36,-0.01819848671,0.01753631832
2.37,-0.01775619982,0.01811352794
2.38,-0.01729006842,0.01867745477
2.39,-0.016800697,0.01922691824
2.4,-0.0162887524,0.01976077615
2.41,-0.01575496121,0.02027792794
2.42,-0.01520010691,0.02077731784
2.43,-0.01462502688,0.0212579378
2.44,-0.01403060926,0.02171883023
2.45,-0.01341778972,0.02215909054
2.46,-0.012787548,0.02257786948
2.47,-0.01214090443,0.02297437526
2.48,-0.01147891635,0.02334787537
2.49,-0.01080267441,0.02369769833
2.5,-0.0101132988,0.02402323507
2.51,-0.009411935465,0.02432394013
2.52,-0.008699752259,0.02459933266
2.53,-0.007977935064,0.02484899712
2.54,-0.007247683907,0.0250725838
2.55,-0.006510209082,0.02526980907
2.56,-0.005766727282,0.02544045545
2.57,-0.005018457762,0.02558437139
2.58,-0.004266618544,0.02570147086
2.59,-0.003512422679,0.02579173272
2.6,-0.002757074577,0.02585519988
2.61,-0.002001766417,0.02589197823
2.62,-0.001247674646,0.02590223537
2.63,-0.0004959565936,0.02588619916
2.64,0.0002522528172,0.02584415609
2.65,0.0009958442171,0.02577644942
2.66,0.001733736812,0.0256834772
2.67,0.00246488126,0.02556569011
2.68,0.003188262389,0.02542358915
2.69,0.003902901767,0.02525772318
2.7,0.004607860088,0.02506868632
2.71,0.005302239399,0.02485711527
2.72,0.005985185134,0.02462368649
2.73,0.006655887975,0.02436911327
2.74,0.007313585511,0.02409414276
2.75,0.007957563712,0.02379955286
2.76,0.008587158204,0.02348614915
2.77,0.009201755347,0.02315476162
2.78,0.009800793105,0.02280624155
2.79,0.01038376173,0.0224414582
2.8,0.01095020423,0.02206129559
2.81,0.01149971664,0.02166664921
2.82,0.01203194813,0.02125842284
2.83,0.01254660084,0.02083752527
2.84,0.01304342958,0.02040486715
2.85,0.01352224137,0.01996135784
2.86,0.01398289468,0.01950790237
2.87,0.01442529863,0.01904539837
2.88,0.01484941191,0.0185747332
2.89,0.01525524156,0.01809678109
2.9,0.01564284164,0.01761240038
2.91,0.01601231166,0.01712243092
2.92,0.01636379492,0.01662769155
2.93,0.01669747668,0.01612897767
2.94,0.01701358225,0.01562705906
2.95,0.01731237488,0.01512267768
2.96,0.01759415362,0.01461654573
2.97,0.01785925101,0.01410934387
2.98,0.01810803073,0.01360171947
2.99,0.0183408851,0.01309428517
3,0.01855823263,0.01258761754
3.01,0.01876051534,0.01208225586
3.02,0.0189481962,0.01157870118
3.03,0.0191217564,0.01107741546
3.04,0.01928169266,0.01057882089
3.05,0.01942851451,0.01008329949
3.06,0.01956274154,0.009591192726
3.07,0.0196849007,0.009102801417
3.08,0.01979552355,0.008618385768
3.09,0.0198951436,0.008138165582
3.1,0.01998429364,0.007662320635
3.11,0.02006350311,0.007190991219
3.12,0.0201332956,0.006724278847
3.13,0.0201941863,0.006262247106
3.14,0.02024667962,0.00580492267
3.15,0.02029126683,0.005352296453
3.16,0.02032842384,0.004904324901
3.17,0.02035860902,0.004460931422
3.18,0.02038226121,0.004022007934
3.19,0.02039979775,0.003587416536
3.2,0.02041161268,0.003156991294
3.21,0.02041807508,0.002730540119
3.22,0.02041952751,0.00230784675
3.23,0.02041628457,0.001888672817
3.24,0.0204086317,0.001472759981
3.25,0.02039682398,0.001059832142
3.26,0.02038108518,0.0006495977073
3.27,0.02036160695,0.0002417519051
3.28,0.02033854811,-0.0001640208616
3.29,0.02031203417,-0.0005680446307
3.3,0.02028215695,-0.0009706494787
3.31,0.02024897435,-0.001372169107
3.32,0.02021251034,-0.001772938429
3.33,0.02017275503,-0.002173291167
3.34,0.02012966495,-0.002573557466
3.35,0.02008316343,-0.002974061537
3.36,0.02003314119,-0.003375119341
3.37,0.01997945702,-0.003777036311
3.38,0.01992193864,-0.004180105139
3.39,0.01986038365,-0.00458460362
3.4,0.01979456069,-0.004990792569
3.41,0.01972421068,-0.005398913825
3.42,0.01964904814,-0.005809188325
3.43,0.01956876273,-0.006221814296
3.44,0.01948302083,-0.006636965526
3.45,0.01939146721,-0.007054789757
3.46,0.01929372686,-0.007475407184
3.47,0.01918940686,-0.007898909076
3.48,0.01907809835,-0.00832535652
3.49,0.01895937856,-0.008754779293
3.5,0.01883281295,-0.009187174864
3.51,0.0186979573,-0.009622507534
3.52,0.01855436,-0.01006070772
3.53,0.01840156426,-0.01050167135
3.54,0.01823911039,-0.01094525945
3.55,0.01806653812,-0.01139129786
3.56,0.0178833889,-0.01183957703
3.57,0.01768920823,-0.01228985205
3.58,0.01748354799,-0.0127418428
3.59,0.01726596872,-0.0131952342
3.6,0.01703604192,-0.01364967666
3.61,0.01679335228,-0.01410478662
3.62,0.01653749993,-0.01456014728
3.63,0.01626810257,-0.0150153094
3.64,0.01598479762,-0.0154697923
3.65,0.01568724421,-0.01592308495
3.66,0.01537512522,-0.01637464718
3.67,0.01504814916,-0.01682391102
3.68,0.01470605197,-0.01727028215
3.69,0.01434859878,-0.01771314148
3.7,0.01397558549,-0.01815184676
3.71,0.01358684037,-0.01858573442
3.72,0.0131822254,-0.01901412134
3.73,0.01276163766,-0.01943630681
3.74,0.01232501045,-0.01985157455
3.75,0.01187231438,-0.02025919476
3.76,0.01140355835,-0.02065842627
3.77,0.0109187903,-0.02104851872
3.78,0.01041809797,-0.02142871481
3.79,0.009901609374,-0.02179825252
3.8,0.009369493282,-0.02215636748
3.81,0.008821959469,-0.02250229525
3.82,0.008259258866,-0.02283527364
3.83,0.00768168357,-0.0231545451
3.84,0.007089566717,-0.02345935901
3.85,0.006483282216,-0.023748974
3.86,0.005863244353,-0.0240226603
3.87,0.005229907254,-0.02427970199
3.88,0.004583764234,-0.02451939923
3.89,0.003925346995,-0.02474107049
3.9,0.003255224721,-0.02494405467
3.91,0.002574003032,-0.02512771322
3.92,0.001882322841,-0.02529143217
3.93,0.001180859073,-0.02543462408
3.94,0.0004703192994,-0.02555672991
3.95,-0.0002485577495,-0.02565722084
3.96,-0.0009750037622,-0.02573560001
3.97,-0.001708222518,-0.02579140407
3.98,-0.002447391648,-0.02582420476
3.99,-0.003191664476,-0.0258336103
4,-0.003940171933,-0.0258192667
4.01,-0.004692024542,-0.02578085897
4.02,-0.005446314462,-0.0257181122
4.03,-0.006202117589,-0.02563079251
4.04,-0.006958495702,-0.02551870793
4.05,-0.007714498647,-0.02538170906
4.06,-0.008469166562,-0.02521968975
4.07,-0.009221532117,-0.02503258751
4.08,-0.009970622778,-0.02482038387
4.09,-0.01071546308,-0.02458310463
4.1,-0.01145507692,-0.0243208199
4.11,-0.01218848978,-0.02403364413
4.12,-0.01291473106,-0.02372173591
4.13,-0.01363283627,-0.02338529768
4.14,-0.01434184926,-0.02302457537
4.15,-0.01504082442,-0.02263985783
4.16,-0.01572882881,-0.02223147623
4.17,-0.01640494425,-0.02179980326
4.18,-0.01706826941,-0.02134525232
4.19,-0.01771792178,-0.02086827648
4.2,-0.01835303957,-0.02036936745
4.21,-0.01897278362,-0.01984905439
4.22,-0.01957633915,-0.01930790263
4.23,-0.02016291747,-0.01874651232
4.24,-0.02073175762,-0.01816551698
4.25,-0.02128212787,-0.01756558197
4.26,-0.02181332719,-0.01694740289
4.27,-0.02232468659,-0.01631170392
4.28,-0.02281557035,-0.01565923609
4.29,-0.02328537719,-0.01499077549
4.3,-0.02373354126,-0.01430712144
4.31,-0.02415953314,-0.01360909461
4.32,-0.02456286062,-0.01289753509
4.33,-0.02494306943,-0.01217330048
4.34,-0.02529974383,-0.01143726389
4.35,-0.02563250713,-0.01069031195
4.36,-0.02594102206,-0.009933342846
4.37,-0.02622499103,-0.009167264286
4.38,-0.02648415631,-0.008392991506
4.39,-0.02671830008,-0.007611445285
4.4,-0.02692724436,-0.006823549959
4.41,-0.02711085086,-0.006030231469
4.42,-0.02726902073,-0.005232415427
4.43,-0.02740169416,-0.004431025214
4.44,-0.02750884994,-0.003626980123
4.45,-0.02759050488,-0.002821193539
4.46,-0.02764671317,-0.002014571165
4.47,-0.02767756562,-0.00120800931
4.48,-0.02768318886,-0.0004023932249
4.49,-0.02766374438,0.0004014044921
4.5,-0.02761942759,0.001202525428
4.51,-0.02755046674,0.002000126817
4.52,-0.02745712181,0.002793382926
4.53,-0.02733968328,0.003581486367
4.54,-0.02719847093,0.004363649328
4.55,-0.02703383252,0.00513910472
4.56,-0.02684614243,0.005907107245
4.57,-0.0266358003,0.006666934371
4.58,-0.02640322959,0.007417887223
4.59,-0.02614887613,0.008159291382
4.6,-0.02587320662,0.008890497599
4.61,-0.02557670719,0.009610882414
4.62,-0.02525988179,0.01031984868
4.63,-0.02492325078,0.01101682602
4.64,-0.02456734931,0.01170127115
4.65,-0.02419272585,0.01237266815
4.66,-0.02379994065,0.01303052865
4.67,-0.02338956426,0.01367439188
4.68,-0.02296217602,0.0143038247
4.69,-0.02251836263,0.0149184215
4.7,-0.02205871668,0.01551780405
4.71,-0.02158383525,0.01610162124
4.72,-0.02109431858,0.01666954875
4.73,-0.0205907687,0.0172212887
4.74,-0.02007378817,0.01775656916
4.75,-0.01954397883,0.01827514361
4.76,-0.01900194065,0.01877679039
4.77,-0.01844827056,0.01926131202
4.78,-0.01788356138,0.01972853453
4.79,-0.01730840086,0.02017830667
4.8,-0.01672337067,0.02061049915
4.81,-0.01612904554,0.02102500378
4.82,-0.01552599245,0.0214217326
4.83,-0.01491476986,0.02180061699
4.84,-0.01429592705,0.02216160671
4.85,-0.01367000348,0.02250466893
4.86,-0.01303752828,0.02282978732
4.87,-0.01239901974,0.02313696098
4.88,-0.01175498497,0.02342620349
4.89,-0.01110591949,0.02369754189
4.9,-0.01045230704,0.02395101566
4.91,-0.00979461936,0.02418667577
4.92,-0.00913331606,0.02440458363
4.93,-0.00846884458,0.02460481015
4.94,-0.007801640189,0.02478743476
4.95,-0.007132126064,0.02495254448
4.96,-0.006460713416,0.02510023301
4.97,-0.005787801687,0.02523059982
4.98,-0.005113778797,0.02534374934
4.99,-0.004439021444,0.02543979008
5,-0.003763895455,0.02551883391
5.01,-0.003088756187,0.0255809953
5.02,-0.002413948972,0.0256263906
5.03,-0.001739809597,0.02565513743
5.04,-0.001066664826,0.02566735408
5.05,-0.0003948329556,0.02566315891
5.06,0.0002753755994,0.02564266995
5.07,0.0009436576991,0.02560600435
5.08,0.001609716844,0.02555327809
5.09,0.002273262528,0.02548460559
5.1,0.002934009568,0.02540009946
5.11,0.003591677438,0.02529987029
5.12,0.004245989582,0.02518402646
5.13,0.004896672735,0.02505267411
5.14,0.005543456242,0.02490591702
5.15,0.006186071384,0.02474385666
5.16,0.006824250713,0.02456659226
5.17,0.007457727398,0.02437422094
5.18,0.008086234595,0.02416683787
5.19,0.00870950483,0.02394453651
5.2,0.009327269411,0.0237074089
5.21,0.009939257865,0.02345554595
5.22,0.01054519741,0.02318903787
5.23,0.01114481244,0.02290797454
5.24,0.01173782409,0.02261244599
5.25,0.0123239498,0.02230254289
5.26,0.01290290293,0.0219783571
5.27,0.01347439243,0.02163998221
5.28,0.01403812254,0.02128751413
5.29,0.01459379254,0.02092105175
5.3,0.0151410966,0.02054069754
5.31,0.01567972358,0.02014655824
5.32,0.01620935697,0.01973874552
5.33,0.01672967482,0.01931737668
5.34,0.01724034982,0.01888257536
5.35,0.0177410493,0.01843447221
5.36,0.01823143537,0.01797320562
5.37,0.01871116514,0.01749892243
5.38,0.01917989089,0.0170117786
5.39,0.01963726041,0.01651193992
5.4,0.0200829173,0.01599958268
5.41,0.02051650137,0.0154748943
5.42,0.0209376491,0.01493807401
5.43,0.0213459941,0.01438933342
5.44,0.0217411677,0.01382889716
5.45,0.02212279947,0.01325700335
5.46,0.02249051789,0.01267390423
5.47,0.02284395102,0.01207986655
5.48,0.02318272722,0.01147517208
5.49,0.02350647587,0.01086011798
5.5,0.02381482818,0.01023501721
5.51,0.02410741799,0.009600198773
5.52,0.02438388265,0.008956008054
5.53,0.02464386383,0.008302806999
5.54,0.0248870085,0.007640974292
5.55,0.02511296975,0.006970905469
5.56,0.0253214078,0.006293012973
5.57,0.0255119909,0.00560772616
5.58,0.02568439631,0.004915491241
5.59,0.02583831123,0.004216771176
5.6,0.0259734338,0.003512045498
5.61,0.02608947402,0.002801810092
5.62,0.02618615475,0.002086576906
5.63,0.02626321263,0.00136687361
5.64,0.02632039902,0.0006432431943
5.65,0.02635748094,-8.375648678E-05
5.66,0.02637424196,-0.0008135532281
5.67,0.02637048307,-0.001545561042
5.68,0.02634602358,-0.002279180779
5.69,0.02630070189,-0.003013800802
5.7,0.02623437635,-0.003748797711
5.71,0.02614692597,-0.004483537116
5.72,0.02603825116,-0.005217374455
5.73,0.02590827444,-0.00594965586
5.74,0.02575694105,-0.006679719061
5.75,0.02558421956,-0.007406894338
5.76,0.02539010242,-0.008130505494
5.77,0.02517460647,-0.008849870884
5.78,0.02493777337,-0.009564304456
5.79,0.02467966999,-0.01027311683
5.8,0.02440038878,-0.01097561641
5.81,0.02410004801,-0.01167111049
5.82,0.02377879204,-0.01235890642
5.83,0.02343679144,-0.01303831275
5.84,0.02307424314,-0.01370864041
5.85,0.02269137044,-0.0143692039
5.86,0.02228842301,-0.01501932244
5.87,0.02186567681,-0.01565832123
5.88,0.02142343397,-0.01628553255
5.89,0.02096202255,-0.01690029702
5.9,0.02048179632,-0.01750196472
5.91,0.01998313442,-0.0180898964
5.92,0.01946644099,-0.01866346458
5.93,0.01893214472,-0.01922205472
5.94,0.01838069838,-0.01976506632
5.95,0.01781257823,-0.02029191399
5.96,0.01722828345,-0.02080202853
5.97,0.01662833546,-0.02129485794
5.98,0.01601327722,-0.0217698684
5.99,0.01538367248,-0.02222654529
6,0.01474010495,-0.02266439403
