"Freq [GHz]","re(S(Tx_p1,Tx_p1)) []","im(S(Tx_p1,Tx_p1)) []"
1,0.04393986116,-0.08135691308
1.01,0.04186265585,-0.08125473919
1.02,0.03981115797,-0.08111236787
1.03,0.03778688871,-0.08093035717
1.04,0.03579133195,-0.0807094132
1.05,0.0338259244,-0.08045038299
1.06,0.03189204642,-0.08015424715
1.07,0.02999101334,-0.0798221121
1.08,0.02812406746,-0.07945520216
1.09,0.02629237063,-0.07905485132
1.1,0.0244969975,-0.07862249483
1.11,0.0227389293,-0.07815966059
1.12,0.0210190483,-0.07766796039
1.13,0.01933813291,-0.07714908096
1.14,0.0176968533,-0.07660477501
1.15,0.01609576772,-0.07603685209
1.16,0.01453531943,-0.07544716945
1.17,0.01301583418,-0.07483762288
1.18,0.01153751833,-0.07421013751
1.19,0.01010045757,-0.07356665869
1.2,0.008704616225,-0.07290914294
1.21,0.007349837089,-0.07223954891
1.22,0.006035841912,-0.07155982854
1.23,0.00476223237,-0.07087191839
1.24,0.003528491604,-0.070177731
1.25,0.00233398629,-0.06947914663
1.26,0.001177969205,-0.06877800509
1.27,5.958230132E-05,-0.06807609792
1.28,-0.001022139757,-0.06737516076
1.29,-0.002068265591,-0.06667686609
1.3,-0.003079962679,-0.06598281623
1.31,-0.00405849251,-0.06529453679
1.32,-0.005005205347,-0.06461347033
1.33,-0.005921534632,-0.06394097054
1.34,-0.006808991042,-0.06327829676
1.35,-0.007669156236,-0.06262660893
1.36,-0.00850367631,-0.06198696293
1.37,-0.009314254994,-0.06136030648
1.38,-0.01010264662,-0.06074747537
1.39,-0.01087064886,-0.06014919021
1.4,-0.01162009535,-0.0595660537
1.41,-0.01235284808,-0.05899854833
1.42,-0.01307078976,-0.05844703457
1.43,-0.01377581602,-0.05791174959
1.44,-0.01446982761,-0.05739280645
1.45,-0.01515472252,-0.05689019381
1.46,-0.01583238821,-0.05640377611
1.47,-0.0165046937,-0.05593329424
1.48,-0.0171734819,-0.05547836677
1.49,-0.01784056193,-0.05503849154
1.5,-0.01850770155,-0.05461304784
1.51,-0.01917661982,-0.054201299
1.52,-0.01984897988,-0.05380239543
1.53,-0.02052638193,-0.05341537814
1.54,-0.02121035643,-0.05303918265
1.55,-0.02190235761,-0.05267264332
1.56,-0.02260375723,-0.05231449812
1.57,-0.02331583859,-0.05196339371
1.58,-0.02403979091,-0.05161789092
1.59,-0.0247767041,-0.0512764706
1.6,-0.02552756379,-0.05093753966
1.61,-0.02629324681,-0.05059943758
1.62,-0.02707451702,-0.05026044307
1.63,-0.02787202166,-0.04991878098
1.64,-0.02868628794,-0.04957262949
1.65,-0.02951772028,-0.04922012744
1.66,-0.0303665978,-0.04885938186
1.67,-0.03123307243,-0.0484884756
1.68,-0.03211716739,-0.04810547511
1.69,-0.03301877619,-0.04770843831
1.7,-0.03393766202,-0.04729542245
1.71,-0.03487345777,-0.04686449207
1.72,-0.03582566637,-0.04641372689
1.73,-0.03679366168,-0.04594122976
1.74,-0.03777668989,-0.04544513443
1.75,-0.03877387128,-0.04492361335
1.76,-0.03978420257,-0.04437488524
1.77,-0.04080655962,-0.04379722263
1.78,-0.04183970063,-0.04318895914
1.79,-0.04288226977,-0.04254849661
1.8,-0.0439328012,-0.04187431196
1.81,-0.04498972354,-0.0411649639
1.82,-0.04605136473,-0.04041909923
1.83,-0.04711595719,-0.03963545897
1.84,-0.04818164344,-0.03881288409
1.85,-0.04924648202,-0.03795032097
1.86,-0.05030845365,-0.03704682643
1.87,-0.05136546784,-0.03610157243
1.88,-0.05241536961,-0.03511385041
1.89,-0.05345594656,-0.03408307511
1.9,-0.05448493615,-0.03300878812
1.91,-0.05550003313,-0.03189066086
1.92,-0.05649889719,-0.03072849719
1.93,-0.05747916073,-0.02952223556
1.94,-0.05843843673,-0.02827195068
1.95,-0.0593743268,-0.0269778547
1.96,-0.06028442914,-0.02564029797
1.97,-0.06116634668,-0.0242597693
1.98,-0.06201769511,-0.02283689573
1.99,-0.06283611098,-0.02137244184
2,-0.06361925969,-0.01986730855
2.01,-0.06436484339,-0.01832253154
2.02,-0.06507060882,-0.0167392791
2.03,-0.06573435498,-0.01511884957
2.04,-0.06635394067,-0.01346266836
2.05,-0.06692729177,-0.01177228446
2.06,-0.0674524084,-0.01004936663
2.07,-0.06792737175,-0.008295699042
2.08,-0.06835035073,-0.006513176653
2.09,-0.06871960826,-0.004703800127
2.1,-0.06903350732,-0.002869670407
2.11,-0.06929051658,-0.001012982955
2.12,-0.06948921578,0.0008639783396
2.13,-0.06962830067,0.00275884755
2.14,-0.06970658761,0.004669183383
2.15,-0.06972301773,0.006592476101
2.16,-0.0696766607,0.008526154679
2.17,-0.06956671806,0.01046759417
2.18,-0.06939252613,0.01241412323
2.19,-0.06915355844,0.01436303182
2.2,-0.06884942771,0.01631157904
2.21,-0.0684798874,0.01825700102
2.22,-0.06804483275,0.02019651892
2.23,-0.06754430137,0.02212734694
2.24,-0.06697847333,0.02404670039
2.25,-0.06634767082,0.02595180371
2.26,-0.06565235729,0.02783989841
2.27,-0.06489313619,0.02970825106
2.28,-0.06407074916,0.03155416104
2.29,-0.06318607385,0.03337496824
2.3,-0.06224012121,0.03516806061
2.31,-0.06123403245,0.03693088151
2.32,-0.06016907546,0.03866093683
2.33,-0.05904664092,0.04035580195
2.34,-0.05786823794,0.04201312838
2.35,-0.05663548936,0.04363065012
2.36,-0.05535012667,0.04520618981
2.37,-0.05401398464,0.04673766443
2.38,-0.05262899552,0.04822309075
2.39,-0.05119718306,0.04966059042
2.4,-0.04972065616,0.05104839462
2.41,-0.04820160232,0.05238484837
2.42,-0.04664228083,0.05366841443
2.43,-0.04504501576,0.05489767676
2.44,-0.04341218882,0.05607134357
2.45,-0.04174623195,0.05718824994
2.46,-0.04004961991,0.05824735993
2.47,-0.0383248627,0.0592477683
2.48,-0.03657449794,0.06018870177
2.49,-0.03480108319,0.06106951978
2.5,-0.03300718825,0.0618897148
2.51,-0.03119538749,0.06264891221
2.52,-0.02936825226,0.06334686964
2.53,-0.02752834327,0.06398347596
2.54,-0.02567820314,0.06455874975
2.55,-0.02382034911,0.06507283732
2.56,-0.02195726578,0.06552601034
2.57,-0.02009139818,0.06591866299
2.58,-0.01822514488,0.06625130878
2.59,-0.0163608515,0.06652457688
2.6,-0.01450080433,0.06673920812
2.61,-0.0126472243,0.06689605062
2.62,-0.0108022612,0.06699605505
2.63,-0.008967988317,0.06704026959
2.64,-0.007146397243,0.06702983454
2.65,-0.005339393198,0.06696597669
2.66,-0.003548790629,0.06685000341
2.67,-0.00177630923,0.06668329645
2.68,-2.357035371E-05,0.06646730561
2.69,0.001707906157,0.06620354217
2.7,0.003416704724,0.06589357213
2.71,0.005101516348,0.06553900936
2.72,0.006761140488,0.06514150865
2.73,0.008394486489,0.0647027586
2.74,0.01000057457,0.06422447453
2.75,0.01157853636,0.06370839135
2.76,0.01312761495,0.06315625638
2.77,0.01464716457,0.06256982227
2.78,0.0161366497,0.06195083995
2.79,0.01759564388,0.0613010516
2.8,0.01902382796,0.0606221839
2.81,0.020420988,0.05991594119
2.82,0.02178701269,0.05918399904
2.83,0.02312189042,0.05842799779
2.84,0.02442570594,0.05764953649
2.85,0.0256986366,0.05685016695
2.86,0.0269409483,0.05603138812
2.87,0.02815299099,0.05519464078
2.88,0.02933519397,0.05434130246
2.89,0.03048806078,0.05347268274
2.9,0.03161216386,0.05259001893
2.91,0.03270813889,0.05169447202
2.92,0.03377667898,0.05078712311
2.93,0.03481852858,0.04986897018
2.94,0.03583447717,0.04894092526
2.95,0.03682535289,0.04800381208
2.96,0.03779201594,0.04705836408
2.97,0.03873535193,0.04610522289
2.98,0.03965626508,0.04514493727
2.99,0.04055567145,0.04417796246
3,0.04143449209,0.04320466001
3.01,0.04229364621,0.04222529805
3.02,0.04313404439,0.04124005201
3.03,0.04395658182,0.0402490058
3.04,0.0447621317,0.03925215342
3.05,0.04555153866,0.03824940104
3.06,0.04632561241,0.03724056943
3.07,0.04708512154,0.03622539692
3.08,0.04783078747,0.0352035427
3.09,0.04856327871,0.03417459051
3.1,0.0492832053,0.03313805275
3.11,0.04999111357,0.03209337497
3.12,0.05068748117,0.03103994061
3.13,0.05137271242,0.0299770762
3.14,0.05204713405,0.02890405676
3.15,0.05271099123,0.02782011157
3.16,0.05336444401,0.02672443013
3.17,0.05400756418,0.02561616844
3.18,0.05464033249,0.02449445538
3.19,0.05526263636,0.02335839942
3.2,0.05587426795,0.02220709541
3.21,0.05647492272,0.02103963146
3.22,0.05706419848,0.01985509605
3.23,0.05764159482,0.01865258512
3.24,0.05820651307,0.01743120922
3.25,0.05875825672,0.01619010071
3.26,0.0592960323,0.01492842096
3.27,0.05981895073,0.01364536743
3.28,0.06032602913,0.01234018076
3.29,0.06081619319,0.01101215174
3.3,0.06128827982,0.009660628124
3.31,0.06174104042,0.00828502129
3.32,0.06217314453,0.006884812747
3.33,0.06258318386,0.005459560384
3.34,0.06296967683,0.004008904502
3.35,0.06333107348,0.002532573559
3.36,0.06366576069,0.001030389636
3.37,0.06397206793,-0.0004977264332
3.38,0.06424827317,-0.002051750264
3.39,0.0644926093,-0.003631549492
3.4,0.06470327069,-0.005236879736
3.41,0.06487842019,-0.006867380961
3.42,0.06501619623,-0.008522574267
3.43,0.06511472029,-0.01020185912
3.44,0.06517210449,-0.01190451105
3.45,0.06518645939,-0.01362967979
3.46,0.06515590191,-0.01537638793
3.47,0.06507856339,-0.01714353004
3.48,0.06495259776,-0.0189298723
3.49,0.06477618969,-0.02073405263
3.5,0.06454756288,-0.02255458136
3.51,0.06426498822,-0.02438984236
3.52,0.06392679198,-0.0262380947
3.53,0.06353136398,-0.02809747487
3.54,0.06307716551,-0.02996599943
3.55,0.06256273731,-0.03184156825
3.56,0.06198670721,-0.03372196813
3.57,0.06134779769,-0.03560487704
3.58,0.06064483319,-0.03748786872
3.59,0.05987674713,-0.03936841781
3.6,0.05904258869,-0.04124390542
3.61,0.05814152929,-0.04311162509
3.62,0.05717286867,-0.04496878924
3.63,0.05613604069,-0.04681253592
3.64,0.05503061866,-0.04863993598
3.65,0.05385632037,-0.05044800064
3.66,0.05261301256,-0.05223368926
3.67,0.05130071503,-0.05399391755
3.68,0.04991960427,-0.05572556594
3.69,0.04847001653,-0.05742548825
3.7,0.04695245053,-0.05909052056
3.71,0.04536756948,-0.06071749031
3.72,0.04371620269,-0.06230322546
3.73,0.04199934665,-0.06384456384
3.74,0.04021816545,-0.06533836262
3.75,0.03837399078,-0.06678150776
3.76,0.03646832128,-0.06817092352
3.77,0.03450282139,-0.06950358199
3.78,0.03247931957,-0.07077651253
3.79,0.03039980609,-0.07198681118
3.8,0.0282664301,-0.07313164992
3.81,0.02608149629,-0.07420828582
3.82,0.02384746093,-0.07521407
3.83,0.02156692742,-0.0761464564
3.84,0.01924264133,-0.07700301026
3.85,0.01687748489,-0.07778141644
3.86,0.014474471,-0.07847948729
3.87,0.01203673685,-0.07909517034
3.88,0.009567536967,-0.0796265555
3.89,0.007070235902,-0.08007188202
3.9,0.004548300515,-0.08042954489
3.91,0.002005291839,-0.0806981009
3.92,-0.0005551433958,-0.08087627424
3.93,-0.003129281569,-0.08096296157
3.94,-0.005713331285,-0.08095723665
3.95,-0.008303442762,-0.0808583544
3.96,-0.01089571746,-0.08066575449
3.97,-0.01348621794,-0.08037906428
3.98,-0.01607097787,-0.07999810136
3.99,-0.01864601221,-0.07952287534
4,-0.02120732747,-0.0789535892
4.01,-0.02375093215,-0.07829063997
4.02,-0.02627284705,-0.07753461887
4.03,-0.02876911578,-0.07668631082
4.04,-0.03123581507,-0.0757466934
4.05,-0.03366906521,-0.07471693514
4.06,-0.03606504018,-0.07359839334
4.07,-0.03841997786,-0.07239261119
4.08,-0.0407301899,-0.07110131439
4.09,-0.04299207152,-0.06972640718
4.1,-0.04520211104,-0.06826996781
4.11,-0.04735689909,-0.06673424349
4.12,-0.04945313762,-0.0651216448
4.13,-0.05148764852,-0.06343473963
4.14,-0.05345738191,-0.06167624655
4.15,-0.05535942407,-0.05984902785
4.16,-0.05719100488,-0.05795608201
4.17,-0.05894950496,-0.0560005358
4.18,-0.06063246219,-0.05398563603
4.19,-0.06223757791,-0.05191474089
4.2,-0.06376272248,-0.04979131096
4.21,-0.06520594042,-0.04761889991
4.22,-0.06656545497,-0.04540114497
4.23,-0.06783967206,-0.04314175711
4.24,-0.06902718381,-0.04084451102
4.25,-0.07012677137,-0.03851323495
4.26,-0.07113740718,-0.03615180034
4.27,-0.07205825668,-0.03376411146
4.28,-0.0728886794,-0.03135409482
4.29,-0.07362822941,-0.0289256887
4.3,-0.07427665523,-0.02648283258
4.31,-0.07483389908,-0.02402945666
4.32,-0.07530009559,-0.0215694714
4.33,-0.07567556986,-0.01910675724
4.34,-0.07596083495,-0.01664515438
4.35,-0.07615658883,-0.01418845279
4.36,-0.07626371071,-0.01174038244
4.37,-0.07628325686,-0.009304603703
4.38,-0.0762164559,-0.006884698115
4.39,-0.07606470349,-0.004484159385
4.4,-0.07582955667,-0.002106384766
4.41,-0.07551272759,0.0002453332178
4.42,-0.07511607682,0.002567814651
4.43,-0.07464160628,0.004857999687
4.44,-0.07409145174,0.00711295557
4.45,-0.07346787487,0.009329883187
4.46,-0.07277325508,0.01150612314
4.47,-0.07201008094,0.0136391613
4.48,-0.07118094134,0.01572663387
4.49,-0.07028851639,0.01776633185
4.5,-0.06933556812,0.01975620503
4.51,-0.06832493101,0.02169436533
4.52,-0.06725950226,0.02357908966
4.53,-0.06614223209,0.02540882212
4.54,-0.06497611383,0.02718217564
4.55,-0.06376417406,0.02889793306
4.56,-0.06250946265,0.03055504761
4.57,-0.06121504287,0.03215264274
4.58,-0.05988398161,0.03369001144
4.59,-0.05851933953,0.03516661495
4.6,-0.05712416155,0.03658208089
4.61,-0.05570146733,0.03793620086
4.62,-0.05425424201,0.03922892741
4.63,-0.05278542722,0.04046037058
4.64,-0.05129791229,0.04163079383
4.65,-0.04979452573,0.0427406095
4.66,-0.04827802715,0.0437903738
4.67,-0.04675109936,0.04478078129
4.68,-0.04521634101,0.04571265897
4.69,-0.0436762595,0.0465869599
4.7,-0.0421332644,0.04740475648
4.71,-0.0405896613,0.04816723333
4.72,-0.03904764606,0.04887567985
4.73,-0.03750929969,0.04953148246
4.74,-0.03597658356,0.0501361166
4.75,-0.03445133531,0.05069113842
4.76,-0.0329352651,0.05119817634
4.77,-0.03142995261,0.05165892237
4.78,-0.0299368444,0.05207512332
4.79,-0.02845725197,0.05244857189
4.8,-0.02699235031,0.05278109767
4.81,-0.02554317705,0.05307455816
4.82,-0.02411063217,0.05333082969
4.83,-0.02269547825,0.05355179847
4.84,-0.02129834133,0.05373935164
4.85,-0.01991971229,0.05389536844
4.86,-0.0185599488,0.05402171152
4.87,-0.01721927778,0.05412021843
4.88,-0.01589779841,0.05419269326
4.89,-0.01459548568,0.05424089859
4.9,-0.01331219433,0.05426654763
4.91,-0.01204766342,0.05427129671
4.92,-0.01080152122,0.05425673802
4.93,-0.009573290606,0.05422439284
4.94,-0.008362394885,0.05417570496
4.95,-0.007168163951,0.05411203465
4.96,-0.005989840846,0.054034653
4.97,-0.004826588646,0.05394473669
4.98,-0.003677497646,0.05384336323
4.99,-0.002541592833,0.05373150676
5,-0.001417841593,0.05361003418
5.01,-0.0003051616422,0.05347970201
5.02,0.0007975708721,0.05334115358
5.03,0.001891513113,0.05319491688
5.04,0.002977847188,0.05304140288
5.05,0.004057771703,0.05288090449
5.06,0.00513249327,0.05271359593
5.07,0.006203218006,0.05253953281
5.08,0.007271143059,0.05235865265
5.09,0.008337448189,0.052170776
5.1,0.009403287449,0.05197560811
5.11,0.01046978099,0.0517727411
5.12,0.01153800703,0.05156165673
5.13,0.01260899403,0.05134172957
5.14,0.01368371304,0.05111223083
5.15,0.01476307042,0.05087233254
5.16,0.01584790071,0.05062111229
5.17,0.01693895992,0.05035755837
5.18,0.01803691915,0.05008057541
5.19,0.0191423585,0.04978899034
5.2,0.02025576153,0.0494815588
5.21,0.02137750997,0.04915697191
5.22,0.02250787901,0.04881386335
5.23,0.02364703301,0.04845081675
5.24,0.02479502162,0.04806637335
5.25,0.02595177655,0.04765903995
5.26,0.0271171087,0.047227297
5.27,0.02829070592,0.04676960692
5.28,0.02947213128,0.04628442259
5.29,0.03066082183,0.04577019588
5.3,0.03185608802,0.0452253863
5.31,0.03305711361,0.04464846974
5.32,0.03426295612,0.04403794713
5.33,0.03547254789,0.04339235316
5.34,0.03668469769,0.04271026486
5.35,0.03789809284,0.04199031014
5.36,0.03911130196,0.04123117622
5.37,0.04032277817,0.04043161779
5.38,0.04153086285,0.03959046513
5.39,0.04273378997,0.03870663185
5.4,0.04392969084,0.03777912244
5.41,0.04511659938,0.03680703955
5.42,0.04629245788,0.0357895909
5.43,0.04745512316,0.03472609584
5.44,0.04860237319,0.03361599157
5.45,0.04973191411,0.03245883888
5.46,0.05084138757,0.03125432758
5.47,0.0519283785,0.03000228133
5.48,0.05299042315,0.02870266212
5.49,0.05402501744,0.02735557416
5.5,0.05502962554,0.02596126733
5.51,0.05600168871,0.02452014009
5.52,0.05693863433,0.02303274175
5.53,0.0578378851,0.02149977435
5.54,0.0586968683,0.01992209385
5.55,0.05951302529,0.01830071077
5.56,0.06028382087,0.0166367903
5.57,0.06100675287,0.01493165178
5.58,0.06167936154,0.01318676763
5.59,0.06229923903,0.01140376164
5.6,0.0628640387,0.009584406777
5.61,0.06337148438,0.007730622329
5.62,0.06381937939,0.005844470525
5.63,0.06420561544,0.003928152596
5.64,0.06452818128,0.001984004281
5.65,0.06478517109,1.449080567E-05
5.66,0.06497479259,-0.00197779865
5.67,0.06509537482,-0.003990156988
5.68,0.0651453756,-0.006019765707
5.69,0.06512338852,-0.008063701871
5.7,0.06502814968,-0.01011894551
5.71,0.0648585438,-0.01218238744
5.72,0.06461361006,-0.01425083746
5.73,0.06429254732,-0.01632103288
5.74,0.06389471892,-0.01838964742
5.75,0.0634196569,-0.02045330039
5.76,0.06286706572,-0.02250856609
5.77,0.06223682541,-0.02455198352
5.78,0.06152899415,-0.02658006619
5.79,0.06074381027,-0.0285893122
5.8,0.05988169366,-0.03057621434
5.81,0.05894324656,-0.03253727039
5.82,0.05792925381,-0.03446899339
5.83,0.05684068238,-0.03636792193
5.84,0.05567868043,-0.03823063055
5.85,0.05444457566,-0.04005373987
5.86,0.05313987309,-0.04183392686
5.87,0.05176625226,-0.04356793481
5.88,0.05032556382,-0.04525258321
5.89,0.04881982554,-0.04688477746
5.9,0.04725121775,-0.04846151831
5.91,0.04562207827,-0.04997991101
5.92,0.04393489673,-0.05143717424
5.93,0.04219230845,-0.05283064862
5.94,0.04039708775,-0.05415780496
5.95,0.03855214083,-0.05541625201
5.96,0.03666049819,-0.05660374392
5.97,0.0347253066,-0.0577181871
5.98,0.03274982072,-0.05875764677
5.99,0.03073739426,-0.0597203529
6,0.02869147091,-0.06060470572
