"Freq [GHz]","re(S(Antenna1_1_p1,Antenna1_1_p1)) []","im(S(Antenna1_1_p1,Antenna1_1_p1)) []"
3,0.0460306592723872,-0.096615936798587
3.002,0.0450417121029999,-0.0957430875531278
3.004,0.0441421004219265,-0.094858380004613
3.006,0.0433177690355175,-0.0939743346128325
3.008,0.0425783872700517,-0.0930839207720777
3.01,0.0419674928432745,-0.0922382893378913
3.012,0.0413292905359965,-0.0913146536272454
3.014,0.0408736989037069,-0.09048484281384
3.016,0.0404336966481895,-0.089629353203087
3.018,0.0400389348192424,-0.088755900996679
3.02,0.0397505812463935,-0.087944876422505
3.022,0.0395616394206598,-0.087166897619112
3.024,0.0394193543363809,-0.086421191159568
3.026,0.0393449328331175,-0.085706826864792
3.028,0.0393389737475956,-0.085033843606353
3.03,0.0393777686857071,-0.084414260578811
3.032,0.0394996685246373,-0.083829055151385
3.034,0.0396602514150112,-0.08335987771926
3.036,0.0398603828231525,-0.082831469544279
3.038,0.0401278967834368,-0.082415670505175
3.04,0.0404291243407017,-0.082053164347268
3.042,0.040766892772807,-0.081753063001676
3.044,0.04114344560324,-0.081516663674039
3.046,0.0415496881538701,-0.081341851022736
3.048,0.041985955957786,-0.081233989416616
3.05,0.0424320059422692,-0.081200404112254
3.052,0.042913185191858,-0.081218224130705
3.054,0.04340485978155,-0.081316606283839
3.056,0.0438893609401328,-0.081463911530182
3.058,0.0444048183036504,-0.081706971030212
3.06,0.0449014863489762,-0.08207336599134
3.062,0.0454278159435629,-0.082365257932313
3.064,0.0459274605662852,-0.082798217607263
3.066,0.0464115426104716,-0.083296968799194
3.068,0.0468959130390752,-0.083856249793156
3.07,0.0473638539099626,-0.0844835825089
3.072,0.0477911667984154,-0.085167442593082
3.074,0.0482079122700382,-0.085917345751131
3.076,0.0485940617450651,-0.086724939038602
3.078,0.0489261700703133,-0.087641198532142
3.08,0.0492381986812896,-0.088555288830073
3.082,0.0495649502340308,-0.08947327975249
3.084,0.049825723073247,-0.090487539370999
3.086,0.0499746387179667,-0.091607114238127
3.088,0.0501985617924046,-0.092662600526151
3.09,0.0503227495059499,-0.093817295795669
3.092,0.050401272260368,-0.095008349683825
3.094,0.0503765142032107,-0.096273640011958
3.096,0.0503996830844003,-0.097498899673094
3.098,0.0503335895029856,-0.098774144168897
3.1,0.0502247476341464,-0.100115447456316
3.102,0.0500401957963232,-0.10146231788408
3.104,0.0498092787288112,-0.102824534127592
3.106,0.049531350158891,-0.104217273696469
3.108,0.0491965893700803,-0.105602318077813
3.11,0.0488057988499295,-0.107042247631959
3.112,0.0483706760982531,-0.108482168006783
3.114,0.0478624699355584,-0.109920295191964
3.116,0.0473200004217158,-0.111363880462707
3.118,0.0467241233948076,-0.11283179744327
3.12,0.0460629150001886,-0.114286696290144
3.122,0.0453524305598488,-0.115742068284856
3.124,0.0445932687318793,-0.117207384556503
3.126,0.0437841062002858,-0.118658499443957
3.128,0.0429153663849227,-0.120104706527773
3.13,0.0420060920817671,-0.121543654901722
3.132,0.0410460711833201,-0.122979916824102
3.134,0.040031422209284,-0.124399383648731
3.136,0.038912790967521,-0.125803676675617
3.138,0.0378833832351748,-0.127225328149332
3.14,0.0367297948400765,-0.128604952124134
3.142,0.0355419792323442,-0.12998118812581
3.144,0.0343058414563022,-0.131338743369205
3.146,0.0330315321225488,-0.132686650563471
3.148,0.0317133674103658,-0.134011164975098
3.15,0.0303651307402879,-0.135306747081622
3.152,0.028946601286937,-0.136606865671515
3.154,0.027512818262177,-0.13787997205597
3.156,0.0260283942484208,-0.139130005797885
3.158,0.0245050001722343,-0.140351805105539
3.16,0.0229502564981932,-0.141572003404072
3.162,0.021352087342996,-0.142742850219263
3.164,0.0197163896697852,-0.14390042511696
3.166,0.0180415097628009,-0.14505006189277
3.168,0.0163335788122122,-0.146166136486574
3.17,0.0145911690292621,-0.147263060365821
3.172,0.012764210321635,-0.148275455459584
3.174,0.010943229799098,-0.149312732808355
3.176,0.0091239137194096,-0.150399645600713
3.178,0.0072349329244354,-0.151388768924705
3.18,0.0053006752366281,-0.152353388303031
3.182,0.0033257959856593,-0.153283968248046
3.184,0.0013358245553606,-0.154193154046555
3.186,-0.0006984327790488,-0.155060787644373
3.188,-0.0027843243235233,-0.15591327476075
3.19,-0.0049166798474359,-0.156667564092557
3.192,-0.0070437926356117,-0.157511254648312
3.194,-0.0092364916700576,-0.158260167731998
3.196,-0.0114661119614375,-0.158904001896725
3.198,-0.0137300912002961,-0.159642416528217
3.2,-0.0160263535979762,-0.160204584518068
3.202,-0.0183520317873491,-0.160866193966932
3.204,-0.020726302103184,-0.161340888287445
3.206,-0.0231400433323099,-0.161922236157038
3.208,-0.0255993171834999,-0.162381571400586
3.21,-0.0280682339870784,-0.16278509478289
3.212,-0.0305800286042741,-0.163148662611009
3.214,-0.0331161697062763,-0.163389471686442
3.216,-0.0357099402430783,-0.163711232147167
3.218,-0.0383119648719802,-0.163899744539524
3.22,-0.0409718507258896,-0.164047394300005
3.222,-0.0436305881813105,-0.164124376326815
3.224,-0.0463461282351017,-0.164132257631418
3.226,-0.0490580296789182,-0.16409465390985
3.228,-0.0518234844044161,-0.163968702983954
3.23,-0.0545895042332065,-0.163791458022507
3.232,-0.0573380581034913,-0.163465999442175
3.234,-0.0601801731354804,-0.163193838548403
3.236,-0.063009010721183,-0.162796642936159
3.238,-0.0658550360548185,-0.162316011330569
3.24,-0.0687064101413694,-0.161755332067458
3.242,-0.0715585808709061,-0.161110785003793
3.244,-0.0744291640391684,-0.160388545217981
3.246,-0.077275656317613,-0.159593290410128
3.248,-0.0800741449699803,-0.158658605792137
3.25,-0.0829408761724992,-0.157693663227781
3.252,-0.0858394733369234,-0.156673819762633
3.254,-0.0886798768192231,-0.155536056703938
3.256,-0.0914952546720309,-0.154296633860383
3.258,-0.0942896764398637,-0.152990332921805
3.26,-0.096991923062013,-0.151562386838794
3.262,-0.0997942052152309,-0.150105263522253
3.264,-0.102509417156102,-0.148528503272867
3.266,-0.105180951153173,-0.146870491030483
3.268,-0.107817946178842,-0.145127741973469
3.27,-0.110410380880925,-0.143296301087985
3.272,-0.11295577711403,-0.141405396617156
3.274,-0.115461884540596,-0.139407770280265
3.276,-0.117881817171741,-0.137341606721829
3.278,-0.120260037277794,-0.135202004370619
3.28,-0.12259201593858,-0.132962533768684
3.282,-0.124831481453474,-0.130682411500279
3.284,-0.127002568901142,-0.128314245770745
3.286,-0.129119198379069,-0.125878975305387
3.288,-0.131057177712811,-0.123411658348274
3.29,-0.133092275824976,-0.120826281871023
3.292,-0.134951548143971,-0.118212865691529
3.294,-0.136737005742459,-0.115545680392683
3.296,-0.138435098865602,-0.112853640371055
3.298,-0.140036962309017,-0.110077565255541
3.3,-0.141557649776485,-0.107284867990977
3.302,-0.142972950727401,-0.104459287085783
3.304,-0.144287330433971,-0.101567385076499
3.306,-0.145510848378186,-0.0986825575213946
3.308,-0.146649639018481,-0.0957531635060116
3.31,-0.147672502676183,-0.092802761019278
3.312,-0.148597355551738,-0.0898202598121005
3.314,-0.149410107530602,-0.0868672070788205
3.316,-0.150073322778956,-0.0839250885487823
3.318,-0.150765865539156,-0.0809047952048324
3.32,-0.151221029044918,-0.0779928679312342
3.322,-0.151705867096244,-0.0749555593451902
3.324,-0.152029555894161,-0.0720051735923709
3.326,-0.152249935305144,-0.0690603668264426
3.328,-0.152365313245334,-0.0661367408385907
3.33,-0.152401004374514,-0.0632554874091052
3.332,-0.152344344629803,-0.0603952308458989
3.334,-0.152196346539151,-0.0575602440931291
3.336,-0.151984976624604,-0.0547774567297856
3.338,-0.151630169885247,-0.0520414525182834
3.34,-0.151226038240002,-0.0493291303831442
3.342,-0.150741943310126,-0.0466979601696365
3.344,-0.150149118411499,-0.0440918769624825
3.346,-0.149526904506659,-0.0415602207545703
3.348,-0.148814253676631,-0.0390768968857129
3.35,-0.148005342572474,-0.036655204701455
3.352,-0.147155097156631,-0.0342988289218617
3.354,-0.146245691564032,-0.0320938126704176
3.356,-0.145278890892974,-0.0297904530228962
3.358,-0.144259752895741,-0.0276439969763293
3.36,-0.143174896209048,-0.0255646650479887
3.362,-0.142094849834194,-0.0235552584244171
3.364,-0.140962879497034,-0.0217146793105198
3.366,-0.139726373707697,-0.0197651028486916
3.368,-0.138526752440099,-0.0180144089480128
3.37,-0.137265974111204,-0.0163670152034807
3.372,-0.135947569900098,-0.0146756629453162
3.374,-0.134711070579788,-0.0131993693583304
3.376,-0.133352224690842,-0.0116658247613154
3.378,-0.132057138049772,-0.0103503622665588
3.38,-0.13066580517418,-0.0089613479693595
3.382,-0.129389158972234,-0.0077762986476676
3.384,-0.127986648886887,-0.0065395289817444
3.386,-0.126630131306414,-0.005457927443935
3.388,-0.125292881259689,-0.0044401030484745
3.39,-0.124018721721798,-0.0035569211213831
3.392,-0.122684851503399,-0.0026688198704763
3.394,-0.121307351435402,-0.0017924642353839
3.396,-0.120007545377427,-0.0010632085877036
3.398,-0.118726830126031,-0.0003723451611993
3.4,-0.117492311227788,0.000259724917873502
3.402,-0.116340337131073,0.000788215400398799
3.404,-0.115065408071757,0.0013514704039165
3.406,-0.113886184608559,0.0017959124020758
3.408,-0.112748560358336,0.00218861934395
3.41,-0.111641799171074,0.0025558916533111
3.412,-0.110556690384713,0.0028333303577845
3.414,-0.109500195009788,0.0030886699079009
3.416,-0.10849060185385,0.0032875544260564
3.418,-0.107608762045692,0.0034586225653919
3.42,-0.106669398039408,0.0035652922585235
3.422,-0.105712730668225,0.0037031930162195
3.424,-0.104847206098167,0.003757585015937
3.426,-0.104049389111508,0.0037935903402775
3.428,-0.103259749820079,0.0038067681753154
3.43,-0.102621295958331,0.0037463225688038
3.432,-0.101855906426248,0.0037221447083076
3.434,-0.101201712252069,0.0036504690791964
3.436,-0.100572761434843,0.0035466437325132
3.438,-0.100021881386747,0.0034193166927546
3.44,-0.099491364365315,0.0033011289454898
3.442,-0.099018994115395,0.0031572023349245
3.444,-0.098581755421002,0.0030044692812631
3.446,-0.098192125866934,0.00283773533801339
3.448,-0.097833059780294,0.0026605083691348
3.45,-0.097524579141751,0.00248594653205225
3.452,-0.097325480686694,0.00231724075757778
3.454,-0.097096978636179,0.00210947730765357
3.456,-0.096813964687762,0.00188209127601917
3.458,-0.096632388056086,0.00166250747467506
3.46,-0.096557094793375,0.00145903772130837
3.462,-0.09646616487974,0.00127892199597019
3.464,-0.096420724253315,0.00108102148871692
3.466,-0.09642933204024,0.00085682896654004
3.468,-0.096454441944509,0.00067436973420474
3.47,-0.09654057302762,0.000471708569422601
3.472,-0.096653763368117,0.00028010920687292
3.474,-0.09680072324093,0.00010039182261661
3.476,-0.096983580236626,-7.78145356884006E-05
3.478,-0.097212385110446,-0.0002481426836532
3.48,-0.097460357351248,-0.0003895298042444
3.482,-0.097763278250277,-0.000522245069948701
3.484,-0.098086982469791,-0.000683553317162699
3.486,-0.098455349321562,-0.0007991201816594
3.488,-0.098852624295227,-0.000912100564258903
3.49,-0.099285934236493,-0.0010030634366426
3.492,-0.099764087605232,-0.0010748931573103
3.494,-0.100261919213395,-0.0011268262877207
3.496,-0.100806259792865,-0.001164482908537
3.498,-0.101373752363101,-0.0011892182261169
3.5,-0.101982622818695,-0.00110026636906814
3.502,-0.102633790676824,-0.0011451738350349
3.504,-0.103301755144503,-0.0011004193276262
3.506,-0.104015963925821,-0.0010182749234859
3.508,-0.104766647958933,-0.000916049239565803
3.51,-0.105537307473048,-0.000778243300527802
3.512,-0.106344828495218,-0.000618100136363202
3.514,-0.107168090037046,-0.0003939427001
3.516,-0.108063796851291,-0.000190274465768199
3.518,-0.108963321458324,8.67543335330984E-05
3.52,-0.109889147312516,0.000375324147347394
3.522,-0.110852924598488,0.000728929039451397
3.524,-0.11185542345727,0.0011135023592149
3.526,-0.112822945912351,0.0016345273228455
3.528,-0.113898369915635,0.0020182850744167
3.53,-0.114911303733279,0.0026248933567345
3.532,-0.116045752511471,0.0031114066620371
3.534,-0.117151277543063,0.0037298246224984
3.536,-0.118277449377135,0.0044087390405535
3.538,-0.119432217640494,0.00513349346910399
3.54,-0.12051313962702,0.0060050271114222
3.542,-0.121764133312001,0.0067693027410213
3.544,-0.12292462627811,0.0076526763712127
3.546,-0.12413014734955,0.0086383849545896
3.548,-0.125334953888099,0.0096430804022344
3.55,-0.126532907437067,0.0107516430928438
3.552,-0.127740313933199,0.0119013051915516
3.554,-0.128949851437678,0.0131156708586826
3.556,-0.130103343168874,0.0144188883182487
3.558,-0.131330229888016,0.0157692086662887
3.56,-0.132494341222794,0.0171922669990024
3.562,-0.133583406249887,0.0187278949807256
3.564,-0.134805528156437,0.0202490624617101
3.566,-0.135931844204482,0.0218934357756854
3.568,-0.13701760779527,0.0235770290172709
3.57,-0.138108970263569,0.0253772826392099
3.572,-0.139137744061901,0.0272222848493531
3.574,-0.140148818554728,0.0291454948675179
3.576,-0.141100647532573,0.0311301289321303
3.578,-0.142052166806098,0.033203643386669
3.58,-0.142898407470155,0.0353164911659463
3.582,-0.143633585257755,0.0375263515521691
3.584,-0.144490207374027,0.039756818240838
3.586,-0.145198809000117,0.0420711958264247
3.588,-0.145848614697043,0.0444411739678896
3.59,-0.146329895509549,0.0468656049739944
3.592,-0.146847220469871,0.0493517476084159
3.594,-0.147390331871522,0.0519179621746786
3.596,-0.147766710433021,0.0545106367208876
3.598,-0.148057502371576,0.0571675981043024
3.6,-0.148261908476798,0.0598179024156428
3.602,-0.148397922194316,0.062588923873311
3.604,-0.148342170209454,0.0653289902173087
3.606,-0.148394292560802,0.0681651587730682
3.608,-0.148241111903851,0.0710066674150054
3.61,-0.148002363394548,0.0738728156299266
3.612,-0.147686046012881,0.0767607187842414
3.614,-0.14726115864643,0.0796658726719679
3.616,-0.146732422963914,0.0825834793915591
3.618,-0.146109375218756,0.085514966259539
3.62,-0.145380090342583,0.0884481252218458
3.622,-0.144539335788812,0.0914020243845597
3.624,-0.143622246306141,0.0943295297639854
3.626,-0.14251573868212,0.0971787913675147
3.628,-0.141444809136685,0.100164813006809
3.63,-0.140206692755703,0.103054380895369
3.632,-0.13886167295454,0.105946052162858
3.634,-0.137422664031614,0.108786119927207
3.636,-0.135879633932009,0.111588098818514
3.638,-0.134252981631026,0.114338289166804
3.64,-0.132487885467843,0.117055796112568
3.642,-0.130642055849116,0.119797978477104
3.644,-0.128712686892646,0.122441197692696
3.646,-0.126695503961053,0.125045636542607
3.648,-0.124520003985477,0.127458367550864
3.65,-0.122389576819315,0.12997971011186
3.652,-0.120065330071975,0.132307337199808
3.654,-0.117679414732655,0.134751932037948
3.656,-0.115212453184194,0.136998811717621
3.658,-0.112687435126905,0.139183370017148
3.66,-0.11008806905248,0.141284257510507
3.662,-0.107411701487944,0.143288275145842
3.664,-0.104661887379604,0.145206317973797
3.666,-0.101862475147095,0.147049197185651
3.668,-0.0990077976974271,0.148812852451292
3.67,-0.0960808017291147,0.150437168977007
3.672,-0.0931561659763519,0.151987145493068
3.674,-0.0901191237531932,0.153451106291169
3.676,-0.0870670648078499,0.154806782131703
3.678,-0.0839987013270144,0.156047473470789
3.68,-0.0808677226202285,0.157200010447218
3.682,-0.0777212186043316,0.158244647629147
3.684,-0.0745552229779687,0.159195262680662
3.686,-0.0713737075531483,0.160024078018165
3.688,-0.068186414485882,0.160752575556555
3.69,-0.0649965062038625,0.161395623625286
3.692,-0.0618035302692549,0.161809117974221
3.694,-0.058534798838795,0.162305514189341
3.696,-0.0553322710673013,0.162626195938246
3.698,-0.0521272302364635,0.162845935985544
3.7,-0.048947968605104,0.16293701151803
3.702,-0.0457739640497052,0.162946571879723
3.704,-0.0426178650993483,0.162844260076724
3.706,-0.0395072279690189,0.162641654971918
3.708,-0.0364076468829834,0.162362981169536
3.71,-0.0333383373142514,0.1619864030495
3.712,-0.0303098848181272,0.161507705651676
3.714,-0.027323160057879,0.160940516019918
3.716,-0.0244747022204147,0.160226218305981
3.718,-0.0214720639421621,0.159545437413269
3.72,-0.0186268298049527,0.158724658310434
3.722,-0.0158248111220388,0.157816800354807
3.724,-0.013105519434209,0.156846193465697
3.726,-0.0103939227759882,0.155776682987529
3.728,-0.0077681191819552,0.154654909582823
3.73,-0.0053108466931279,0.153434802135062
3.732,-0.0026957915635063,0.152184645161342
3.734,-0.000276801276662499,0.150887541814959
3.736,0.0021154438075177,0.149479662227801
3.738,0.0044289217560143,0.148037588772591
3.74,0.0066410149357233,0.146547821405037
3.742,0.00880079757642339,0.14501735558579
3.744,0.010915623773595,0.1434004771523
3.746,0.0128895392411423,0.141789242050493
3.748,0.0147438790540168,0.14012007862637
3.75,0.016744773380683,0.138383030997433
3.752,0.0185352668655076,0.136635771643967
3.754,0.0202461402410137,0.134850403510228
3.756,0.0218835535999997,0.133053845345486
3.758,0.0234605193775497,0.131213589494918
3.76,0.0249413650129348,0.129360395650421
3.762,0.0263398989313429,0.127489950831226
3.764,0.0276807991855435,0.125583984843489
3.766,0.0289362938573683,0.123682397607677
3.768,0.0301241561791009,0.121762940372851
3.77,0.0312555983547261,0.119822377383864
3.772,0.0322793852810292,0.117898893875822
3.774,0.0332309714385929,0.115962163317994
3.776,0.0341172113826362,0.114039772373683
3.778,0.0349207606137303,0.112094603636911
3.78,0.0355720193283746,0.110234551897047
3.782,0.0363530342794344,0.108219238032885
3.784,0.0369195365364397,0.106310711097062
3.786,0.0374447128757538,0.10441116933731
3.788,0.0379089598505819,0.102508504835673
3.79,0.0382383492808545,0.100730645137565
3.792,0.0385618859829593,0.098901748121754
3.794,0.0388978259893377,0.096904536419247
3.796,0.0390723091879187,0.095099524292083
3.798,0.0391939719514331,0.093310284452006
3.8,0.0392133802665532,0.091642935319077
3.802,0.0392353115429092,0.089876895810191
3.804,0.039208210921936,0.088062582757454
3.806,0.0391076251955755,0.086352280146585
3.808,0.0389131004448525,0.084727880775074
3.81,0.0386922582982498,0.083092926860413
3.812,0.0383805999699829,0.081630961878143
3.814,0.0380489958180902,0.079963865759862
3.816,0.0376663534923718,0.078446807411147
3.818,0.0372101070221842,0.076992207279396
3.82,0.0367114953040711,0.075687305461597
3.822,0.0361618272992572,0.074181460302044
3.824,0.0355866877009409,0.072923954459941
3.826,0.0349420082714711,0.071527352186983
3.828,0.0342597863993591,0.070289631244835
3.83,0.0335352359661134,0.069113241152572
3.832,0.0327717591429344,0.06792470348403
3.834,0.031970761477221,0.066885923105142
3.836,0.0311190320289614,0.065850841691143
3.838,0.0302540318069229,0.064871336873797
3.84,0.0293411695246799,0.063935145788522
3.842,0.0284030066565272,0.063086423301449
3.844,0.0274985010041687,0.062411631626506
3.846,0.026439820804273,0.061551515502342
3.848,0.025502859660873,0.060978989029313
3.85,0.0243919414195855,0.060265519806336
3.852,0.023319756595659,0.05971136495777
3.854,0.0222517765007963,0.059234387820213
3.856,0.0211650016383614,0.058815517529251
3.858,0.0200706231819444,0.058417649716237
3.86,0.018932321097777,0.058180913684943
3.862,0.0179079393864504,0.05803925336826
3.864,0.0166901855090784,0.057820998404821
3.866,0.0155450028992071,0.057743982895613
3.868,0.0144253198795446,0.057740344320543
3.87,0.0134166115595121,0.057865132475022
3.872,0.0121701998676653,0.057943283206482
3.874,0.0110810519349071,0.058157378280894
3.876,0.0099968546975539,0.058436723049267
3.878,0.0089214315502417,0.05878871968413
3.88,0.0078600459286352,0.059209638855995
3.882,0.0069420689320098,0.059746874419816
3.884,0.0058234649656259,0.060264405821439
3.886,0.0048275033429743,0.060888293004021
3.888,0.0039023356378174,0.061536696924479
3.89,0.0029966863460879,0.062299043399916
3.892,0.0021039925176088,0.063168258214054
3.894,0.0012957531876607,0.064082906403631
3.896,0.000636307748354097,0.06503350089488
3.898,-0.000234436450130604,0.0660442812599227
3.9,-0.000776965068489399,0.067107974843221
3.902,-0.0015409424474188,0.0682478290180452
3.904,-0.0021459995268671,0.0693955839729138
3.906,-0.0024985647454996,0.0706595502880863
3.908,-0.003106399480284,0.0719177221820246
