"Freq [GHz]","re(S(Tx_p1,Tx_p1)) []","im(S(Tx_p1,Tx_p1)) []"
1,-0.01558122749,-0.004403121884
1.01,-0.01557945658,-0.00343802098
1.02,-0.01552296348,-0.002480679337
1.03,-0.01541235277,-0.001534253551
1.04,-0.01524842429,-0.0006018591402
1.05,-0.01503216983,0.0003134420916
1.06,-0.0147647689,0.001208654378
1.07,-0.01444758374,0.00208085996
1.08,-0.01408215367,0.002927230652
1.09,-0.01367018858,0.00374503896
1.1,-0.01321356189,0.004531668714
1.11,-0.01271430275,0.00528462517
1.12,-0.01217458769,0.006001544545
1.13,-0.01159673171,0.006680202952
1.14,-0.01098317879,0.00731852471
1.15,-0.01033649198,0.00791458998
1.16,-0.009659343029,0.008466641724
1.17,-0.008954501601,0.008973091949
1.18,-0.008224824202,0.009432527222
1.19,-0.007473242779,0.009843713437
1.2,-0.006702753087,0.01020559982
1.21,-0.00591640287,0.01051732217
1.22,-0.005117279897,0.0107782053
1.23,-0.004308499911,0.01098776475
1.24,-0.003493194541,0.01114570761
1.25,-0.002674499223,0.01125193272
1.26,-0.001855541187,0.01130652994
1.27,-0.001039427558,0.01130977878
1.28,-0.0002292336074,0.01126214616
1.29,0.0005720087766,0.01116428357
1.3,0.001361322372,0.01101702338
1.31,0.002135795605,0.01082137455
1.32,0.002892593193,0.01057851762
1.33,0.003628966407,0.01028979903
1.34,0.004342262907,0.009956724906
1.35,0.005029936128,0.009580954186
1.36,0.005689554167,0.009164291202
1.37,0.006318808149,0.008708677772
1.38,0.006915520042,0.008216184793
1.39,0.00747764988,0.007689003396
1.4,0.008003302394,0.0071294357
1.41,0.008490733006,0.006539885207
1.42,0.008938353182,0.005922846877
1.43,0.009344735123,0.00528089694
1.44,0.009708615777,0.004616682463
1.45,0.01002890018,0.00393291075
1.46,0.01030466408,0.00323233859
1.47,0.0105351559,0.002517761423
1.48,0.01071979797,0.001792002449
1.49,0.01085818712,0.001057901741
1.5,0.01095009448,0.000318305393
1.51,0.01099546473,-0.0004239452409
1.52,0.01099441457,-0.001166024182
1.53,0.01094723062,-0.00190513129
1.54,0.01085436657,-0.002638502518
1.55,0.01071643986,-0.003363419914
1.56,0.01053422757,-0.004077221334
1.57,0.01030866192,-0.00477730983
1.58,0.01004082506,-0.005461162681
1.59,0.009731943448,-0.006126340025
1.6,0.00938338165,-0.006770493079
1.61,0.008996635721,-0.007391371894
1.62,0.008573326134,-0.007986832648
1.63,0.008115190316,-0.008554844422
1.64,0.007624074818,-0.009093495465
1.65,0.007101927152,-0.00960099891
1.66,0.00655078735,-0.01007569794
1.67,0.005972779258,-0.01051607037
1.68,0.005370101625,-0.01092073265
1.69,0.004745019016,-0.01128844329
1.7,0.004099852589,-0.01161810568
1.71,0.003436970775,-0.01190877026
1.72,0.002758779912,-0.01215963618
1.73,0.002067714845,-0.01237005232
1.74,0.001366229567,-0.01253951763
1.75,0.0006567879036,-0.01266768103
1.76,-5.814569527E-05,-0.01275434063
1.77,-0.0007761152349,-0.01279944241
1.78,-0.001494682085,-0.01280307832
1.79,-0.00221143369,-0.01276548388
1.8,-0.002923992035,-0.01268703526
1.81,-0.003630021861,-0.0125682458
1.82,-0.00432723857,-0.01240976213
1.83,-0.005013415811,-0.01221235977
1.84,-0.005686392721,-0.01197693835
1.85,-0.006344080788,-0.01170451637
1.86,-0.006984470316,-0.01139622567
1.87,-0.00760563648,-0.01105330546
1.88,-0.008205744942,-0.01067709606
1.89,-0.008783057017,-0.01026903244
1.9,-0.009335934382,-0.009830637386
1.91,-0.009862843301,-0.0093635145
1.92,-0.01036235837,-0.008869341032
1.93,-0.01083316577,-0.008349860525
1.94,-0.01127406604,-0.007806875354
1.95,-0.01168397631,-0.007242239172
1.96,-0.01206193209,-0.006657849302
1.97,-0.01240708851,-0.006055639114
1.98,-0.01271872112,-0.005437570403
1.99,-0.01299622615,-0.004805625813
2,-0.01323912036,-0.004161801337
2.01,-0.01344704032,-0.003508098913
2.02,-0.01361974136,-0.002846519162
2.03,-0.01375709597,-0.002179054277
2.04,-0.01385909186,-0.001507681104
2.05,-0.01392582953,-0.0008343544332
2.06,-0.01395751951,-0.0001610005295
2.07,-0.01395447921,0.0005104890821
2.08,-0.01391712943,0.001178263548
2.09,-0.01384599051,0.001840518322
2.1,-0.01374167824,0.00249550048
2.11,-0.01360489943,0.003141513706
2.12,-0.01343644725,0.003776922932
2.13,-0.01323719637,0.004400158619
2.14,-0.01300809787,0.005009720666
2.15,-0.01275017396,0.00560418195
2.16,-0.01246451261,0.006182191474
2.17,-0.012152262,0.006742477134
2.18,-0.01181462491,0.007283848092
2.19,-0.01145285305,0.007805196761
2.2,-0.01106824134,0.008305500393
2.21,-0.01066212219,0.008783822291
2.22,-0.01023585972,0.009239312629
2.23,-0.009790844191,0.009671208898
2.24,-0.009328486284,0.01007883599
2.25,-0.008850211639,0.01046160591
2.26,-0.00835745541,0.01081901715
2.27,-0.007851656986,0.01115065374
2.28,-0.007334254854,0.01145618395
2.29,-0.006806681635,0.01173535868
2.3,-0.006270359311,0.01198800963
2.31,-0.005726694655,0.0122140471
2.32,-0.005177074887,0.0124134576
2.33,-0.004622863555,0.0125863012
2.34,-0.004065396678,0.01273270867
2.35,-0.003505979132,0.0128528784
2.36,-0.002945881319,0.01294707323
2.37,-0.002386336094,0.01301561697
2.38,-0.001828535992,0.01305889097
2.39,-0.001273630722,0.01307733041
2.4,-0.0007227249686,0.01307142064
2.41,-0.0001768764672,0.01304169334
2.42,0.0003629056184,0.01298872273
2.43,0.0008956620364,0.01291312167
2.44,0.001420484499,0.0128155378
2.45,0.001936516456,0.0126966497
2.46,0.00244295359,0.01255716308
2.47,0.002939044044,0.01239780696
2.48,0.003424088397,0.01221933006
2.49,0.003897439379,0.0120224971
2.5,0.004358501351,0.0118080854
2.51,0.004806729566,0.01157688142
2.52,0.005241629201,0.01132967755
2.53,0.005662754203,0.01106726903
2.54,0.006069705937,0.01079045097
2.55,0.006462131672,0.01050001561
2.56,0.006839722904,0.01019674974
2.57,0.007202213548,0.009881432292
2.58,0.007549378,0.009554832138
2.59,0.007881029097,0.009217706087
2.6,0.00819701599,0.008870797091
2.61,0.008497221941,0.008514832659
2.62,0.00878156207,0.008150523477
2.63,0.009049981064,0.007778562237
2.64,0.009302450863,0.007399622682
2.65,0.009538968351,0.00701435885
2.66,0.009759553044,0.006623404527
2.67,0.009964244827,0.006227372896
2.68,0.01015310171,0.005826856378
2.69,0.01032619769,0.005422426663
2.7,0.01048362059,0.005014634913
2.71,0.01062547011,0.00460401214
2.72,0.01075185587,0.00419106974
2.73,0.01086289562,0.003776300173
2.74,0.01095871356,0.003360177789
2.75,0.01103943876,0.002943159765
2.76,0.01110520374,0.00252568717
2.77,0.01115614322,0.002108186116
2.78,0.01119239296,0.001691069001
2.79,0.01121408884,0.001274735819
2.8,0.01122136597,0.0008595755337
2.81,0.01121435815,0.0004459674838
2.82,0.01119319727,3.428282667E-05
2.83,0.01115801309,-0.0003751140119
2.84,0.01110893304,-0.0007818638864
2.85,0.0110460822,-0.001185611497
2.86,0.01096958353,-0.001586003984
2.87,0.01087955815,-0.001982689568
2.88,0.01077612581,-0.002375316239
2.89,0.01065940551,-0.00276353053
2.9,0.01052951625,-0.003146976355
2.91,0.01038657789,-0.003525293953
2.92,0.01023071219,-0.003898118929
2.93,0.01006204383,-0.004265081412
2.94,0.009880701721,-0.004625805336
2.95,0.009686820187,-0.00497990785
2.96,0.009480540402,-0.00532699887
2.97,0.009262011784,-0.005666680777
2.98,0.009031393479,-0.005998548258
2.99,0.008788855873,-0.006322188311
3,0.008534582127,-0.006637180404
3.01,0.008268769718,-0.00694309679
3.02,0.007991631985,-0.007239502993
3.03,0.007703399643,-0.007525958446
3.04,0.007404322273,-0.007802017291
3.05,0.007094669764,-0.008067229339
3.06,0.006774733692,-0.008321141184
3.07,0.006444828624,-0.00856329746
3.08,0.006105293346,-0.008793242252
3.09,0.005756491975,-0.009010520636
3.1,0.005398814973,-0.009214680355
3.11,0.005032680035,-0.009405273609
3.12,0.004658532838,-0.009581858967
3.13,0.004276847655,-0.009744003371
3.14,0.00388812781,-0.009891284234
3.15,0.003492905974,-0.01002329162
3.16,0.003091744293,-0.0101396305
3.17,0.002685234339,-0.010239923
3.18,0.002273996881,-0.01032381082
3.19,0.001858681473,-0.01039095753
3.2,0.001439965848,-0.01044105095
3.21,0.001018555126,-0.01047380556
3.22,0.0005951808237,-0.01048896483
3.23,0.000170599682,-0.01048630352
3.24,-0.0002544077109,-0.01046562997
3.25,-0.0006790384762,-0.01042678833
3.26,-0.001102469192,-0.01036966064
3.27,-0.001523857821,-0.0102941689
3.28,-0.001942345812,-0.01020027701
3.29,-0.002357060379,-0.01008799252
3.3,-0.002767116929,-0.009957368368
3.31,-0.003171621656,-0.009808504367
3.32,-0.003569674269,-0.009641548575
3.33,-0.003960370856,-0.009456698482
3.34,-0.004342806874,-0.009254202024
3.35,-0.004716080234,-0.009034358389
3.36,-0.005079294497,-0.008797518628
3.37,-0.005431562141,-0.008544086052
3.38,-0.005772007899,-0.008274516412
3.39,-0.006099772144,-0.007989317845
3.4,-0.006414014318,-0.007689050603
3.41,-0.00671391637,-0.007374326533
3.42,-0.006998686207,-0.007045808326
3.43,-0.007267561121,-0.006704208526
3.44,-0.007519811196,-0.006350288292
3.45,-0.007754742656,-0.005984855929
3.46,-0.007971701156,-0.005608765168
3.47,-0.008170074982,-0.005222913223
3.48,-0.008349298165,-0.004828238606
3.49,-0.008508853462,-0.004425718724
3.5,-0.008648275217,-0.004016367246
3.51,-0.008767152068,-0.00360123127
3.52,-0.008865129491,-0.003181388281
3.53,-0.008941912161,-0.002757942912
3.54,-0.00899726613,-0.002332023532
3.55,-0.009031020782,-0.001904778658
3.56,-0.009043070584,-0.001477373213
3.57,-0.009033376592,-0.001050984642
3.58,-0.009001967725,-0.0006267988971
3.59,-0.008948941775,-0.0002060063178
3.6,-0.008874466168,0.0002102025913
3.61,-0.008778778443,0.0006206414559
3.62,-0.008662186463,0.001024132389
3.63,-0.008525068341,0.00141951039
3.64,-0.00836787208,0.001805627765
3.65,-0.008191114925,0.002181358555
3.66,-0.007995382422,0.002545602943
3.67,-0.007781327193,0.002897291632
3.68,-0.007549667408,0.003235390166
3.69,-0.007301184983,0.003558903173
3.7,-0.007036723489,0.003866878524
3.71,-0.006757185774,0.004158411365
3.72,-0.006463531329,0.004432648034
3.73,-0.006156773369,0.004688789814
3.74,-0.005837975678,0.00492609652
3.75,-0.00550824919,0.005143889906
3.76,-0.005168748347,0.005341556859
3.77,-0.00482066723,0.005518552382
3.78,-0.004465235484,0.005674402335
3.79,-0.004103714043,0.00580870593
3.8,-0.003737390687,0.005921137965
3.81,-0.00336757543,0.006011450769
3.82,-0.002995595765,0.006079475881
3.83,-0.002622791786,0.006125125408
3.84,-0.002250511204,0.006148393092
3.85,-0.001880104272,0.006149355054
3.86,-0.00151291865,0.00612817022
3.87,-0.001150294222,0.006085080415
3.88,-0.0007935578849,0.006020410131
3.89,-0.0004440183425,0.005934565957
3.9,-0.0001029609137,0.00582803568
3.91,0.0002283576173,0.005701387043
3.92,0.0005487140869,0.005555266178
3.93,0.0008569239541,0.005390395705
3.94,0.001151846195,0.005207572509
3.95,0.001432388072,0.005007665195
3.96,0.001697509749,0.004791611233
3.97,0.001946228742,0.004560413806
3.98,0.002177624182,0.004315138355
3.99,0.002390840859,0.004056908853
4,0.002585093053,0.003786903806
4.01,0.002759668105,0.003506352006
4.02,0.00291392974,0.003216528036
4.03,0.0030473211,0.002918747568
4.04,0.003159367494,0.002614362442
4.05,0.003249678831,0.002304755568
4.06,0.003317951745,0.00199133566
4.07,0.00336397138,0.001675531822
4.08,0.003387612843,0.001358788012
4.09,0.003388842296,0.001042557403
4.1,0.003367717708,0.0007282966562
4.11,0.003324389229,0.0004174601462
4.12,0.003259099207,0.000111494144
4.13,0.003172181834,-0.000188169009
4.14,0.003064062419,-0.0004801167148
4.15,0.002935256292,-0.0007629618969
4.16,0.002786367342,-0.001035348719
4.17,0.002618086186,-0.001295958218
4.18,0.00243118798,-0.001543513834
4.19,0.002226529874,-0.001776786808
4.2,0.002005048124,-0.001994601423
4.21,0.001767754865,-0.002195840075
4.22,0.00151573456,-0.002379448148
4.23,0.001250140134,-0.002544438662
4.24,0.0009721888078,-0.002689896692
4.25,0.0006831576505,-0.002814983528
4.26,0.0003843788567,-0.00291894055
4.27,7.723477837E-05,-0.003001092821
4.28,-0.000236847279,-0.003060852366
4.29,-0.0005564004737,-0.003097721119
4.3,-0.0008799240369,-0.003111293544
4.31,-0.001205889054,-0.003101258893
4.32,-0.001532744395,-0.003067403109
4.33,-0.001858922771,-0.003009610353
4.34,-0.002182846892,-0.002927864151
4.35,-0.002502935706,-0.002822248155
4.36,-0.00281761069,-0.002692946511
4.37,-0.003125302171,-0.002540243828
4.38,-0.003424455647,-0.002364524756
4.39,-0.003713538097,-0.002166273156
4.4,-0.00399104423,-0.00194607088
4.41,-0.004255502674,-0.001704596154
4.42,-0.004505482063,-0.001442621567
4.43,-0.004739597002,-0.001161011686
4.44,-0.004956513889,-0.0008607202807
4.45,-0.005154956564,-0.000542787192
4.46,-0.005333711768,-0.0002083348385
4.47,-0.005491634381,0.0001414356212
4.48,-0.005627652432,0.000505248456
4.49,-0.005740771839,0.0008817578471
4.5,-0.005830080883,0.001269552672
4.51,-0.005894754373,0.001667161573
4.52,-0.0059340575,0.002073058281
4.53,-0.00594734937,0.0024856672
4.54,-0.005934086168,0.002903369191
4.55,-0.005893823984,0.003324507582
4.56,-0.00582622125,0.003747394333
4.57,-0.005731040797,0.004170316373
4.58,-0.005608151521,0.004591542059
4.59,-0.005457529641,0.005009327739
4.6,-0.00527925955,0.005421924406
4.61,-0.005073534258,0.005827584392
4.62,-0.004840655403,0.006224568102
4.63,-0.004581032864,0.006611150743
4.64,-0.004295183935,0.006985629038
4.65,-0.003983732093,0.007346327877
4.66,-0.003647405352,0.007691606907
4.67,-0.003287034207,0.008019867007
4.68,-0.00290354917,0.008329556641
4.69,-0.002497977921,0.008619178062
4.7,-0.00207144207,0.008887293332
4.71,-0.001625153548,0.009132530144
4.72,-0.001160410634,0.00935358742
4.73,-0.0006785936407,0.009549240664
4.74,-0.00018116027,0.009718347045
4.75,0.0003303593492,0.009859850188
4.76,0.0008543679136,0.00997278467
4.77,0.001389206476,0.01005628017
4.78,0.001933160229,0.01010956531
4.79,0.002484464526,0.01013197109
4.8,0.003041311108,0.01012293399
4.81,0.00360185452,0.01008199867
4.82,0.004164218696,0.01000882031
4.83,0.004726503674,0.009903166449
4.84,0.005286792428,0.009764918527
4.85,0.005843157792,0.00959407293
4.86,0.006393669439,0.009390741637
4.87,0.006936400898,0.009155152432
4.88,0.007469436575,0.008887648683
4.89,0.007990878767,0.008588688702
4.9,0.008498854615,0.00825884466
4.91,0.008991522998,0.00789880109
4.92,0.009467081323,0.007509352965
4.93,0.009923772195,0.007091403357
4.94,0.01035988993,0.006645960704
4.95,0.01077378692,0.006174135664
4.96,0.01116387975,0.005677137602
4.97,0.01152865515,0.005156270692
4.98,0.01186667567,0.004612929672
4.99,0.01217658508,0.004048595247
5,0.01245711354,0.003464829181
5.01,0.01270708239,0.002863269069
5.02,0.01292540866,0.00224562283
5.03,0.01311110924,0.001613662934
5.04,0.01326330469,0.0009692203788
5.05,0.01338122265,0.0003141784476
5.06,0.01346420091,-0.0003495337327
5.07,0.01351169005,-0.00101994781
5.08,0.0135232557,-0.001695062976
5.09,0.01349858038,-0.002372852858
5.1,0.01343746489,-0.003051272518
5.11,0.01333982932,-0.003728265516
5.12,0.01320571361,-0.004401771027
5.13,0.01303527766,-0.005069730981
5.14,0.01282880105,-0.005730097191
5.15,0.01258668229,-0.006380838456
5.16,0.01230943765,-0.0070199476
5.17,0.01199769961,-0.007645448437
5.18,0.01165221483,-0.008255402612
5.19,0.01127384174,-0.008847916321
5.2,0.01086354776,-0.009421146865
5.21,0.01042240606,-0.009973309022
5.22,0.00995159201,-0.01050268121
5.23,0.009452379261,-0.01100761142
5.24,0.008926135423,-0.01148652293
5.25,0.008374317465,-0.01193791965
5.26,0.007798466787,-0.01236039135
5.27,0.007200203984,-0.01275261838
5.28,0.006581223352,-0.01311337622
5.29,0.00594328712,-0.01344153958
5.3,0.005288219463,-0.01373608626
5.31,0.004617900299,-0.01399610049
5.32,0.003934258889,-0.01422077604
5.33,0.00323926729,-0.01440941885
5.34,0.002534933648,-0.01456144924
5.35,0.001823295392,-0.01467640382
5.36,0.001106412325,-0.01475393687
5.37,0.0003863596568,-0.01479382138
5.38,-0.000334779002,-0.01479594962
5.39,-0.001054918666,-0.01476033333
5.4,-0.001771979986,-0.01468710347
5.41,-0.002483896221,-0.01457650954
5.42,-0.00318862015,-0.01442891853
5.43,-0.003884130902,-0.01424481339
5.44,-0.004568440664,-0.01402479117
5.45,-0.005239601264,-0.01376956074
5.46,-0.005895710585,-0.01347994007
5.47,-0.006534918812,-0.01315685325
5.48,-0.007155434458,-0.01280132705
5.49,-0.007755530182,-0.01241448717
5.5,-0.008333548354,-0.01199755418
5.51,-0.008887906354,-0.01155183909
5.52,-0.0094171016,-0.01107873864
5.53,-0.009919716268,-0.0105797304
5.54,-0.0103944217,-0.0100563674
5.55,-0.01083998249,-0.009510272772
5.56,-0.0112552602,-0.008943133956
5.57,-0.0116392168,-0.008356696834
5.58,-0.01199091761,-0.007752759644
5.59,-0.01230953402,-0.007133166736
5.6,-0.0125943457,-0.006499802208
5.61,-0.01284474252,-0.005854583427
5.62,-0.01306022599,-0.005199454472
5.63,-0.01324041042,-0.00453637951
5.64,-0.01338502353,-0.003867336141
5.65,-0.0134939068,-0.003194308726
5.66,-0.01356701538,-0.002519281733
5.67,-0.01360441752,-0.001844233117
5.68,-0.01360629377,-0.001171127751
5.69,-0.01357293566,-0.0005019109536
5.7,-0.01350474407,0.0001614978919
5.71,-0.01340222719,0.0008172115809
5.72,-0.01326599818,0.001463381189
5.73,-0.0130967724,0.002098201999
5.74,-0.01289536436,0.002719919243
5.75,-0.01266268435,0.00332683363
5.76,-0.01239973469,0.003917306648
5.77,-0.01210760579,0.004489765624
5.78,-0.01178747182,0.005042708519
5.79,-0.0114405862,0.005574708443
5.8,-0.01106827682,0.006084417889
5.81,-0.01067194101,0.006570572652
5.82,-0.01025304036,0.007031995435
5.83,-0.009813095279,0.007467599135
5.84,-0.009353679442,0.007876389781
5.85,-0.008876414096,0.008257469134
5.86,-0.008382962206,0.008610036941
5.87,-0.00787502253,0.008933392818
5.88,-0.007354323596,0.009226937788
5.89,-0.006822617633,0.009490175444
5.9,-0.006281674461,0.009722712756
5.91,-0.005733275368,0.009924260501
5.92,-0.005179206997,0.01009463334
5.93,-0.00462125526,0.01023374954
5.94,-0.004061199303,0.01034163031
5.95,-0.003500805551,0.01041839881
5.96,-0.002941821834,0.01046427882
5.97,-0.002385971633,0.01047959305
5.98,-0.001834948461,0.01046476111
5.99,-0.001290410387,0.01042029722
6,-0.000753974738,0.01034680751
