"Freq [GHz]","re(S(Tx_p1,Tx_p1)) []","im(S(Tx_p1,Tx_p1)) []"
1,-0.001560481689,-0.07614712742
1.01,-0.003775025337,-0.0742454163
1.02,-0.005880932172,-0.07227829225
1.03,-0.007874728313,-0.0702506557
1.04,-0.009753217844,-0.06816767331
1.05,-0.0115134991,-0.06603475749
1.06,-0.01315297962,-0.06385754533
1.07,-0.01466938974,-0.06164187693
1.08,-0.01606079481,-0.05939377312
1.09,-0.01732560602,-0.05711941285
1.1,-0.0184625898,-0.05482511002
1.11,-0.01947087585,-0.05251729015
1.12,-0.02034996363,-0.05020246664
1.13,-0.02109972755,-0.047887217
1.14,-0.02172042062,-0.04557815879
1.15,-0.02221267675,-0.0432819257
1.16,-0.02257751152,-0.04100514356
1.17,-0.02281632164,-0.03875440644
1.18,-0.02293088292,-0.03653625307
1.19,-0.0229233469,-0.03435714333
1.2,-0.0227962361,-0.03222343523
1.21,-0.02255243794,-0.03014136218
1.22,-0.0221951973,-0.02811701082
1.23,-0.02172810787,-0.02615629928
1.24,-0.02115510216,-0.02426495615
1.25,-0.02048044043,-0.0224485001
1.26,-0.01970869831,-0.02071222015
1.27,-0.01884475343,-0.01906115688
1.28,-0.01789377086,-0.01750008433
1.29,-0.01686118768,-0.01603349298
1.3,-0.01575269643,-0.01466557356
1.31,-0.01457422776,-0.01340020193
1.32,-0.01333193219,-0.012240925
1.33,-0.01203216112,-0.0111909478
1.34,-0.0106814471,-0.01025312165
1.35,-0.00928648343,-0.009429933463
1.36,-0.007854103255,-0.008723496395
1.37,-0.006391258061,-0.008135541598
1.38,-0.004904995796,-0.007667411314
1.39,-0.003402438595,-0.007320053235
1.4,-0.001890760228,-0.007094016162
1.41,-0.0003771633319,-0.006989446984
1.42,0.001131143502,-0.007006088978
1.43,0.002626968702,-0.007143281436
1.44,0.004103160674,-0.007399960621
1.45,0.00555263068,-0.007774662041
1.46,0.006968375548,-0.008265524044
1.47,0.008343500148,-0.008870292703
1.48,0.00967123955,-0.009586328001
1.49,0.01094498081,-0.01041061126
1.5,0.0121582843,-0.01133975383
1.51,0.0133049045,-0.01237000696
1.52,0.01437881021,-0.01349727289
1.53,0.01537420412,-0.014717117
1.54,0.01628554161,-0.01602478117
1.55,0.01710754884,-0.01741519811
1.56,0.01783523993,-0.01888300674
1.57,0.01846393329,-0.02042256847
1.58,0.01898926698,-0.02202798451
1.59,0.01940721309,-0.02369311389
1.6,0.01971409105,-0.02541159236
1.61,0.01990657986,-0.02717685196
1.62,0.01998172923,-0.02898214135
1.63,0.01993696951,-0.0308205466
1.64,0.01977012045,-0.03268501265
1.65,0.01947939872,-0.03456836517
1.66,0.01906342422,-0.0364633328
1.67,0.01852122511,-0.03836256972
1.68,0.01785224152,-0.04025867853
1.69,0.01705632804,-0.04214423322
1.7,0.01613375485,-0.04401180231
1.71,0.01508520758,-0.04585397193
1.72,0.01391178585,-0.04766336901
1.73,0.01261500055,-0.04943268417
1.74,0.01119676978,-0.05115469454
1.75,0.009659413537,-0.05282228629
1.76,0.008005647208,-0.05442847677
1.77,0.006238573723,-0.05596643634
1.78,0.00436167458,-0.05742950963
1.79,0.002378799667,-0.0588112363
1.8,0.0002941559345,-0.06010537121
1.81,-0.001887705025,-0.06130590388
1.82,-0.004161900477,-0.06240707721
1.83,-0.006523231059,-0.06340340549
1.84,-0.008966196277,-0.06428969146
1.85,-0.01148501092,-0.06506104249
1.86,-0.01407362234,-0.0657128859
1.87,-0.01672572858,-0.06624098316
1.88,-0.01943479723,-0.0666414431
1.89,-0.02219408496,-0.06691073408
1.9,-0.02499665776,-0.06704569494
1.91,-0.02783541166,-0.06704354491
1.92,-0.03070309402,-0.06690189226
1.93,-0.03359232524,-0.06661874177
1.94,-0.0364956208,-0.06619250098
1.95,-0.03940541362,-0.06562198517
1.96,-0.04231407668,-0.06490642112
1.97,-0.04521394572,-0.06404544954
1.98,-0.04809734206,-0.06303912631
1.99,-0.05095659545,-0.06188792237
2,-0.05378406681,-0.06059272239
2.01,-0.05657217085,-0.05915482213
2.02,-0.05931339851,-0.05757592458
2.03,-0.06200033906,-0.05585813489
2.04,-0.06462570196,-0.05400395398
2.05,-0.06718233817,-0.05201627107
2.06,-0.0696632611,-0.049898355
2.07,-0.07206166695,-0.04765384436
2.08,-0.07437095448,-0.04528673659
2.09,-0.07658474403,-0.042801376
2.1,-0.07869689596,-0.04020244072
2.11,-0.08070152819,-0.0374949287
2.12,-0.0825930329,-0.03468414282
2.13,-0.08436609247,-0.03177567503
2.14,-0.08601569435,-0.02877538972
2.15,-0.08753714501,-0.02568940629
2.16,-0.08892608292,-0.02252408103
2.17,-0.0901784904,-0.01928598831
2.18,-0.09129070442,-0.01598190118
2.19,-0.09225942629,-0.01261877148
2.2,-0.09308173023,-0.009203709379
2.21,-0.09375507068,-0.005743962668
2.22,-0.09427728856,-0.002246895569
2.23,-0.09464661624,0.001280032637
2.24,-0.09486168132,0.004829289199
2.25,-0.09492150922,0.008393289623
2.26,-0.09482552454,0.01196441945
2.27,-0.0945735512,0.015535056
2.28,-0.09416581133,0.01909759013
2.29,-0.09360292308,0.02264444768
2.3,-0.0928858971,0.02616811089
2.31,-0.09201613191,0.0296611394
2.32,-0.09099540815,0.03311619097
2.33,-0.08982588165,0.03652604177
2.34,-0.08851007543,0.03988360619
2.35,-0.08705087064,0.04318195616
2.36,-0.0854514964,0.04641433982
2.37,-0.08371551875,0.04957419958
2.38,-0.0818468286,0.0526551895
2.39,-0.07984962869,0.05565119184
2.4,-0.07772841985,0.05855633291
2.41,-0.07548798629,0.06136499802
2.42,-0.0731333802,0.06407184553
2.43,-0.07066990568,0.06667182003
2.44,-0.06810310191,0.06916016448
2.45,-0.06543872579,0.07153243143
2.46,-0.06268273408,0.07378449318
2.47,-0.05984126498,0.07591255089
2.48,-0.05692061935,0.0779131426
2.49,-0.05392724157,0.07978315021
2.5,-0.05086770009,0.08151980532
2.51,-0.04774866781,0.08312069396
2.52,-0.04457690224,0.08458376019
2.53,-0.04135922562,0.08590730857
2.54,-0.03810250496,0.08709000554
2.55,-0.03481363215,0.08813087966
2.56,-0.03149950419,0.08902932067
2.57,-0.02816700351,0.08978507758
2.58,-0.0248229786,0.09039825554
2.59,-0.02147422484,0.09086931175
2.6,-0.01812746578,0.0911990502
2.61,-0.0147893347,0.09138861555
2.62,-0.01146635674,0.09143948585
2.63,-0.008164931459,0.09135346443
2.64,-0.004891316029,0.09113267076
2.65,-0.001651608987,0.09077953052
2.66,0.001548265312,0.09029676474
2.67,0.004702571549,0.08968737816
2.68,0.007805777546,0.08895464686
2.69,0.01085256758,0.08810210512
2.7,0.01383785485,0.08713353167
2.71,0.01675679315,0.0860529353
2.72,0.01960478754,0.08486453991
2.73,0.02237750424,0.08357276905
2.74,0.02507087945,0.08218223003
2.75,0.02768112732,0.08069769764
2.76,0.03020474687,0.07912409749
2.77,0.03263852794,0.07746648913
2.78,0.03497955618,0.0757300489
2.79,0.03722521697,0.07392005271
2.8,0.03937319835,0.07204185858
2.81,0.041421493,0.07010088926
2.82,0.04336839913,0.06810261483
2.83,0.04521252043,0.06605253534
2.84,0.046952765,0.06395616366
2.85,0.04858834335,0.06181900843
2.86,0.05011876539,0.05964655732
2.87,0.05154383655,0.05744426053
2.88,0.05286365292,0.05521751476
2.89,0.05407859557,0.05297164737
2.9,0.05518932397,0.05071190124
2.91,0.05619676862,0.04844341989
2.92,0.05710212288,0.04617123335
2.93,0.057906834,0.04390024442
2.94,0.05861259354,0.04163521572
2.95,0.05922132702,0.03938075727
2.96,0.05973518303,0.03714131487
2.97,0.06015652164,0.03492115909
2.98,0.06048790241,0.03272437513
2.99,0.06073207182,0.03055485338
3,0.06089195028,0.02841628084
3.01,0.06097061876,0.02631213331
3.02,0.06097130508,0.02424566843
3.03,0.06089736994,0.02221991963
3.04,0.06075229263,0.02023769089
3.05,0.06053965669,0.01830155237
3.06,0.06026313529,0.01641383693
3.07,0.05992647669,0.01457663755
3.08,0.05953348954,0.01279180557
3.09,0.05908802829,0.01106094987
3.1,0.05859397865,0.009385436823
3.11,0.05805524317,0.007766391204
3.12,0.05747572703,0.00620469783
3.13,0.05685932403,0.00470100409
3.14,0.05620990284,0.003255723247
3.15,0.0555312936,0.001869038521
3.16,0.05482727487,0.000540907921
3.17,0.05410156097,-0.0007289301912
3.18,0.05335778978,-0.001940950852
3.19,0.052599511,-0.003095835575
3.2,0.05183017493,-0.004194464807
3.21,0.05105312186,-0.00523790979
3.22,0.0502715719,-0.006227423861
3.23,0.04948861558,-0.007164433242
3.24,0.04870720496,-0.008050527351
3.25,0.04793014548,-0.008887448677
3.26,0.04716008843,-0.009677082264
3.27,0.04639952415,-0.01042144485
3.28,0.04565077589,-0.01112267369
3.29,0.04491599453,-0.01178301514
3.3,0.0441971538,-0.01240481301
3.31,0.04349604648,-0.01299049676
3.32,0.0428142812,-0.01354256956
3.33,0.04215327999,-0.01406359629
3.34,0.04151427663,-0.01455619151
3.35,0.0408983157,-0.01502300742
3.36,0.04030625239,-0.0154667219
3.37,0.03973875294,-0.01589002665
3.38,0.03919629592,-0.01629561546
3.39,0.03867917411,-0.01668617266
3.4,0.0381874971,-0.01706436185
3.41,0.03772119448,-0.01743281479
3.42,0.03728001979,-0.0177941207
3.43,0.03686355492,-0.01815081584
3.44,0.03647121525,-0.01850537346
3.45,0.03610225522,-0.01886019415
3.46,0.03575577453,-0.01921759666
3.47,0.03543072472,-0.01957980912
3.48,0.03512591638,-0.01994896084
3.49,0.0348400266,-0.02032707449
3.5,0.03457160696,-0.02071605891
3.51,0.03431909181,-0.02111770246
3.52,0.03408080689,-0.02153366689
3.53,0.03385497825,-0.02196548184
3.54,0.0336397414,-0.02241453989
3.55,0.03343315063,-0.02288209227
3.56,0.03323318859,-0.02336924509
3.57,0.03303777596,-0.02387695629
3.58,0.03284478115,-0.02440603312
3.59,0.03265203014,-0.0249571303
3.6,0.03245731632,-0.02553074872
3.61,0.03225841026,-0.0261272348
3.62,0.0320530695,-0.02674678048
3.63,0.03183904814,-0.0273894237
3.64,0.03161410642,-0.02805504954
3.65,0.03137602003,-0.02874339193
3.66,0.0311225893,-0.02945403583
3.67,0.03085164812,-0.03018642002
3.68,0.03056107262,-0.0309398404
3.69,0.03024878953,-0.03171345369
3.7,0.02991278431,-0.03250628173
3.71,0.02955110882,-0.0333172161
3.72,0.0291618887,-0.03414502326
3.73,0.02874333041,-0.03498834999
3.74,0.02829372773,-0.03584572927
3.75,0.02781146797,-0.03671558644
3.76,0.02729503766,-0.03759624571
3.77,0.02674302784,-0.03848593689
3.78,0.02615413883,-0.03938280239
3.79,0.02552718459,-0.04028490445
3.8,0.02486109653,-0.04119023253
3.81,0.02415492692,-0.04209671083
3.82,0.0234078517,-0.04300220596
3.83,0.0226191729,-0.04390453468
3.84,0.02178832051,-0.04480147165
3.85,0.02091485387,-0.04569075731
3.86,0.01999846261,-0.04657010561
3.87,0.01903896706,-0.04743721181
3.88,0.01803631826,-0.04828976017
3.89,0.01699059741,-0.04912543154
3.9,0.01590201502,-0.04994191081
3.91,0.01477090947,-0.05073689426
3.92,0.01359774526,-0.0515080967
3.93,0.01238311083,-0.0522532584
3.94,0.01112771599,-0.0529701518
3.95,0.009832388983,-0.05365658804
3.96,0.00849807324,-0.05431042312
3.97,0.007125823755,-0.05492956387
3.98,0.005716803213,-0.05551197355
3.99,0.004272277821,-0.05605567726
4,0.002793612884,-0.05655876683
4.01,0.001282268166,-0.05701940558
4.02,-0.000260206967,-0.05743583261
4.03,-0.001832178566,-0.05780636674
4.04,-0.003431933283,-0.0581294102
4.05,-0.005057683672,-0.05840345178
4.06,-0.006707573601,-0.0586270698
4.07,-0.008379683726,-0.05879893459
4.08,-0.01007203703,-0.05891781064
4.09,-0.01178260439,-0.05898255841
4.1,-0.01350931013,-0.05899213577
4.11,-0.01525003754,-0.05894559906
4.12,-0.01700263444,-0.05884210389
4.13,-0.01876491854,-0.05868090547
4.14,-0.02053468282,-0.05846135876
4.15,-0.02230970079,-0.05818291824
4.16,-0.02408773154,-0.05784513733
4.17,-0.02586652479,-0.05744766765
4.18,-0.02764382566,-0.05699025792
4.19,-0.02941737929,-0.05647275258
4.2,-0.03118493535,-0.05589509031
4.21,-0.03294425221,-0.05525730218
4.22,-0.03469310106,-0.05455950969
4.23,-0.03642926967,-0.0538019226
4.24,-0.038150566,-0.05298483659
4.25,-0.03985482154,-0.05210863083
4.26,-0.04153989445,-0.05117376536
4.27,-0.04320367239,-0.05018077841
4.28,-0.0448440752,-0.04913028361
4.29,-0.04645905721,-0.0480229672
4.3,-0.04804660942,-0.04685958512
4.31,-0.04960476141,-0.04564096013
4.32,-0.05113158295,-0.04436797888
4.33,-0.05262518543,-0.0430415891
4.34,-0.05408372312,-0.04166279666
4.35,-0.05550539407,-0.04023266282
4.36,-0.05688844095,-0.03875230151
4.37,-0.0582311516,-0.03722287662
4.38,-0.05953185943,-0.0356455995
4.39,-0.06078894365,-0.03402172646
4.4,-0.06200082932,-0.03235255648
4.41,-0.06316598731,-0.03063942901
4.42,-0.06428293402,-0.02888372188
4.43,-0.06535023114,-0.02708684943
4.44,-0.06636648518,-0.02525026073
4.45,-0.06733034698,-0.02337543804
4.46,-0.06824051115,-0.02146389531
4.47,-0.06909571547,-0.01951717698
4.48,-0.06989474028,-0.01753685691
4.49,-0.07063640775,-0.0155245374
4.5,-0.07131958135,-0.01348184848
4.51,-0.07194316513,-0.01141044735
4.52,-0.07250610322,-0.009312017906
4.53,-0.07300737928,-0.007188270494
4.54,-0.07344601604,-0.005040941796
4.55,-0.07382107496,-0.002871794831
4.56,-0.07413165598,-0.0006826191076
4.57,-0.07437689733,0.001524769119
4.58,-0.07455597557,0.003748526477
4.59,-0.07466810568,0.005986782018
4.6,-0.07471254134,0.008237636682
4.61,-0.07468857537,0.01049916269
4.62,-0.07459554034,0.01276940291
4.63,-0.07443280932,0.01504637016
4.64,-0.07419979686,0.01732804652
4.65,-0.07389596012,0.01961238267
4.66,-0.07352080021,0.02189729719
4.67,-0.07307386369,0.02418067596
4.68,-0.07255474426,0.02646037157
4.69,-0.07196308471,0.02873420289
4.7,-0.07129857891,0.03099995462
4.71,-0.07056097414,0.03325537705
4.72,-0.06975007344,0.03549818594
4.73,-0.06886573826,0.03772606251
4.74,-0.06790789116,0.03993665364
4.75,-0.06687651869,0.04212757223
4.76,-0.06577167443,0.04429639783
4.77,-0.0645934821,0.04644067737
4.78,-0.06334213879,0.04855792625
4.79,-0.06201791831,0.05064562957
4.8,-0.06062117454,0.05270124373
4.81,-0.05915234489,0.0547221982
4.82,-0.05761195373,0.05670589762
4.83,-0.05600061592,0.0586497242
4.84,-0.05431904024,0.0605510404
4.85,-0.05256803281,0.06240719187
4.86,-0.05074850048,0.06421551083
4.87,-0.04886145412,0.06597331958
4.88,-0.04690801177,0.06767793448
4.89,-0.04488940174,0.06932667013
4.9,-0.04280696548,0.0709168439
4.91,-0.04066216032,0.07244578078
4.92,-0.03845656196,0.0739108185
4.93,-0.0361918668,0.07530931292
4.94,-0.03386989392,0.07663864374
4.95,-0.03149258692,0.07789622045
4.96,-0.02906201532,0.07907948852
4.97,-0.02658037572,0.08018593588
4.98,-0.02404999262,0.08121309954
4.99,-0.02147331886,0.08215857248
5,-0.01885293562,0.08302001067
5.01,-0.01619155217,0.08379514031
5.02,-0.01349200499,0.08448176512
5.03,-0.01075725669,0.0850777738
5.04,-0.007990394282,0.08558114757
5.05,-0.005194627096,0.08598996775
5.06,-0.002373284218,0.08630242335
5.07,0.000470188584,0.08651681873
5.08,0.003332232398,0.0866315811
5.09,0.00620917921,0.08664526811
5.1,0.009097256436,0.08655657519
5.11,0.01199259195,0.08636434292
5.12,0.01489121963,0.08606756405
5.13,0.01778908534,0.08566539055
5.14,0.02068205348,0.08515714019
5.15,0.02356591393,0.08454230307
5.16,0.02643638954,0.0838205477
5.17,0.02928914404,0.08299172687
5.18,0.03211979036,0.08205588304
5.19,0.03492389946,0.08101325345
5.2,0.0376970095,0.07986427475
5.21,0.04043463541,0.07860958717
5.22,0.04313227882,0.07725003824
5.23,0.04578543839,0.07578668594
5.24,0.04838962034,0.07422080143
5.25,0.05094034933,0.07255387108
5.26,0.05343317964,0.07078759799
5.27,0.05586370642,0.06892390293
5.28,0.05822757728,0.06696492458
5.29,0.06052050393,0.06491301917
5.3,0.06273827399,0.06277075944
5.31,0.06487676282,0.060540933
5.32,0.06693194538,0.05822653988
5.33,0.06889990819,0.05583078947
5.34,0.07077686108,0.05335709678
5.35,0.07255914895,0.05080907795
5.36,0.07424326337,0.04819054505
5.37,0.07582585404,0.04550550021
5.38,0.0773037399,0.04275812909
5.39,0.07867392017,0.03995279353
5.4,0.07993358488,0.0370940237
5.41,0.08108012522,0.03418650941
5.42,0.08211114337,0.03123509089
5.43,0.08302446197,0.02824474888
5.44,0.08381813305,0.02522059413
5.45,0.08449044654,0.02216785626
5.46,0.0850399381,0.01909187218
5.47,0.08546539642,0.0159980738
5.48,0.08576586995,0.0128919754
5.49,0.08594067282,0.009779160433
5.5,0.08598939019,0.006665267913
5.51,0.08591188282,0.003555978438
5.52,0.08570829089,0.0004569998269
5.53,0.08537903702,-0.002625947547
5.54,0.08492482853,-0.005687145689
5.55,0.08434665882,-0.008720894142
5.56,0.08364580795,-0.01172152532
5.57,0.08282384232,-0.01468341996
5.58,0.08188261348,-0.01760102268
5.59,0.08082425613,-0.02046885753
5.6,0.07965118509,-0.02328154351
5.61,0.0783660915,-0.02603381007
5.62,0.07697193807,-0.0287205124
5.63,0.07547195344,-0.0313366466
5.64,0.07386962568,-0.03387736454
5.65,0.07216869484,-0.03633798854
5.66,0.07037314474,-0.03871402557
5.67,0.06848719386,-0.04100118115
5.68,0.06651528534,-0.04319537276
5.69,0.0644620763,-0.04529274275
5.7,0.06233242626,-0.04728967075
5.71,0.06013138487,-0.04918278534
5.72,0.05786417891,-0.0509689753
5.73,0.05553619859,-0.05264539991
5.74,0.05315298319,-0.05420949872
5.75,0.05072020614,-0.05565900047
5.76,0.04824365945,-0.05699193113
5.77,0.0457292377,-0.05820662119
5.78,0.04318292154,-0.05930171201
5.79,0.04061076068,-0.06027616125
5.8,0.03801885668,-0.06112924736
5.81,0.03541334523,-0.06186057313
5.82,0.03280037831,-0.06247006815
5.83,0.03018610612,-0.06295799039
5.84,0.02757665876,-0.06332492662
5.85,0.02497812802,-0.06357179187
5.86,0.02239654895,-0.06369982783
5.87,0.01983788158,-0.06371060013
5.88,0.01730799274,-0.06360599465
5.89,0.01481263798,-0.06338821272
5.9,0.01235744378,-0.06305976528
5.91,0.009947889999,-0.06262346601
5.92,0.007589292713,-0.06208242342
5.93,0.005286787439,-0.06144003196
5.94,0.003045312838,-0.06069996207
5.95,0.0008695949538,-0.05986614938
5.96,-0.001235867968,-0.05894278288
5.97,-0.003266820005,-0.05793429221
5.98,-0.005219261388,-0.05684533413
5.99,-0.007089461575,-0.0556807781
6,-0.008873971523,-0.05444569109
