"Freq [GHz]","re(S(Tx_p1,Tx_p1)) []","im(S(Tx_p1,Tx_p1)) []"
1,0.0782601859,-0.163667565
1.01,0.0737808112,-0.1634175074
1.02,0.0693572677,-0.1630647511
1.03,0.06499335192,-0.1626109804
1.04,0.06069276739,-0.1620581779
1.05,0.05645910557,-0.1614086111
1.06,0.05229582776,-0.1606648192
1.07,0.04820624811,-0.159829599
1.08,0.04419351765,-0.1589059901
1.09,0.0402606094,-0.1578972595
1.1,0.03641030461,-0.1568068859
1.11,0.03264518001,-0.1556385434
1.12,0.02896759629,-0.1543960847
1.13,0.02537968763,-0.1530835239
1.14,0.02188335238,-0.1517050195
1.15,0.01848024491,-0.150264856
1.16,0.01517176854,-0.1487674264
1.17,0.01195906974,-0.147217214
1.18,0.008843033365,-0.1456187739
1.19,0.005824279087,-0.1439767152
1.2,0.002903158998,-0.142295682
1.21,7.975630907E-05,-0.1405803358
1.22,-0.002646114802,-0.1388353369
1.23,-0.005274908233,-0.1370653269
1.24,-0.0078073439,-0.1352749103
1.25,-0.01024440461,-0.1334686377
1.26,-0.01258733185,-0.1316509882
1.27,-0.01483762061,-0.1298263529
1.28,-0.0169970131,-0.1279990187
1.29,-0.01906749163,-0.1261731524
1.3,-0.02105127042,-0.1243527856
1.31,-0.0229507866,-0.1225417999
1.32,-0.02476869033,-0.1207439131
1.33,-0.02650783411,-0.118962666
1.34,-0.02817126127,-0.1172014099
1.35,-0.02976219383,-0.1154632945
1.36,-0.03128401958,-0.1137512576
1.37,-0.03274027864,-0.1120680144
1.38,-0.03413464937,-0.1104160487
1.39,-0.0354709338,-0.1087976047
1.4,-0.03675304264,-0.1072146793
1.41,-0.03798497979,-0.1056690161
1.42,-0.03917082666,-0.1041620998
1.43,-0.04031472605,-0.1026951517
1.44,-0.04142086592,-0.1012691266
1.45,-0.04249346296,-0.09988471024
1.46,-0.04353674609,-0.09854231784
1.47,-0.04455493987,-0.0972420939
1.48,-0.045552248,-0.09598391279
1.49,-0.04653283685,-0.09476738041
1.5,-0.04750081916,-0.09359183685
1.51,-0.04846023796,-0.09245636007
1.52,-0.04941505071,-0.09135977047
1.53,-0.05036911377,-0.09030063646
1.54,-0.05132616729,-0.08927728097
1.55,-0.05228982043,-0.08828778878
1.56,-0.05326353715,-0.08733001483
1.57,-0.05425062247,-0.08640159325
1.58,-0.05525420934,-0.08549994728
1.59,-0.05627724605,-0.08462229992
1.6,-0.05732248441,-0.08376568529
1.61,-0.05839246859,-0.08292696071
1.62,-0.0594895246,-0.08210281936
1.63,-0.06061575073,-0.08128980363
1.64,-0.06177300858,-0.08048431891
1.65,-0.06296291515,-0.07968264794
1.66,-0.06418683554,-0.07888096558
1.67,-0.06544587676,-0.078075354
1.68,-0.06674088229,-0.07726181817
1.69,-0.06807242758,-0.07643630169
1.7,-0.06944081656,-0.07559470282
1.71,-0.07084607898,-0.07473289069
1.72,-0.07228796879,-0.07384672166
1.73,-0.07376596336,-0.0729320557
1.74,-0.07527926379,-0.07198477286
1.75,-0.07682679607,-0.07100078967
1.76,-0.07840721318,-0.06997607539
1.77,-0.0800188982,-0.0689066682
1.78,-0.08165996826,-0.06778869116
1.79,-0.08332827945,-0.0666183679
1.8,-0.08502143264,-0.06539203806
1.81,-0.08673678007,-0.0641061723
1.82,-0.08847143294,-0.062757387
1.83,-0.09022226971,-0.06134245845
1.84,-0.09198594521,-0.05985833661
1.85,-0.09375890064,-0.05830215826
1.86,-0.09553737409,-0.05667125965
1.87,-0.09731741201,-0.05496318851
1.88,-0.09909488114,-0.05317571537
1.89,-0.1008654812,-0.05130684426
1.9,-0.102624758,-0.04935482263
1.91,-0.1043681177,-0.04731815057
1.92,-0.1060908402,-0.0451955892
1.93,-0.1077880949,-0.0429861683
1.94,-0.1094549551,-0.04068919305
1.95,-0.1110864141,-0.03830424998
1.96,-0.1126774007,-0.03583121202
1.97,-0.1142227954,-0.03327024266
1.98,-0.115717447,-0.03062179918
1.99,-0.1171561887,-0.02788663507
2,-0.1185338553,-0.02506580138
2.01,-0.1198452994,-0.02216064727
2.02,-0.1210854087,-0.01917281958
2.03,-0.1222491223,-0.01610426145
2.04,-0.1233314476,-0.01295721005
2.05,-0.1243274766,-0.009734193383
2.06,-0.1252324025,-0.006438026155
2.07,-0.1260415358,-0.003071804756
2.08,-0.1267503199,0.0003610986527
2.09,-0.1273543468,0.003857042919
2.1,-0.1278493721,0.007412125542
2.11,-0.1282313301,0.01102219114
2.12,-0.1284963474,0.01468284075
2.13,-0.1286407572,0.01838944188
2.14,-0.1286611123,0.0221371393
2.15,-0.1285541975,0.02592086668
2.16,-0.1283170418,0.02973535873
2.17,-0.1279469295,0.03357516414
2.18,-0.1274414112,0.03743465909
2.19,-0.1267983127,0.04130806136
2.2,-0.1260157453,0.0451894449
2.21,-0.125092113,0.04907275505
2.22,-0.1240261204,0.05295182403
2.23,-0.1228167792,0.05682038698
2.24,-0.1214634142,0.06067209829
2.25,-0.1199656673,0.06450054824
2.26,-0.1183235024,0.06829927993
2.27,-0.1165372075,0.07206180639
2.28,-0.1146073973,0.07578162787
2.29,-0.112535014,0.07945224923
2.3,-0.1103213275,0.08306719737
2.31,-0.1079679346,0.08662003868
2.32,-0.1054767573,0.09010439643
2.33,-0.1028500399,0.09351396807
2.34,-0.1000903455,0.09684254234
2.35,-0.09720055127,0.1000840162
2.36,-0.09418384303,0.1032324116
2.37,-0.09104370885,0.1062818915
2.38,-0.08778393167,0.1092267763
2.39,-0.08440858114,0.1120615591
2.4,-0.08092200464,0.114780921
2.41,-0.0773288174,0.1173797457
2.42,-0.07363389192,0.1198531332
2.43,-0.06984234659,0.122196414
2.44,-0.06595953357,0.1244051614
2.45,-0.06199102605,0.1264752035
2.46,-0.05794260478,0.1284026355
2.47,-0.05382024408,0.1301838293
2.48,-0.04963009721,0.1318154445
2.49,-0.04537848129,0.1332944367
2.5,-0.04107186168,0.1346180662
2.51,-0.03671683599,0.1357839056
2.52,-0.03232011769,0.1367898456
2.53,-0.02788851939,0.1376341017
2.54,-0.02342893585,0.1383152181
2.55,-0.01894832676,0.1388320717
2.56,-0.01445369936,0.1391838752
2.57,-0.009952090963,0.1393701788
2.58,-0.005450551327,0.1393908712
2.59,-0.0009561251264,0.1392461795
2.6,0.003524165608,0.1389366685
2.61,0.007983338933,0.1384632385
2.62,0.01241447029,0.1378271226
2.63,0.01681070959,0.137029883
2.64,0.02116529809,0.1360734061
2.65,0.02547158491,0.1349598973
2.66,0.02972304324,0.1336918738
2.67,0.03391328617,0.1322721582
2.68,0.03803608197,0.1307038697
2.69,0.04208536905,0.1289904151
2.7,0.04605527022,0.1271354797
2.71,0.04994010648,0.1251430161
2.72,0.05373441016,0.1230172333
2.73,0.05743293743,0.1207625849
2.74,0.06103068009,0.1183837564
2.75,0.06452287669,0.1158856524
2.76,0.06790502282,0.1132733827
2.77,0.07117288074,0.110552248
2.78,0.07432248811,0.1077277259
2.79,0.07735016594,0.1048054552
2.8,0.08025252569,0.1017912206
2.81,0.08302647547,0.09869093738
2.82,0.08566922546,0.09551063504
2.83,0.08817829232,0.09225644112
2.84,0.09055150281,0.08893456482
2.85,0.09278699642,0.08555128051
2.86,0.09488322716,0.08211291109
2.87,0.0968389644,0.07862581139
2.88,0.09865329284,0.07509635153
2.89,0.1003256115,0.07153090046
2.9,0.1018556321,0.06793580953
2.91,0.103243376,0.06431739626
2.92,0.1044891708,0.06068192839
2.93,0.1055936461,0.05703560812
2.94,0.1065577277,0.05338455671
2.95,0.1073826321,0.04973479941
2.96,0.1080698593,0.04609225086
2.97,0.1086211853,0.04246270085
2.98,0.1090386535,0.0388518006
2.99,0.109324566,0.03526504961
3,0.1094814735,0.03170778298
3.01,0.1095121651,0.02818515942
3.02,0.1094196573,0.02470214981
3.03,0.1092071825,0.02126352646
3.04,0.1088781766,0.01787385307
3.05,0.1084362667,0.01453747535
3.06,0.1078852582,0.01125851247
3.07,0.1072291209,0.008040849144
3.08,0.1064719758,0.00488812861
3.09,0.1056180804,0.001803746347
3.1,0.104671815,-0.001209155391
3.11,0.1036376673,-0.004147692211
3.12,0.1025202183,-0.007009241389
3.13,0.1013241271,-0.009791444842
3.14,0.100054116,-0.01249221126
3.15,0.09871495537,-0.01510971739
3.16,0.09731144861,-0.01764240847
3.17,0.09584841739,-0.02008899787
3.18,0.09433068661,-0.02244846583
3.19,0.09276306979,-0.02472005745
3.2,0.09115035449,-0.0269032798
3.21,0.08949728808,-0.0289978983
3.22,0.08780856376,-0.03100393228
3.23,0.08608880687,-0.03292164978
3.24,0.08434256158,-0.03475156162
3.25,0.08257427808,-0.03649441476
3.26,0.08078830003,-0.03815118498
3.27,0.0789888527,-0.03972306882
3.28,0.07718003146,-0.04121147503
3.29,0.07536579094,-0.04261801527
3.3,0.0735499347,-0.04394449433
3.31,0.07173610555,-0.04519289982
3.32,0.06992777653,-0.0463653913
3.33,0.06812824247,-0.04746428902
3.34,0.0663406124,-0.04849206222
3.35,0.06456780247,-0.04945131701
3.36,0.06281252982,-0.05034478402
3.37,0.06107730698,-0.05117530563
3.38,0.05936443725,-0.05194582306
3.39,0.05767601063,-0.05265936319
3.4,0.05601390075,-0.05331902524
3.41,0.05437976242,-0.05392796737
3.42,0.05277503005,-0.05448939315
3.43,0.05120091686,-0.05500653807
3.44,0.04965841488,-0.05548265602
3.45,0.04814829569,-0.05592100591
3.46,0.04667111201,-0.05632483832
3.47,0.04522720005,-0.05669738237
3.48,0.04381668254,-0.05704183277
3.49,0.04243947261,-0.05736133715
3.5,0.04109527833,-0.05765898361
3.51,0.03978360799,-0.05793778868
3.52,0.03850377605,-0.05820068558
3.53,0.03725490975,-0.05845051297
3.54,0.03603595637,-0.05869000404
3.55,0.0348456911,-0.05892177619
3.56,0.03368272544,-0.05914832113
3.57,0.03254551626,-0.05937199562
3.58,0.03143237521,-0.05959501271
3.59,0.03034147876,-0.05981943359
3.6,0.02927087856,-0.06004716017
3.61,0.0282185123,-0.06027992815
3.62,0.02718221485,-0.06051930092
3.63,0.02615972979,-0.06076666405
3.64,0.02514872113,-0.06102322053
3.65,0.02414678537,-0.06128998677
3.66,0.02315146369,-0.06156778925
3.67,0.02216025427,-0.06185726197
3.68,0.0211706248,-0.06215884468
3.69,0.02018002496,-0.06247278178
3.7,0.01918589895,-0.06279912205
3.71,0.01818569803,-0.0631377191
3.72,0.01717689292,-0.06348823256
3.73,0.01615698612,-0.06385013004
3.74,0.01512352408,-0.06422268982
3.75,0.01407410915,-0.06460500423
3.76,0.0130064113,-0.06499598378
3.77,0.01191817951,-0.06539436192
3.78,0.01080725294,-0.06579870057
3.79,0.0096715716,-0.0662073962
3.8,0.00850918674,-0.06661868659
3.81,0.007318270738,-0.06703065818
3.82,0.006097126541,-0.067441254
3.83,0.004844196605,-0.06784828213
3.84,0.0035580713,-0.06824942471
3.85,0.002237496755,-0.06864224735
3.86,0.0008813821183,-0.06902420911
3.87,-0.0005111937895,-0.06939267278
3.88,-0.001940976463,-0.0697449156
3.89,-0.003408530348,-0.07007814028
3.9,-0.004914234145,-0.07038948635
3.91,-0.006458276807,-0.07067604173
3.92,-0.008040654229,-0.07093485456
3.93,-0.009661166654,-0.07116294515
3.94,-0.01131941679,-0.07135731814
3.95,-0.01301480865,-0.07151497466
3.96,-0.01474654715,-0.0716329246
3.97,-0.01651363836,-0.0717081989
3.98,-0.01831489059,-0.07173786173
3.99,-0.0201489161,-0.07171902267
4,-0.02201413357,-0.07164884872
4.01,-0.0239087713,-0.07152457616
4.02,-0.02583087104,-0.07134352224
4.03,-0.0277782926,-0.07110309658
4.04,-0.02974871901,-0.07080081229
4.05,-0.03173966243,-0.07043429685
4.06,-0.03374847067,-0.07000130252
4.07,-0.03577233424,-0.06949971646
4.08,-0.03780829411,-0.06892757033
4.09,-0.03985324992,-0.06828304953
4.1,-0.04190396879,-0.06756450185
4.11,-0.04395709458,-0.06677044571
4.12,-0.04600915768,-0.06589957774
4.13,-0.04805658517,-0.06495077989
4.14,-0.05009571147,-0.06392312583
4.15,-0.05212278924,-0.06281588687
4.16,-0.05413400075,-0.06162853711
4.17,-0.05612546945,-0.06036075799
4.18,-0.05809327182,-0.05901244222
4.19,-0.06003344946,-0.05758369686
4.2,-0.06194202133,-0.05607484593
4.21,-0.06381499616,-0.05448643208
4.22,-0.06564838496,-0.05281921773
4.23,-0.06743821351,-0.05107418537
4.24,-0.06918053498,-0.04925253722
4.25,-0.07087144244,-0.04735569409
4.26,-0.07250708136,-0.04538529359
4.27,-0.07408366194,-0.0433431876
4.28,-0.07559747134,-0.04123143902
4.29,-0.07704488573,-0.03905231783
4.3,-0.07842238206,-0.03680829648
4.31,-0.07972654961,-0.03450204458
4.32,-0.08095410122,-0.03213642297
4.33,-0.08210188415,-0.0297144771
4.34,-0.08316689063,-0.02723942986
4.35,-0.08414626792,-0.02471467372
4.36,-0.08503732797,-0.02214376244
4.37,-0.0858375566,-0.01953040204
4.38,-0.08654462214,-0.01687844146
4.39,-0.08715638357,-0.01419186258
4.4,-0.08767089809,-0.01147476984
4.41,-0.08808642804,-0.008731379463
4.42,-0.0884014473,-0.005966008207
4.43,-0.08861464699,-0.003183061855
4.44,-0.08872494053,-0.0003870233229
4.45,-0.08873146801,0.002417559489
4.46,-0.08863359995,0.005226086092
4.47,-0.08843094021,0.008033916003
4.48,-0.08812332835,0.01083638151
4.49,-0.08771084116,0.01362880053
4.5,-0.08719379352,0.01640648963
4.51,-0.08657273848,0.01916477695
4.52,-0.08584846666,0.02189901527
4.53,-0.08502200487,0.0246045949
4.54,-0.08409461405,0.02727695662
4.55,-0.08306778645,0.02991160436
4.56,-0.0819432421,0.0325041178
4.57,-0.08072292463,0.03505016475
4.58,-0.07940899627,0.03754551322
4.59,-0.07800383234,0.03998604329
4.6,-0.07651001494,0.04236775859
4.61,-0.0749303261,0.04468679743
4.62,-0.07326774024,0.04693944358
4.63,-0.07152541607,0.04912213652
4.64,-0.06970668792,0.05123148131
4.65,-0.06781505651,0.05326425792
4.66,-0.06585417926,0.05521743005
4.67,-0.06382786,0.05708815336
4.68,-0.06174003841,0.05887378313
4.69,-0.05959477885,0.06057188136
4.7,-0.05739625896,0.06218022313
4.71,-0.05514875782,0.06369680242
4.72,-0.05285664391,0.06511983719
4.73,-0.05052436263,0.06644777378
4.74,-0.04815642382,0.06767929065
4.75,-0.04575738886,0.06881330131
4.76,-0.04333185783,0.06984895667
4.77,-0.04088445641,0.07078564651
4.78,-0.03841982281,0.07162300031
4.79,-0.03594259463,0.07236088733
4.8,-0.03345739579,0.07299941591
4.81,-0.03096882346,0.07353893207
4.82,-0.02848143516,0.07398001738
4.83,-0.02599973595,0.07432348608
4.84,-0.02352816587,0.07457038153
4.85,-0.02107108755,0.07472197192
4.86,-0.0186327741,0.07477974529
4.87,-0.01621739736,0.07474540395
4.88,-0.01382901642,0.07462085812
4.89,-0.01147156654,0.07440821909
4.9,-0.009148848544,0.07410979165
4.91,-0.00686451858,0.073728066
4.92,-0.004622078413,0.07326570909
4.93,-0.002424866212,0.07272555545
4.94,-0.0002760478855,0.07211059747
4.95,0.001821391018,0.07142397528
4.96,0.003864652819,0.07066896616
4.97,0.005851134593,0.06984897357
4.98,0.007778434426,0.06896751578
4.99,0.009644357002,0.06802821427
5,0.01144691853,0.06703478172
5.01,0.01318435098,0.06599100986
5.02,0.01485510559,0.06490075705
5.03,0.01645785573,0.0637679357
5.04,0.01799149894,0.06259649961
5.05,0.01945515837,0.06139043117
5.06,0.02084818339,0.06015372854
5.07,0.02217014951,0.05889039283
5.08,0.02342085758,0.05760441531
5.09,0.02460033228,0.05629976474
5.1,0.02570881984,0.05498037474
5.11,0.02674678507,0.05365013141
5.12,0.02771490778,0.0523128611
5.13,0.02861407837,0.05097231842
5.14,0.02944539285,0.04963217457
5.15,0.03021014719,0.04829600595
5.16,0.03090983102,0.04696728313
5.17,0.03154612073,0.0456493602
5.18,0.03212087199,0.0443454646
5.19,0.03263611168,0.04305868729
5.2,0.03309402933,0.04179197351
5.21,0.03349696801,0.04054811403
5.22,0.03384741478,0.0393297369
5.23,0.03414799064,0.0381392998
5.24,0.03440144016,0.036979083
5.25,0.03461062064,0.03585118287
5.26,0.03477849097,0.03475750611
5.27,0.03490810021,0.03369976456
5.28,0.03500257585,0.0326794707
5.29,0.03506511188,0.03169793386
5.3,0.03509895666,0.03075625708
5.31,0.03510740063,0.02985533468
5.32,0.03509376393,0.02899585057
5.33,0.03506138392,0.02817827727
5.34,0.03501360272,0.02740287558
5.35,0.03495375469,0.02666969506
5.36,0.03488515406,0.02597857519
5.37,0.03481108255,0.02532914718
5.38,0.0347347772,0.0247208366
5.39,0.03465941831,0.02415286663
5.4,0.03458811767,0.02362426196
5.41,0.03452390696,0.02313385349
5.42,0.03446972651,0.02268028353
5.43,0.0344284143,0.02226201176
5.44,0.03440269542,0.02187732177
5.45,0.03439517183,0.02152432814
5.46,0.03440831263,0.02120098419
5.47,0.03444444474,0.02090509024
5.48,0.03450574406,0.02063430234
5.49,0.03459422721,0.02038614159
5.5,0.03471174377,0.02015800382
5.51,0.03485996906,0.01994716983
5.52,0.03504039765,0.01975081587
5.53,0.03525433729,0.01956602463
5.54,0.03550290367,0.01938979645
5.55,0.03578701569,0.01921906091
5.56,0.0361073915,0.01905068859
5.57,0.03646454518,0.01888150313
5.58,0.03685878409,0.01870829337
5.59,0.037290207,0.01852782574
5.6,0.03775870286,0.01833685664
5.61,0.03826395033,0.01813214494
5.62,0.038805418,0.01791046449
5.63,0.03938236539,0.01766861656
5.64,0.03999384455,0.01740344229
5.65,0.04063870251,0.01711183493
5.66,0.04131558433,0.01679075205
5.67,0.04202293692,0.01643722746
5.68,0.04275901346,0.01604838294
5.69,0.04352187859,0.01562143976
5.7,0.04430941419,0.01515372977
5.71,0.04511932581,0.0146427063
5.72,0.04594914973,0.01408595455
5.73,0.04679626058,0.01348120164
5.74,0.04765787962,0.01282632624
5.75,0.04853108343,0.01211936761
5.76,0.04941281324,0.01135853429
5.77,0.05029988469,0.01054221208
5.78,0.05118899804,0.009668971633
5.79,0.05207674884,0.008737575325
5.8,0.05295963896,0.007746983567
5.81,0.05383408799,0.006696360482
5.82,0.05469644496,0.005585078917
5.83,0.05554300035,0.004412724798
5.84,0.0563699983,0.003179100779
5.85,0.05717364909,0.001884229212
5.86,0.05795014172,0.0005283543924
5.87,0.05869565669,-0.0008880559121
5.88,0.05940637874,-0.002364309652
5.89,0.06007850978,-0.003899490421
5.9,0.06070828173,-0.005492458112
5.91,0.0612919693,-0.007141850301
5.92,0.06182590277,-0.008846084359
5.93,0.06230648056,-0.01060336028
5.94,0.0627301817,-0.01241166425
5.95,0.06309357808,-0.01426877286
5.96,0.06339334641,-0.01617225807
5.97,0.06362627993,-0.01811949284
5.98,0.06378929985,-0.02010765738
5.99,0.06387946633,-0.02213374609
6,0.06389398913,-0.02419457509
