"Freq [GHz]","re(S(Tx_p1,Tx_p1)) []","im(S(Tx_p1,Tx_p1)) []"
1,-0.01656439961,0.003167318547
1.01,-0.01631020623,0.004097787375
1.02,-0.01600259157,0.005010938803
1.03,-0.01564267216,0.00590357413
1.04,-0.01523176481,0.00677256911
1.05,-0.01477138119,0.007614886764
1.06,-0.01426322169,0.00842758979
1.07,-0.0137091684,0.009207852518
1.08,-0.01311127744,0.00995297236
1.09,-0.01247177051,0.01066038071
1.1,-0.01179302577,0.01132765326
1.11,-0.01107756814,0.01195251965
1.12,-0.01032805892,0.01253287251
1.13,-0.009547284941,0.01306677571
1.14,-0.008738147211,0.01355247195
1.15,-0.007903649074,0.0139883895
1.16,-0.007046884011,0.01437314827
1.17,-0.006171023098,0.0147055649
1.18,-0.005279302162,0.01498465716
1.19,-0.004375008722,0.01520964742
1.2,-0.003461468746,0.01537996529
1.21,-0.002542033296,0.01549524939
1.22,-0.001620065106,0.01555534824
1.23,-0.000698925164,0.01556032027
1.24,0.0002180406629,0.01551043298
1.25,0.001127514887,0.01540616127
1.26,0.002026221499,0.01524818484
1.27,0.002910938848,0.01503738479
1.28,0.003778512244,0.01477483946
1.29,0.00462586625,0.01446181939
1.3,0.005450016585,0.01409978156
1.31,0.006248081613,0.01369036286
1.32,0.007017293363,0.01323537285
1.33,0.007755008037,0.01273678586
1.34,0.008458715956,0.01219673243
1.35,0.009126050921,0.01161749017
1.36,0.00975479894,0.01100147399
1.37,0.01034290629,0.01035122591
1.38,0.01088848688,0.009669404321
1.39,0.01138982892,0.00895877283
1.4,0.01184540078,0.008222188771
1.41,0.01225385616,0.00746259134
1.42,0.01261403842,0.00668298948
1.43,0.01292498413,0.005886449529
1.44,0.01318592581,0.005076082708
1.45,0.01339629383,0.004255032488
1.46,0.01355571755,0.003426461886
1.47,0.01366402555,0.002593540766
1.48,0.01372124515,0.001759433164
1.49,0.01372760099,0.000927284728
1.5,0.01368351293,0.000100210292
1.51,0.01358959307,-0.0007187183444
1.52,0.01344664209,-0.001526484387
1.53,0.01325564475,-0.002320137724
1.54,0.0130177647,-0.003096806249
1.55,0.01273433862,-0.003853706804
1.56,0.01240686965,-0.004588155682
1.57,0.01203702016,-0.005297578652
1.58,0.01162660397,-0.005979520474
1.59,0.01117757796,-0.006631653861
1.6,0.01069203315,-0.007251787852
1.61,0.01017218534,-0.007837875574
1.62,0.009620365186,-0.00838802135
1.63,0.009039008014,-0.008900487147
1.64,0.008430643173,-0.009373698315
1.65,0.007797883125,-0.00980624863
1.66,0.007143412248,-0.01019690459
1.67,0.006469975447,-0.01054460897
1.68,0.005780366577,-0.01084848367
1.69,0.005077416767,-0.01110783168
1.7,0.004363982673,-0.01132213847
1.71,0.003642934714,-0.01149107242
1.72,0.002917145343,-0.01161448464
1.73,0.002189477406,-0.01169240795
1.74,0.001462772621,-0.01172505517
1.75,0.0007398402515,-0.01171281661
1.76,2.344599294E-05,-0.01165625696
1.77,-0.0006836988633,-0.01155611135
1.78,-0.001378947953,-0.0114132808
1.79,-0.002059730007,-0.01122882708
1.8,-0.002723558618,-0.0110039668
1.81,-0.00336804158,-0.01074006506
1.82,-0.003990889747,-0.01043862842
1.83,-0.004589925396,-0.01010129742
1.84,-0.005163090047,-0.009729838557
1.85,-0.00570845172,-0.009326135823
1.86,-0.006224211604,-0.008892181848
1.87,-0.006708710105,-0.008430068646
1.88,-0.007160432261,-0.007941978026
1.89,-0.00757801251,-0.007430171735
1.9,-0.007960238777,-0.006896981335
1.91,-0.008306055893,-0.006344797897
1.92,-0.008614568319,-0.005776061528
1.93,-0.008885042179,-0.005193250804
1.94,-0.009116906591,-0.004598872127
1.95,-0.009309754305,-0.003995449073
1.96,-0.009463341647,-0.00338551177
1.97,-0.009577587774,-0.002771586347
1.98,-0.009652573252,-0.002156184501
1.99,-0.009688537966,-0.001541793232
2,-0.009685878381,-0.0009308647755
2.01,-0.009645144168,-0.0003258067861
2.02,-0.009567034216,0.0002710271977
2.03,-0.009452392051,0.0008573469613
2.04,-0.009302200697,0.001430934463
2.05,-0.009117576981,0.001989652288
2.06,-0.008899765351,0.002531451675
2.07,-0.008650131196,0.00305438008
2.08,-0.008370153729,0.003556588265
2.09,-0.008061418462,0.00403633686
2.1,-0.007725609304,0.0044920024
2.11,-0.007364500318,0.004922082799
2.12,-0.006979947186,0.005325202251
2.13,-0.006573878417,0.005700115543
2.14,-0.006148286328,0.006045711757
2.15,-0.005705217857,0.006361017366
2.16,-0.005246765241,0.006645198701
2.17,-0.004775056589,0.0068975638
2.18,-0.004292246418,0.007117563621
2.19,-0.00380050617,0.007304792632
2.2,-0.003302014758,0.007458988779
2.21,-0.00279894919,0.007580032832
2.22,-0.002293475303,0.007667947127
2.23,-0.001787738641,0.007722893707
2.24,-0.001283855533,0.007745171888
2.25,-0.0007839043903,0.007735215247
2.26,-0.0002899172629,0.007693588074
2.27,0.0001961282996,0.007620981292
2.28,0.000672317066,0.007518207873
2.29,0.001136803579,0.007386197777
2.3,0.001587819222,0.007225992444
2.31,0.002023678874,0.007038738858
2.32,0.00244278712,0.006825683223
2.33,0.002843644001,0.006588164275
2.34,0.003224850278,0.006327606272
2.35,0.003585112203,0.006045511689
2.36,0.003923245759,0.005743453655
2.37,0.004238180381,0.005423068167
2.38,0.00452896213,0.005086046127
2.39,0.004794756321,0.00473412522
2.4,0.005034849592,0.004369081689
2.41,0.005248651414,0.003992722039
2.42,0.005435695048,0.003606874697
2.43,0.005595637933,0.003213381687
2.44,0.005728261536,0.002814090327
2.45,0.005833470635,0.002410845022
2.46,0.005911292085,0.00200547915
2.47,0.005961873042,0.001599807104
2.48,0.00598547868,0.001195616512
2.49,0.005982489413,0.000794660668
2.5,0.00595339763,0.0003986512087
2.51,0.00589880398,9.251064351E-06
2.52,0.00581941321,-0.0003719322884
2.53,0.005716029591,-0.0007433532439
2.54,0.00558955196,-0.001103534129
2.55,0.005440968388,-0.001451070889
2.56,0.005271350521,-0.001784638371
2.57,0.005081847613,-0.002102995189
2.58,0.004873680279,-0.002404988156
2.59,0.004648134008,-0.00268955626
2.6,0.00440655246,-0.002955734181
2.61,0.004150330582,-0.003202655326
2.62,0.003880907583,-0.003429554389
2.63,0.003599759781,-0.003635769414
2.64,0.003308393389,-0.003820743365
2.65,0.003008337233,-0.003984025209
2.66,0.002701135476,-0.00412527049
2.67,0.00238834035,-0.004244241427
2.68,0.002071504939,-0.004340806508
2.69,0.001752176062,-0.004414939621
2.7,0.001431887251,-0.004466718702
2.71,0.001112151896,-0.004496323928
2.72,0.0007944565506,-0.00450403547
2.73,0.0004802544555,-0.004490230802
2.74,0.0001709592859,-0.004455381611
2.75,-0.0001320608378,-0.004400050304
2.76,-0.0004274890579,-0.004324886138
2.77,-0.0007140651805,-0.004230621009
2.78,-0.0009905907493,-0.004118064895
2.79,-0.001255933771,-0.003988101013
2.8,-0.001509033079,-0.003841680678
2.81,-0.001748902308,-0.003679817925
2.82,-0.001974633483,-0.003503583896
2.83,-0.002185400195,-0.003314101035
2.84,-0.00238046036,-0.003112537115
2.85,-0.002559158549,-0.002900099126
2.86,-0.002720927895,-0.002678027055
2.87,-0.002865291553,-0.002447587585
2.88,-0.002991863731,-0.002210067753
2.89,-0.003100350274,-0.001966768579
2.9,-0.003190548822,-0.001718998718
2.91,-0.003262348529,-0.001468068139
2.92,-0.003315729358,-0.001215281888
2.93,-0.003350760957,-0.000961933939
2.94,-0.00336760113,-0.0007093011741
2.95,-0.003366493909,-0.0004586375148
2.96,-0.003347767239,-0.0002111682322
2.97,-0.003311830303,3.191554068E-05
2.98,-0.003259170489,0.0002694620712
2.99,-0.003190350021,0.00050036404
3,-0.003106002281,0.0007235632859
3.01,-0.003006827837,0.000938055262
3.02,-0.00289359019,0.001142893185
3.03,-0.002767111282,0.001337191864
3.04,-0.002628266774,0.001520131188
3.05,-0.00247798112,0.001690959271
3.06,-0.002317222471,0.001848995229
3.07,-0.002146997423,0.001993631588
3.08,-0.001968345647,0.002124336319
3.09,-0.001782334419,0.002240654486
3.1,-0.001590053079,0.002342209504
3.11,-0.001392607446,0.002428704018
3.12,-0.001191114223,0.00249992038
3.13,-0.0009866954045,0.002555720749
3.14,-0.0007804727228,0.002596046798
3.15,-0.0005735621594,0.002620919057
3.16,-0.0003670685411,0.002630435865
3.17,-0.0001620802501,0.002624771973
3.18,4.033592999E-05,0.002604176796
3.19,0.0002391398077,0.002568972309
3.2,0.0004333225966,0.002519550634
3.21,0.0006219115247,0.002456371303
3.22,0.0008039742211,0.00237995823
3.23,0.0009786228623,0.0022908964
3.24,0.001145018058,0.002189828301
3.25,0.001302372465,0.002077450114
3.26,0.001449954108,0.001954507683
3.27,0.001587089402,0.001821792283
3.28,0.001713165859,0.001680136219
3.29,0.001827634472,0.00153040826
3.3,0.001930011765,0.001373508952
3.31,0.00201988151,0.001210365818
3.32,0.002096896092,0.001041928475
3.33,0.002160777536,0.000869163698
3.34,0.002211318179,0.000693050441
3.35,0.002248381,0.000514574852
3.36,0.002271899596,0.0003347253007
3.37,0.002281877823,0.0001544874424
3.38,0.00227838909,-2.516065738E-05
3.39,0.002261575329,-0.000203253315
3.4,0.002231645638,-0.0003788419162
3.41,0.002188874606,-0.0005509994758
3.42,0.002133600343,-0.0007188250504
3.43,0.002066222208,-0.0008814479842
3.44,0.001987198272,-0.001038031967
3.45,0.001897042505,-0.00118777889
3.46,0.001796321724,-0.001329932479
3.47,0.00168565231,-0.001463781693
3.48,0.001565696709,-0.001588663871
3.49,0.001437159743,-0.001703967615
3.5,0.00130078474,-0.001809135401
3.51,0.001157349522,-0.001903665902
3.52,0.001007662246,-0.001987116014
3.53,0.0008525571382,-0.00205910259
3.54,0.00069289014,-0.00211930386
3.55,0.0005295344798,-0.00216746054
3.56,0.0003633761993,-0.00220337663
3.57,0.0001953096545,-0.002226919898
3.58,2.623301231E-05,-0.002238022045
3.59,-0.0001429562342,-0.002236678559
3.6,-0.000311365712,-0.002222948262
3.61,-0.0004781125529,-0.002196952549
3.62,-0.0006423276979,-0.002158874331
3.63,-0.0008031601005,-0.002108956681
3.64,-0.0009597808088,-0.00204750121
3.65,-0.00111138691,-0.001974866153
3.66,-0.001257205314,-0.001891464215
3.67,-0.001396496372,-0.001797760147
3.68,-0.001528557292,-0.001694268109
3.69,-0.00165272536,-0.001581548793
3.7,-0.00176838094,-0.001460206355
3.71,-0.00187495024,-0.001330885154
3.72,-0.001971907836,-0.00119426632
3.73,-0.002058778946,-0.001051064168
3.74,-0.002135141438,-0.0009020224791
3.75,-0.002200627568,-0.0007479106627
3.76,-0.002254925447,-0.0005895198264
3.77,-0.002297780223,-0.0004276587651
3.78,-0.002328994976,-0.0002631498943
3.79,-0.002348431335,-9.682514637E-05
3.8,-0.002356009799,7.047815126E-05
3.81,-0.002351709772,0.0002379213942
3.82,-0.002335569325,0.0004046687979
3.83,-0.002307684655,0.0005698914516
3.84,-0.002268209289,0.0007327713123
3.85,-0.002217353004,0.0008925051186
3.86,-0.002155380487,0.001048308207
3.87,-0.002082609736,0.001199418211
3.88,-0.001999410224,0.001345098634
3.89,-0.001906200819,0.001484642263
3.9,-0.001803447483,0.001617374432
3.91,-0.001691660762,0.001742656095
3.92,-0.001571393076,0.001859886719
3.93,-0.001443235825,0.00196850696
3.94,-0.001307816334,0.002068001139
3.95,-0.001165794635,0.00215789948
3.96,-0.001017860124,0.002237780119
3.97,-0.0008647280918,0.002307270873
3.98,-0.0007071361549,0.002366050753
3.99,-0.0005458406071,0.002413851228
4,-0.0003816127007,0.00245045723
4.01,-0.000215234882,0.002475707893
4.02,-4.749699788E-05,0.002489497036
4.03,0.0001208075087,0.002491773372
4.04,0.000288885396,0.002482540467
4.05,0.0004559473952,0.002461856426
4.06,0.0006212119391,0.00242983333
4.07,0.0007839088307,0.002386636414
4.08,0.0009432828332,0.002332483002
4.09,0.001098597167,0.002267641204
4.1,0.001249136897,0.002192428369
4.11,0.001394212193,0.00210720933
4.12,0.001533161451,0.00201239442
4.13,0.001665354261,0.001908437301
4.14,0.001790194211,0.001795832586
4.15,0.001907121504,0.001675113297
4.16,0.002015615396,0.001546848147
4.17,0.002115196426,0.001411638677
4.18,0.002205428436,0.001270116257
4.19,0.002285920383,0.001122938961
4.2,0.002356327918,0.0009707883413
4.21,0.002416354734,0.0008143661102
4.22,0.002465753687,0.0006543907512
4.23,0.002504327674,0.0004915940712
4.24,0.002531930265,0.0003267177135
4.25,0.002548466104,0.0001605096478
4.26,0.002553891057,-6.279346324E-06
4.27,0.002548212125,-0.0001728991859
4.28,0.002531487117,-0.0003386039645
4.29,0.002503824085,-0.0005026553892
4.3,0.002465380525,-0.0006643261589
4.31,0.002416362365,-0.0008229032682
4.32,0.002357022713,-0.0009776912225
4.33,0.002287660413,-0.001128015149
4.34,0.002208618382,-0.00127322379
4.35,0.002120281763,-0.001412692367
4.36,0.002023075885,-0.001545825296
4.37,0.001917464059,-0.001672058758
4.38,0.001803945205,-0.001790863093
4.39,0.001683051332,-0.001901745023
4.4,0.00155534488,-0.00200424969
4.41,0.001421415946,-0.0020979625
4.42,0.001281879391,-0.002182510768
4.43,0.00113737186,-0.002257565152
4.44,0.0009885487209,-0.002322840879
4.45,0.0008360809332,-0.002378098758
4.46,0.0006806518757,-0.002423145963
4.47,0.000522954133,-0.002457836608
4.48,0.0003636862667,-0.002482072092
4.49,0.0002035495808,-0.002495801223
4.5,4.324489974E-05,-0.002499020126
4.51,-0.0001165306277,-0.002491771922
4.52,-0.0002750866831,-0.002474146206
4.53,-0.000431742877,-0.002446278302
4.54,-0.0005858317788,-0.002408348316
4.55,-0.0007367018625,-0.00236057999
4.56,-0.000883720356,-0.002303239362
4.57,-0.001026275982,-0.002236633243
4.58,-0.001163781575,-0.00216110751
4.59,-0.001295676574,-0.002077045242
4.6,-0.001421429361,-0.001984864693
4.61,-0.001540539455,-0.00188501712
4.62,-0.001652539543,-0.001777984475
4.63,-0.00175699734,-0.001664276975
4.64,-0.00185351727,-0.001544430563
4.65,-0.001941741971,-0.001419004268
4.66,-0.0020213536,-0.001288577486
4.67,-0.002092074955,-0.001153747177
4.68,-0.002153670394,-0.001015125025
4.69,-0.002205946557,-0.0008733345318
4.7,-0.002248752882,-0.0007290081004
4.71,-0.002281981929,-0.0005827840889
4.72,-0.00230556949,-0.0004353038695
4.73,-0.002319494509,-0.0002872088977
4.74,-0.002323778797,-0.0001391378061
4.75,-0.002318486555,8.276462069E-06
4.76,-0.002303723703,0.0001544094676
4.77,-0.002279637026,0.0002986480261
4.78,-0.00224641314,0.0004403928811
4.79,-0.002204277274,0.000579061289
4.8,-0.0021534919,0.0007140895037
4.81,-0.002094355193,0.0008449351513
4.82,-0.002027199344,0.000971079483
4.83,-0.001952388729,0.001092029499
4.84,-0.001870317957,0.001207319931
4.85,-0.001781409779,0.001316515082
4.86,-0.001686112909,0.00141921051
4.87,-0.001584899725,0.001515034546
4.88,-0.001478263899,0.001603649657
4.89,-0.001366717944,0.001684753626
4.9,-0.001250790699,0.001758080566
4.91,-0.001131024767,0.001823401752
4.92,-0.001007973909,0.001880526274
4.93,-0.0008822004195,0.001929301506
4.94,-0.0007542724834,0.001969613398
4.95,-0.0006247615362,0.002001386586
4.96,-0.0004942396347,0.002024584312
4.97,-0.0003632768524,0.002039208183
4.98,-0.0002324387114,0.002045297739
4.99,-0.0001022836621,0.002042929861
5,2.663937799E-05,0.002032218007
5.01,0.0001537934144,0.002013311282
5.02,0.0002786556858,0.001986393366
5.03,0.0004007198823,0.00195168128
5.04,0.0005194982642,0.001909424015
5.05,0.000634523671,0.001859901031
5.06,0.0007453514125,0.001803420626
5.07,0.0008515610349,0.001740318189
5.08,0.0009527579546,0.00167095435
5.09,0.001048574953,0.001595713034
5.1,0.001138673526,0.001514999419
5.11,0.001222745088,0.001429237828
5.12,0.001300512019,0.001338869555
5.13,0.001371728555,0.001244350629
5.14,0.001436181522,0.001146149543
5.15,0.00149369091,0.001044744948
5.16,0.001544110279,0.0009406233226
5.17,0.001587327013,0.0008342766435
5.18,0.0016232624,0.0007262000455
5.19,0.001651871565,0.0006168895029
5.2,0.001673143239,0.0005068395308
5.21,0.001687099368,0.0003965409225
5.22,0.001693794584,0.0002864785303
5.23,0.001693315513,0.000177129102
5.24,0.001685779953,6.895918154E-05
5.25,0.001671335913,-3.757691662E-05
5.26,0.001650160513,-0.0001420390506
5.27,0.00162245877,-0.000244003103
5.28,0.001588462266,-0.0003430627351
5.29,0.001548427702,-0.0004388310335
5.3,0.001502635356,-0.000530942046
5.31,0.001451387443,-0.0006190521976
5.32,0.001395006403,-0.0007028415831
5.33,0.001333833101,-0.0007820151308
5.34,0.001268224972,-0.0008563036331
5.35,0.00119855411,-0.0009254646418
5.36,0.001125205304,-0.0009892832233
5.37,0.001048574052,-0.001047572574
5.38,0.0009690645351,-0.001100174492
5.39,0.000887087591,-0.001146959708
5.4,0.0008030586703,-0.001187828073
5.41,0.0007173958042,-0.001222708604
5.42,0.0006305175847,-0.001251559385
5.43,0.0005428411688,-0.00127436734
5.44,0.0004547803163,-0.001291147861
5.45,0.0003667434701,-0.001301944307
5.46,0.0002791318879,-0.001306827377
5.47,0.0001923378328,-0.001305894357
5.48,0.000106742833,-0.001299268251
5.49,2.27160158E-05,-0.001287096797
5.5,-5.938747562E-05,-0.001269551377
5.51,-0.0001392279758,-0.00124682583
5.52,-0.0002164826954,-0.001219135171
5.53,-0.0002908470189,-0.001186714218
5.54,-0.0003620356953,-0.001149816154
5.55,-0.0004297839189,-0.001108711009
5.56,-0.000493848295,-0.001063684083
5.57,-0.0005540076883,-0.001015034319
5.58,-0.0006100639498,-0.0009630726281
5.59,-0.0006618425218,-0.0009081201817
5.6,-0.0007091929185,-0.0008505066752
5.61,-0.0007519890816,-0.0007905685746
5.62,-0.0007901296107,-0.0007286473539
5.63,-0.0008235378693,-0.0006650877323
5.64,-0.0008521619667,-0.0006002359197
5.65,-0.0008759746178,-0.0005344378795
5.66,-0.0008949728838,-0.0004680376166
5.67,-0.0009091777946,-0.0004013754987
5.68,-0.0009186338586,-0.0003347866194
5.69,-0.0009234084616,-0.0002685992102
5.7,-0.0009235911608,-0.0002031331082
5.71,-0.0009192928776,-0.0001386982881
5.72,-0.0009106449952,-7.559346269E-05
5.73,-0.0008977983663,-1.410475997E-05
5.74,-0.0008809222365,4.549551876E-05
5.75,-0.0008602030914,0.0001029500541
5.76,-0.000835843432,0.0001580175722
5.77,-0.0008080604869,0.0002104738135
5.78,-0.0007770848678,0.0002601124017
5.79,-0.0007431591764,0.0003067456109
5.8,-0.0007065365693,0.0003502050276
5.81,-0.0006674792895,0.000390342106
5.82,-0.0006262571717,0.0004270286147
5.83,-0.0005831461297,0.0004601569748
5.84,-0.0005384266332,0.0004896404869
5.85,-0.0004923821823,0.0005154134507
5.86,-0.0004452977872,0.0005374311736
5.87,-0.0003974584603,0.0005556698738
5.88,-0.0003491477288,0.0005701264765
5.89,-0.0003006461753,0.0005808183072
5.9,-0.0002522300117,0.0005877826841
5.91,-0.0002041696961,0.0005910764138
5.92,-0.0001567285958,0.0005907751927
5.93,-0.000110161706,0.000586972919
5.94,-6.471442743E-05,0.0005797809204
5.95,-2.062140961E-05,0.0005693271011
5.96,2.18945351E-05,0.0005557550145
5.97,6.262344238E-05,0.0005392228665
5.98,0.0001013691273,0.0005199024554
5.99,0.0001379500324,0.0004979780552
6,0.0001721999887,0.0004736452477
