"Freq [GHz]","re(S(Tx_p1,Tx_p1)) []","im(S(Tx_p1,Tx_p1)) []"
1,-0.02031166755,-0.01626062059
1.01,-0.02060670481,-0.01483101498
1.02,-0.02082036259,-0.01340302416
1.03,-0.02095302836,-0.01198123946
1.04,-0.02100537394,-0.01057022653
1.05,-0.02097835268,-0.009174506468
1.06,-0.02087319532,-0.007798537406
1.07,-0.02069140485,-0.006446696476
1.08,-0.02043475014,-0.005123262262
1.09,-0.02010525848,-0.003832397812
1.1,-0.01970520711,-0.002578134266
1.11,-0.01923711372,-0.001364355157
1.12,-0.018703726,-0.0001947814475
1.13,-0.01810801033,0.000927042648
1.14,-0.01745313958,0.001997763005
1.15,-0.01674248016,0.003014228048
1.16,-0.01597957835,0.003973500285
1.17,-0.01516814595,0.004872866879
1.18,-0.01431204541,0.005709849224
1.19,-0.01341527431,0.006482211496
1.2,-0.01248194959,0.007187968152
1.21,-0.01151629116,0.007825390361
1.22,-0.01052260542,0.008393011341
1.23,-0.009505268411,0.008889630608
1.24,-0.008468708829,0.009314317115
1.25,-0.007417390975,0.009666411282
1.26,-0.006355797655,0.009945525925
1.27,-0.005288413139,0.01015154609
1.28,-0.004219706241,0.0102846278
1.29,-0.003154113583,0.01034519571
1.3,-0.002096023114,0.01033393979
1.31,-0.001049757952,0.01025181084
1.32,-1.956060674E-05,0.01010001519
1.33,0.0009904223535,0.009880008257
1.34,0.001976155129,0.00959348731
1.35,0.002933726962,0.009242383265
1.36,0.003859365796,0.008828851667
1.37,0.004749451272,0.008355262859
1.38,0.005600527026,0.007824191402
1.39,0.006409312227,0.00723840479
1.4,0.007172712334,0.00660085152
1.41,0.007887829019,0.005914648563
1.42,0.008551969248,0.005183068303
1.43,0.009162653465,0.004409525001
1.44,0.009717622875,0.003597560836
1.45,0.0102148458,0.002750831596
1.46,0.0106525231,0.001873092074
1.47,0.01102909262,0.0009681812305
1.48,0.0113432327,4.000719291E-05
1.49,0.0115938647,-0.0009074678551
1.5,0.01178015462,-0.001870242825
1.51,0.01190151363,-0.002844292855
1.52,0.01195759784,-0.003825584367
1.53,0.01194830698,-0.004810089977
1.54,0.0118737822,-0.005793803211
1.55,0.01173440305,-0.00677275297
1.56,0.01153078348,-0.007743017677
1.57,0.01126376707,-0.008700739069
1.58,0.01093442138,-0.009642135568
1.59,0.01054403159,-0.01056351519
1.6,0.01009409333,-0.01146128798
1.61,0.009586304852,-0.0123319778
1.62,0.009022558498,-0.01317223366
1.63,0.008404931575,-0.01397884034
1.64,0.007735676641,-0.01474872831
1.65,0.007017211263,-0.01547898309
1.66,0.006252107306,-0.01616685376
1.67,0.005443079781,-0.0168097608
1.68,0.004592975322,-0.01740530314
1.69,0.003704760343,-0.01795126444
1.7,0.002781508915,-0.01844561858
1.71,0.001826390428,-0.01888653435
1.72,0.0008426570884,-0.01927237929
1.73,-0.0001663686932,-0.01960172281
1.74,-0.00119730698,-0.0198733384
1.75,-0.002246732988,-0.02008620513
1.76,-0.003311189722,-0.02023950826
1.77,-0.00438720052,-0.02033263914
1.78,-0.005471281447,-0.02036519432
1.79,-0.006559953504,-0.02033697388
1.8,-0.007649754599,-0.02024797906
1.81,-0.00873725123,-0.02009840917
1.82,-0.009819049853,-0.01988865783
1.83,-0.01089180788,-0.01961930852
1.84,-0.01195224428,-0.01929112956
1.85,-0.01299714974,-0.01890506844
1.86,-0.01402339637,-0.01846224565
1.87,-0.01502794689,-0.01796394799
1.88,-0.01600786327,-0.0174116213
1.89,-0.01696031493,-0.01680686294
1.9,-0.0178825862,-0.01615141366
1.91,-0.01877208333,-0.01544714927
1.92,-0.01962634083,-0.0146960719
1.93,-0.0204430272,-0.01390030107
1.94,-0.02121995006,-0.01306206445
1.95,-0.02195506059,-0.01218368848
1.96,-0.02264645738,-0.01126758883
1.97,-0.02329238966,-0.01031626079
1.98,-0.02389125983,-0.009332269583
1.99,-0.02444162542,-0.008318240648
2,-0.02494220037,-0.007276849979
2.01,-0.0253918558,-0.006210814515
2.02,-0.02578962004,-0.00512288264
2.03,-0.02613467822,-0.004015824826
2.04,-0.02642637119,-0.002892424451
2.05,-0.02666419396,-0.001755468833
2.06,-0.02684779359,-0.0006077405048
2.07,-0.02697696661,0.0005479912312
2.08,-0.02705165592,0.00170897845
2.09,-0.02707194729,0.002872502419
2.1,-0.02703806544,0.004035881061
2.11,-0.02695036974,0.005196476044
2.12,-0.0268093495,0.006351699474
2.13,-0.02661561904,0.007499020183
2.14,-0.02636991238,0.008635969589
2.15,-0.02607307773,0.009760147119
2.16,-0.02572607173,0.01086922519
2.17,-0.02532995352,0.01196095375
2.18,-0.02488587866,0.01303316433
2.19,-0.0243950929,0.01408377365
2.2,-0.0238589259,0.01511078683
2.21,-0.02327878488,0.01611230004
2.22,-0.02265614823,0.01708650275
2.23,-0.02199255919,0.0180316796
2.24,-0.02128961945,0.01894621173
2.25,-0.02054898299,0.01982857774
2.26,-0.01977234983,0.02067735429
2.27,-0.01896146006,0.02149121619
2.28,-0.01811808792,0.02226893626
2.29,-0.01724403606,0.02300938471
2.3,-0.01634113006,0.02371152827
2.31,-0.01541121306,0.02437442892
2.32,-0.01445614068,0.02499724244
2.33,-0.01347777621,0.02557921657
2.34,-0.01247798598,0.02611968902
2.35,-0.01145863505,0.02661808519
2.36,-0.01042158318,0.02707391574
2.37,-0.009368681069,0.02748677398
2.38,-0.00830176689,0.02785633309
2.39,-0.007222663141,0.02818234325
2.4,-0.006133173768,0.02846462866
2.41,-0.005035081593,0.02870308452
2.42,-0.003930146044,0.02889767391
2.43,-0.002820101169,0.02904842469
2.44,-0.001706653931,0.02915542644
2.45,-0.0005914827861,0.02921882734
2.46,0.0005237634768,0.02923883115
2.47,0.001637466641,0.0292156943
2.48,0.002748039725,0.02914972295
2.49,0.003853927414,0.02904127029
2.5,0.004953606285,0.02889073387
2.51,0.006045584832,0.02869855311
2.52,0.007128403312,0.02846520695
2.53,0.008200633434,0.02819121168
2.54,0.009260877903,0.02787711888
2.55,0.01030776985,0.02752351367
2.56,0.01133997215,0.02713101299
2.57,0.01235617669,0.02670026423
2.58,0.0133551035,0.0262319439
2.59,0.01433549998,0.02572675666
2.6,0.01529613994,0.02518543441
2.61,0.01623582282,0.02460873566
2.62,0.01715337279,0.02399744504
2.63,0.01804763793,0.02335237305
2.64,0.01891748957,0.02267435594
2.65,0.01976182153,0.02196425577
2.66,0.02057954962,0.02122296066
2.67,0.02136961116,0.02045138511
2.68,0.02213096467,0.01965047058
2.69,0.02286258965,0.01882118606
2.7,0.02356348661,0.01796452879
2.71,0.02423267713,0.01708152513
2.72,0.02486920422,0.01617323137
2.73,0.0254721328,0.01524073473
2.74,0.02604055037,0.01428515428
2.75,0.02657356789,0.01330764192
2.76,0.02707032082,0.01230938338
2.77,0.02752997046,0.01129159911
2.78,0.0279517053,0.0102555452
2.79,0.02833474279,0.009202514215
2.8,0.02867833111,0.008133835881
2.81,0.02898175123,0.007050877739
2.82,0.02924431914,0.005955045629
2.83,0.02946538816,0.00484778403
2.84,0.02964435156,0.003730576241
2.85,0.02978064517,0.002604944373
2.86,0.02987375023,0.001472449146
2.87,0.02992319628,0.0003346894623
2.88,0.02992856421,-0.0008066982386
2.89,0.02988948935,-0.001950040877
2.9,0.02980566463,-0.003093629877
2.91,0.02967684379,-0.004235722581
2.92,0.0295028446,-0.005374543926
2.93,0.02928355208,-0.006508288409
2.94,0.02901892169,-0.007635122331
2.95,0.02870898249,-0.008753186325
2.96,0.02835384019,-0.009860598178
2.97,0.02795368017,-0.01095545594
2.98,0.02750877028,-0.0120358413
2.99,0.02701946359,-0.01309982328
3,0.02648620094,-0.01414546218
3.01,0.02590951326,-0.01517081375
3.02,0.02529002371,-0.01617393372
3.03,0.02462844961,-0.01715288247
3.04,0.02392560403,-0.01810572999
3.05,0.02318239717,-0.01903056101
3.06,0.02239983741,-0.0199254804
3.07,0.02157903205,-0.02078861866
3.08,0.02072118767,-0.02161813764
3.09,0.01982761021,-0.02241223634
3.1,0.01889970459,-0.02316915687
3.11,0.01793897407,-0.02388719046
3.12,0.01694701906,-0.02456468356
3.13,0.01592553567,-0.02520004392
3.14,0.01487631374,-0.0257917468
3.15,0.01380123455,-0.02633834098
3.16,0.01270226801,-0.02683845488
3.17,0.01158146952,-0.0272908025
3.18,0.01044097631,-0.0276941893
3.19,0.009283003482,-0.02804751788
3.2,0.008109839507,-0.02834979359
3.21,0.006923841418,-0.02860012982
3.22,0.005727429546,-0.02879775312
3.23,0.004523081892,-0.02894200807
3.24,0.00331332812,-0.0290323618
3.25,0.002100743195,-0.02906840828
3.26,0.0008879406796,-0.02904987216
3.27,-0.0003224342882,-0.02897661228
3.28,-0.001527712313,-0.02884862486
3.29,-0.002725207338,-0.02866604611
3.3,-0.003912224482,-0.02842915452
3.31,-0.005086068103,-0.02813837268
3.32,-0.006244050054,-0.02779426849
3.33,-0.007383498093,-0.02739755607
3.34,-0.008501764431,-0.02694909595
3.35,-0.009596234367,-0.02644989491
3.36,-0.010664335,-0.02590110513
3.37,-0.01170354394,-0.02530402289
3.38,-0.01271139806,-0.02466008669
3.39,-0.01368550213,-0.02397087482
3.4,-0.01462353746,-0.02323810231
3.41,-0.01552327032,-0.02246361742
3.42,-0.0163825603,-0.02164939752
3.43,-0.01719936842,-0.02079754443
3.44,-0.01797176501,-0.0199102792
3.45,-0.01869793735,-0.01898993644
3.46,-0.01937619698,-0.01803895802
3.47,-0.0200049867,-0.01705988641
3.48,-0.02058288716,-0.01605535739
3.49,-0.02110862306,-0.01502809248
3.5,-0.02158106891,-0.01398089076
3.51,-0.02199925437,-0.01291662042
3.52,-0.02236236897,-0.01183820986
3.53,-0.02266976643,-0.01074863847
3.54,-0.02292096838,-0.00965092709
3.55,-0.02311566748,-0.008548128169
3.56,-0.02325372997,-0.007443315719
3.57,-0.02333519766,-0.006339575021
3.58,-0.02336028914,-0.005239992182
3.59,-0.02332940054,-0.004147643556
3.6,-0.02324310548,-0.003065585073
3.61,-0.02310215439,-0.00199684153
3.62,-0.02290747326,-0.0009443958643
3.63,-0.02266016157,8.882152307E-05
3.64,-0.02236148961,0.00109994337
3.65,-0.0220128952,0.002086176025
3.66,-0.02161597959,0.003044809757
3.67,-0.02117250284,0.003973228843
3.68,-0.02068437851,0.004868921405
3.69,-0.02015366767,0.005729488955
3.7,-0.01958257235,0.006552655587
3.71,-0.01897342838,0.007336276798
3.72,-0.01832869766,0.008078347888
3.73,-0.01765095986,0.008777011903
3.74,-0.01694290364,0.009430567073
3.75,-0.01620731731,0.01003747374
3.76,-0.01544707913,0.0105963607
3.77,-0.01466514707,0.01110603096
3.78,-0.01386454831,0.01156546692
3.79,-0.01304836825,0.01197383479
3.8,-0.01221973938,0.01233048845
3.81,-0.0113818297,0.01263497257
3.82,-0.01053783108,0.01288702503
3.83,-0.009690947333,0.01308657854
3.84,-0.008844382232,0.01323376166
3.85,-0.00800132738,0.01332889891
3.86,-0.007164950092,0.01337251026
3.87,-0.006338381272,0.01336530974
3.88,-0.00552470335,0.01330820337
3.89,-0.004726938335,0.01320228629
3.9,-0.003948036022,0.01304883913
3.91,-0.003190862416,0.01284932365
3.92,-0.0024581884,0.01260537766
3.93,-0.001752678718,0.01231880916
3.94,-0.001076881299,0.01199158984
3.95,-0.0004332169857,0.01162584788
3.96,0.0001760303085,0.01122386006
3.97,0.0007487229496,0.0107880433
3.98,0.001282878417,0.01032094556
3.99,0.001776677572,0.009825236141
4,0.00222847233,0.009303695558
4.01,0.002636792698,0.008759204805
4.02,0.003000353142,0.008194734226
4.03,0.003318058264,0.007613331963
4.04,0.003589007757,0.00701811202
4.05,0.0038125006,0.006412242022
4.06,0.003988038504,0.005798930679
4.07,0.00411532855,0.005181415038
4.08,0.004194285041,0.004562947547
4.09,0.004225030526,0.003946782991
4.1,0.004207896011,0.003336165362
4.11,0.004143420331,0.002734314695
4.12,0.0040323487,0.002144413938
4.13,0.003875630422,0.001569595911
4.14,0.003674415783,0.001012930386
4.15,0.003430052124,0.0004774113698
4.16,0.003144079102,-3.40553822E-05
4.17,0.002818223171,-0.0005186645573
4.18,0.002454391277,-0.0009737231351
4.19,0.002054663814,-0.001396661846
4.2,0.001621286838,-0.00178504619
4.21,0.001156663595,-0.002136586971
4.22,0.0006633453715,-0.002449150295
4.23,0.0001440217093,-0.002720767007
4.24,-0.0003984899748,-0.0029496415
4.25,-0.0009612553348,-0.003134159881
4.26,-0.001541234559,-0.003272897446
4.27,-0.002135294311,-0.003364625435
4.28,-0.002740220097,-0.003408317036
4.29,-0.003352729026,-0.003403152606
4.3,-0.00396948289,-0.003348524094
4.31,-0.00458710154,-0.003244038638
4.32,-0.005202176481,-0.003089521316
4.33,-0.005811284656,-0.002885017043
4.34,-0.006411002341,-0.002630791603
4.35,-0.006997919118,-0.002327331792
4.36,-0.007568651851,-0.001975344699
4.37,-0.008119858628,-0.001575756086
4.38,-0.008648252595,-0.001129707908
4.39,-0.009150615641,-0.0006385549467
4.4,-0.009623811873,-0.0001038605891
4.41,-0.01006480082,0.0004726082431
4.42,-0.01047065033,0.001088886997
4.43,-0.01083854908,0.001742820205
4.44,-0.01116581868,0.002432068983
4.45,-0.01144992532,0.003154119298
4.46,-0.01168849085,0.003906290961
4.47,-0.01187930331,0.004685747317
4.48,-0.01202032691,0.005489505602
4.49,-0.01210971129,0.006314447917
4.5,-0.01214580009,0.007157332788
4.51,-0.01212713887,0.008014807263
4.52,-0.01205248216,0.008883419502
4.53,-0.01192079983,0.009759631805
4.54,-0.01173128254,0.01063983405
4.55,-0.01148334647,0.01152035743
4.56,-0.01117663704,0.01239748857
4.57,-0.01081103186,0.01326748375
4.58,-0.01038664276,0.01412658342
4.59,-0.00990381691,0.01497102679
4.6,-0.009363136992,0.01579706646
4.61,-0.008765420522,0.01660098313
4.62,-0.008111718207,0.01737910017
4.63,-0.007403311416,0.01812779816
4.64,-0.006641708734,0.01884352925
4.65,-0.005828641631,0.01952283124
4.66,-0.00496605925,0.02016234146
4.67,-0.004056122338,0.0207588103
4.68,-0.003101196334,0.0213091143
4.69,-0.002103843648,0.0218102689
4.7,-0.001066815155,0.0222594406
4.71,6.959063554E-06,0.02265395868
4.72,0.001114379701,0.02299132625
4.73,0.002252188886,0.02326923074
4.74,0.003416981483,0.02348555369
4.75,0.004605216991,0.02363837984
4.76,0.005813232006,0.02372600548
4.77,0.007037253173,0.02374694598
4.78,0.008273410611,0.0236999426
4.79,0.009517751736,0.0235839684
4.8,0.01076625544,0.02339823327
4.81,0.01201484656,0.02314218813
4.82,0.01325941063,0.02281552823
4.83,0.01449580874,0.02241819551
4.84,0.01571989262,0.02195038003
4.85,0.01692751973,0.02141252053
4.86,0.0181145684,0.02080530397
4.87,0.01927695288,0.02012966424
4.88,0.02041063839,0.01938677985
4.89,0.02151165586,0.01857807077
4.9,0.0225761166,0.01770519431
4.91,0.02360022663,0.01677004017
4.92,0.02458030064,0.01577472454
4.93,0.0255127757,0.01472158341
4.94,0.02639422439,0.01361316503
4.95,0.02722136754,0.01245222158
4.96,0.02799108643,0.01124170006
4.97,0.02870043437,0.009984732467
4.98,0.02934664772,0.008684625247
4.99,0.02992715617,0.00734484814
5,0.03043959239,0.005969022376
5.01,0.03088180091,0.004560908317
5.02,0.03125184621,0.00312439258
5.03,0.03154802006,0.001663474686
5.04,0.03176884797,0.0001822532983
5.05,0.03191309482,-0.00131508792
5.06,0.03197976961,-0.00282429475
5.07,0.03196812935,-0.004341057125
5.08,0.03187768196,-0.005861024044
5.09,0.03170818837,-0.007379818624
5.1,0.0314596636,-0.008893053248
5.11,0.03113237694,-0.01039634475
5.12,0.03072685129,-0.01188532955
5.13,0.03024386143,-0.01335567874
5.14,0.02968443151,-0.01480311304
5.15,0.02904983158,-0.01622341749
5.16,0.02834157321,-0.01761245596
5.17,0.02756140432,-0.01896618535
5.18,0.02671130309,-0.02028066943
5.19,0.02579347109,-0.02155209221
5.2,0.02481032557,-0.02277677096
5.21,0.02376449105,-0.02395116868
5.22,0.02265879014,-0.02507190596
5.23,0.02149623366,-0.02613577237
5.24,0.02028001011,-0.02713973708
5.25,0.01901347457,-0.02808095895
5.26,0.01770013695,-0.0289567958
5.27,0.01634364977,-0.02976481297
5.28,0.01494779548,-0.03050279117
5.29,0.01351647326,-0.03116873346
5.3,0.01205368557,-0.03176087142
5.31,0.01056352424,-0.03227767054
5.32,0.009050156423,-0.03271783468
5.33,0.007517810189,-0.03308030972
5.34,0.005970760068,-0.03336428629
5.35,0.00441331242,-0.0335692016
5.36,0.002849790765,-0.03369474046
5.37,0.001284521116,-0.03374083532
5.38,-0.0002781826379,-0.03370766546
5.39,-0.001834033241,-0.03359565532
5.4,-0.003378784419,-0.03340547193
5.41,-0.004908245008,-0.03313802149
5.42,-0.006418292825,-0.03279444512
5.43,-0.007904888216,-0.03237611381
5.44,-0.009364087243,-0.03188462251
5.45,-0.01079205445,-0.03132178354
5.46,-0.01218507519,-0.03068961918
5.47,-0.01353956743,-0.02999035358
5.48,-0.014852093,-0.02922640403
5.49,-0.01611936835,-0.02840037152
5.5,-0.01733827452,-0.02751503077
5.51,-0.01850586666,-0.02657331963
5.52,-0.01961938269,-0.02557832803
5.53,-0.02067625136,-0.02453328644
5.54,-0.02167409952,-0.02344155385
5.55,-0.02261075867,-0.02230660544
5.56,-0.02348427067,-0.02113201991
5.57,-0.02429289272,-0.01992146646
5.58,-0.02503510151,-0.01867869166
5.59,-0.02570959651,-0.01740750601
5.6,-0.02631530248,-0.01611177046
5.61,-0.02685137114,-0.01479538284
5.62,-0.02731718205,-0.01346226422
5.63,-0.02771234253,-0.01211634536
5.64,-0.02803668694,-0.01076155316
5.65,-0.02829027502,-0.009401797329
5.66,-0.02847338947,-0.008040957129
5.67,-0.02858653276,-0.006682868426
5.68,-0.02863042314,-0.00533131096
5.69,-0.02860598994,-0.003989995956
5.7,-0.02851436815,-0.002662554082
5.71,-0.02835689226,-0.001352523817
5.72,-0.02813508946,-6.334025563E-05
5.73,-0.02785067224,0.001201675601
5.74,-0.02750553033,0.002439327039
5.75,-0.0271017221,0.00364655128
5.76,-0.02664146546,0.004820428533
5.77,-0.0261271282,0.005958190452
5.78,-0.02556121792,0.00705722794
5.79,-0.0249463716,0.008115098303
5.8,-0.02428534473,0.009129531712
5.81,-0.02358100012,0.01009843697
5.82,-0.02283629654,0.01101990656
5.83,-0.02205427697,0.01189222096
5.84,-0.02123805682,0.01271385225
5.85,-0.02039081193,0.0134834669
5.86,-0.01951576649,0.01419992791
5.87,-0.01861618092,0.01486229613
5.88,-0.01769533981,0.01546983086
5.89,-0.0167565398,0.01602198967
5.9,-0.01580307766,0.01651842759
5.91,-0.01483823846,0.01695899545
5.92,-0.01386528394,0.01734373759
5.93,-0.01288744107,0.01767288885
5.94,-0.01190789095,0.01794687093
5.95,-0.01092975794,0.018166288
5.96,-0.0099560992,0.0183319218
5.97,-0.008989894552,0.01844472606
5.98,-0.008034036819,0.01850582036
5.99,-0.007091322564,0.01851648346
6,-0.006164443342,0.01847814608
