"Freq [GHz]","re(S(Tx_p1,Tx_p1)) []","im(S(Tx_p1,Tx_p1)) []"
1,0.03500130608,-0.1910422787
1.01,0.02958677319,-0.1890967129
1.02,0.0242930647,-0.186996996
1.03,0.01912775892,-0.1847477008
1.04,0.01409816179,-0.1823539584
1.05,0.009211273388,-0.1798214318
1.06,0.004473756255,-0.1771562901
1.07,-0.0001080944662,-0.1743651792
1.08,-0.004528378983,-0.1714551938
1.09,-0.008781618895,-0.1684338459
1.1,-0.01286278127,-0.1653090343
1.11,-0.01676730072,-0.1620890121
1.12,-0.0204910995,-0.1587823536
1.13,-0.02403060548,-0.1553979203
1.14,-0.02738276814,-0.1519448272
1.15,-0.03054507241,-0.1484324069
1.16,-0.03351555042,-0.1448701749
1.17,-0.03629279118,-0.1412677939
1.18,-0.03887594812,-0.1376350374
1.19,-0.04126474448,-0.1339817538
1.2,-0.04345947669,-0.1303178307
1.21,-0.04546101554,-0.1266531585
1.22,-0.04727080533,-0.1229975945
1.23,-0.04889086097,-0.1193609277
1.24,-0.05032376301,-0.1157528437
1.25,-0.05157265065,-0.1121828895
1.26,-0.05264121288,-0.1086604403
1.27,-0.05353367755,-0.1051946655
1.28,-0.05425479866,-0.1017944963
1.29,-0.0548098418,-0.09846859448
1.3,-0.05520456776,-0.09522532114
1.31,-0.05544521452,-0.09207270749
1.32,-0.05553847751,-0.08901842628
1.33,-0.05549148833,-0.08606976468
1.34,-0.05531179192,-0.08323359838
1.35,-0.05500732238,-0.08051636713
1.36,-0.05458637735,-0.07792405181
1.37,-0.05405759118,-0.07546215289
1.38,-0.05342990694,-0.07313567067
1.39,-0.05271254728,-0.07094908707
1.4,-0.05191498439,-0.06890634916
1.41,-0.05104690898,-0.06701085445
1.42,-0.05011819853,-0.06526543801
1.43,-0.04913888486,-0.06367236145
1.44,-0.04811912101,-0.06223330367
1.45,-0.04706914779,-0.0609493537
1.46,-0.04599925986,-0.05982100528
1.47,-0.04491977153,-0.05884815349
1.48,-0.04384098247,-0.05803009332
1.49,-0.0427731433,-0.0573655202
1.5,-0.04172642132,-0.05685253243
1.51,-0.04071086628,-0.0564886356
1.52,-0.03973637658,-0.05627074901
1.53,-0.03881266569,-0.05619521386
1.54,-0.03794922921,-0.05625780345
1.55,-0.03715531236,-0.05645373521
1.56,-0.0364398783,-0.05677768453
1.57,-0.03581157715,-0.05722380042
1.58,-0.03527871598,-0.05778572286
1.59,-0.03484922965,-0.05845660185
1.6,-0.03453065288,-0.05922911815
1.61,-0.03433009339,-0.06009550547
1.62,-0.03425420631,-0.06104757428
1.63,-0.03430916991,-0.06207673698
1.64,-0.03450066278,-0.06317403445
1.65,-0.03483384243,-0.06433016387
1.66,-0.0353133255,-0.06553550774
1.67,-0.03594316955,-0.066780164
1.68,-0.0367268565,-0.06805397717
1.69,-0.03766727788,-0.06934657043
1.7,-0.03876672176,-0.07064737849
1.71,-0.04002686161,-0.07194568121
1.72,-0.04144874689,-0.07323063788
1.73,-0.04303279565,-0.07449132195
1.74,-0.04477878902,-0.07571675626
1.75,-0.04668586759,-0.07689594856
1.76,-0.0487525298,-0.07801792719
1.77,-0.05097663233,-0.07907177692
1.78,-0.05335539237,-0.08004667477
1.79,-0.05588539197,-0.08093192569
1.8,-0.05856258425,-0.08171699808
1.81,-0.06138230165,-0.08239155885
1.82,-0.06433926609,-0.0829455082
1.83,-0.06742760097,-0.08336901376
1.84,-0.07064084516,-0.08365254409
1.85,-0.07397196877,-0.08378690145
1.86,-0.07741339069,-0.08376325375
1.87,-0.08095699794,-0.08357316548
1.88,-0.08459416672,-0.08320862763
1.89,-0.08831578504,-0.08266208654
1.9,-0.09211227699,-0.08192647142
1.91,-0.09597362853,-0.08099522061
1.92,-0.09988941467,-0.07986230649
1.93,-0.103848828,-0.07852225883
1.94,-0.1078407088,-0.07697018668
1.95,-0.1118535756,-0.07520179864
1.96,-0.1158756579,-0.07321342135
1.97,-0.1198949289,-0.0710020164
1.98,-0.1238991402,-0.06856519537
1.99,-0.127875856,-0.06590123298
2,-0.1318124895,-0.06300907846
2.01,-0.1356963387,-0.05988836491
2.02,-0.1395146237,-0.05653941677
2.03,-0.1432545234,-0.05296325525
2.04,-0.1469032136,-0.04916160177
2.05,-0.1504479044,-0.04513687942
2.06,-0.1538758783,-0.04089221231
2.07,-0.1571745281,-0.03643142292
2.08,-0.1603313942,-0.03175902745
2.09,-0.1633342026,-0.0268802291
2.1,-0.1661709017,-0.02180090931
2.11,-0.1688296994,-0.01652761705
2.12,-0.1712990985,-0.01106755617
2.13,-0.1735679331,-0.005428570676
2.14,-0.1756254024,0.0003808717186
2.15,-0.1774611053,0.006351698055
2.16,-0.1790650726,0.01247425032
2.17,-0.1804277995,0.01873830743
2.18,-0.1815402753,0.0251331089
2.19,-0.1823940138,0.03164738018
2.2,-0.1829810806,0.03826935955
2.21,-0.1832941198,0.04498682649
2.22,-0.1833263795,0.05178713151
2.23,-0.1830717351,0.05865722735
2.24,-0.1825247108,0.06558370132
2.25,-0.1816805006,0.07255280896
2.26,-0.1805349858,0.07955050866
2.27,-0.1790847523,0.08656249733
2.28,-0.1773271047,0.0935742469
2.29,-0.1752600792,0.1005710417
2.3,-0.1728824548,0.1075380162
2.31,-0.1701937612,0.1144601941
2.32,-0.1671942863,0.1213225268
2.33,-0.1638850806,0.1281099329
2.34,-0.1602679593,0.1348073383
2.35,-0.1563455038,0.1413997152
2.36,-0.1521210591,0.1478721225
2.37,-0.1475987307,0.1542097453
2.38,-0.1427833785,0.1603979343
2.39,-0.1376806092,0.1664222453
2.4,-0.132296766,0.1722684776
2.41,-0.1266389171,0.1779227126
2.42,-0.1207148413,0.183371351
2.43,-0.1145330123,0.1886011501
2.44,-0.1081025808,0.1935992598
2.45,-0.1014333545,0.1983532574
2.46,-0.09453577711,0.2028511816
2.47,-0.08742090414,0.2070815659
2.48,-0.0801003785,0.2110334697
2.49,-0.07258640347,0.2146965092
2.5,-0.06489171446,0.2180608855
2.51,-0.0570295492,0.2211174129
2.52,-0.04901361652,0.2238575444
2.53,-0.04085806381,0.2262733956
2.54,-0.03257744319,0.2283577678
2.55,-0.0241866766,0.2301041683
2.56,-0.01570101971,0.2315068294
2.57,-0.007136025039,0.2325607255
2.58,0.001492495947,0.2332615881
2.59,0.0101685114,0.2336059186
2.6,0.01887580834,0.2335909999
2.61,0.02759803242,0.2332149049
2.62,0.03631872818,0.2324765037
2.63,0.04502137958,0.2313754685
2.64,0.05368945072,0.2299122759
2.65,0.06230642677,0.228088208
2.66,0.07085585475,0.2259053503
2.67,0.07932138431,0.2233665887
2.68,0.08768680818,0.2204756033
2.69,0.09593610235,0.2172368604
2.7,0.1040534657,0.213655603
2.71,0.1120233593,0.2097378385
2.72,0.1198305446,0.2054903248
2.73,0.1274601214,0.2009205543
2.74,0.1348975643,0.1960367358
2.75,0.1421287588,0.1908477752
2.76,0.1491400361,0.185363253
2.77,0.1559182064,0.1795934018
2.78,0.1624505913,0.1735490805
2.79,0.1687250548,0.1672417481
2.8,0.174730033,0.1606834349
2.81,0.1804545615,0.1538867128
2.82,0.1858883026,0.1468646644
2.83,0.1910215694,0.13963085
2.84,0.1958453492,0.1321992743
2.85,0.2003513243,0.1245843512
2.86,0.2045318921,0.116800868
2.87,0.2083801816,0.1088639484
2.88,0.2118900699,0.100789015
2.89,0.215056195,0.09259175077
2.9,0.2178739677,0.08428805994
2.91,0.220339581,0.07589402846
2.92,0.2224500174,0.06742588399
2.93,0.2242030542,0.05889995562
2.94,0.225597267,0.0503326334
2.95,0.2266320303,0.04174032775
2.96,0.2273075169,0.03313942893
2.97,0.2276246946,0.02454626667
2.98,0.2275853208,0.01597707005
2.99,0.2271919357,0.007447927692
3,0.2264478524,-0.001025251497
3.01,0.2253571461,-0.00942677705
3.02,0.2239246402,-0.01774121498
3.03,0.2221558913,-0.02595342499
3.04,0.2200571721,-0.03404859687
3.05,0.2176354522,-0.04201228583
3.06,0.2148983773,-0.04983044676
3.07,0.2118542466,-0.0574894674
3.08,0.2085119886,-0.06497620009
3.09,0.2048811353,-0.07227799235
3.1,0.2009717948,-0.07938271589
3.11,0.1967946225,-0.08627879416
3.12,0.1923607913,-0.09295522834
3.13,0.1876819594,-0.09940162167
3.14,0.1827702386,-0.105608202
3.15,0.1776381599,-0.1115658428
3.16,0.1722986392,-0.117266082
3.17,0.1667649418,-0.122701139
3.18,0.1610506455,-0.1278639305
3.19,0.1551696044,-0.1327480831
3.2,0.1491359103,-0.137347945
3.21,0.1429638555,-0.141658595
3.22,0.1366678937,-0.1456758501
3.23,0.1302626013,-0.1493962706
3.24,0.1237626389,-0.152817163
3.25,0.117182712,-0.1559365814
3.26,0.1105375323,-0.1587533266
3.27,0.1038417788,-0.1612669429
3.28,0.09711005984,-0.163477713
3.29,0.09035687449,-0.1653866513
3.3,0.08359657546,-0.1669954948
3.31,0.076843332,-0.168306692
3.32,0.07011109374,-0.1693233898
3.33,0.06341355522,-0.1700494196
3.34,0.05676412144,-0.1704892797
3.35,0.05017587427,-0.1706481177
3.36,0.04366154005,-0.1705317099
3.37,0.03723345836,-0.1701464402
3.38,0.03090355197,-0.1694992762
3.39,0.0246832982,-0.1685977448
3.4,0.01858370168,-0.1674499057
3.41,0.01261526865,-0.1660643241
3.42,0.006787982685,-0.1644500414
3.43,0.001111282205,-0.1626165456
3.44,-0.004405960435,-0.1605737399
3.45,-0.009755458082,-0.1583319104
3.46,-0.01492952614,-0.1559016933
3.47,-0.0199210981,-0.1532940409
3.48,-0.02472373919,-0.150520187
3.49,-0.02933165814,-0.1475916116
3.5,-0.033739717,-0.1445200055
3.51,-0.03794343902,-0.1413172337
3.52,-0.04193901455,-0.1379952996
3.53,-0.04572330499,-0.1345663078
3.54,-0.04929384472,-0.1310424279
3.55,-0.05264884105,-0.1274358576
3.56,-0.05578717226,-0.1237587861
3.57,-0.05870838357,-0.1200233583
3.58,-0.06141268129,-0.1162416382
3.59,-0.06390092489,-0.1124255739
3.6,-0.06617461738,-0.1085869625
3.61,-0.06823589362,-0.1047374158
3.62,-0.07008750698,-0.1008883266
3.63,-0.07173281415,-0.09705083629
3.64,-0.07317575821,-0.093235803
3.65,-0.07442085011,-0.08945377068
3.66,-0.07547314844,-0.08571493964
3.67,-0.07633823776,-0.08202913806
3.68,-0.07702220537,-0.07840579489
3.69,-0.07753161673,-0.07485391399
3.7,-0.07787348955,-0.07138204983
3.71,-0.0780552666,-0.06799828456
3.72,-0.07808478738,-0.06471020675
3.73,-0.07797025876,-0.06152489163
3.74,-0.07772022455,-0.05844888315
3.75,-0.07734353427,-0.05548817762
3.76,-0.07684931102,-0.05264820919
3.77,-0.07624691881,-0.04993383711
3.78,-0.07554592909,-0.04734933486
3.79,-0.07475608697,-0.0448983811
3.8,-0.07388727694,-0.04258405253
3.81,-0.07294948832,-0.04040881866
3.82,-0.07195278054,-0.03837453849
3.83,-0.07090724832,-0.03648245911
3.84,-0.06982298687,-0.03473321623
3.85,-0.06871005727,-0.0331268366
3.86,-0.06757845198,-0.03166274241
3.87,-0.06643806077,-0.03033975744
3.88,-0.06529863706,-0.02915611525
3.89,-0.06416976479,-0.02810946905
3.9,-0.06306082591,-0.0271969035
3.91,-0.06198096865,-0.02641494817
3.92,-0.06093907657,-0.02575959282
3.93,-0.05994373855,-0.0252263043
3.94,-0.05900321976,-0.02481004506
3.95,-0.05812543379,-0.02450529328
3.96,-0.05731791591,-0.02430606444
3.97,-0.05658779754,-0.02420593436
3.98,-0.05594178219,-0.0241980636
3.99,-0.05538612263,-0.02427522312
4,-0.0549265997,-0.0244298212
4.01,-0.05456850252,-0.02465393141
4.02,-0.05431661039,-0.02493932171
4.03,-0.05417517626,-0.02527748442
4.04,-0.05414791196,-0.02565966711
4.05,-0.05423797514,-0.0260769042
4.06,-0.05444795797,-0.02652004929
4.07,-0.05477987771,-0.02697980804
4.08,-0.05523516905,-0.02744677146
4.09,-0.05581467839,-0.02791144968
4.1,-0.0565186599,-0.02836430592
4.11,-0.05734677359,-0.02879579062
4.12,-0.05829808519,-0.02919637566
4.13,-0.05937106797,-0.02955658856
4.14,-0.06056360643,-0.02986704644
4.15,-0.06187300188,-0.03011848987
4.16,-0.06329597993,-0.03030181624
4.17,-0.06482869976,-0.03040811276
4.18,-0.06646676522,-0.03042868891
4.19,-0.06820523777,-0.03035510814
4.2,-0.07003865111,-0.03017921899
4.21,-0.07196102753,-0.02989318521
4.22,-0.07396589595,-0.02948951506
4.23,-0.07604631148,-0.02896108951
4.24,-0.07819487665,-0.02830118941
4.25,-0.08040376403,-0.02750352138
4.26,-0.08266474028,-0.02656224253
4.27,-0.0849691916,-0.02547198373
4.28,-0.08730815037,-0.02422787158
4.29,-0.0896723231,-0.02282554878
4.3,-0.09205211935,-0.02126119301
4.31,-0.09443768182,-0.01953153425
4.32,-0.09681891726,-0.01763387032
4.33,-0.09918552833,-0.01556608081
4.34,-0.1015270461,-0.01332663922
4.35,-0.1038328633,-0.01091462331
4.36,-0.1060922683,-0.008329723602
4.37,-0.1082944788,-0.005572250069
4.38,-0.1104286771,-0.002643136898
4.39,-0.1124840446,0.0004560546191
4.4,-0.1144497967,0.003723135109
4.41,-0.1163152185,0.007155288063
4.42,-0.1180696988,0.0107490727
4.43,-0.1197027658,0.01450042873
4.44,-0.1212041215,0.01840468304
4.45,-0.1225636756,0.0224565583
4.46,-0.1237715798,0.02665018331
4.47,-0.1248182604,0.03097910536
4.48,-0.1256944515,0.03543630428
4.49,-0.1263912263,0.04001420831
4.5,-0.1269000279,0.04470471167
4.51,-0.1272127,0.04949919384
4.52,-0.1273215151,0.05438854047
4.53,-0.1272192026,0.05936316584
4.54,-0.1268989754,0.06441303684
4.55,-0.1263545552,0.06952769844
4.56,-0.1255801963,0.07469630044
4.57,-0.1245707085,0.0799076256
4.58,-0.1233214773,0.08515011898
4.59,-0.1218284844,0.0904119184
4.6,-0.1200883243,0.09568088595
4.61,-0.1180982215,0.1009446405
4.62,-0.1158560438,0.106190591
4.63,-0.1133603158,0.1114059709
4.64,-0.1106102289,0.1165778724
4.65,-0.1076056506,0.1216932825
4.66,-0.1043471311,0.1267391185
4.67,-0.1008359088,0.1317022647
4.68,-0.09707391295,0.1365696083
4.69,-0.09306376519,0.1413280768
4.7,-0.08880877842,0.1459646745
4.71,-0.08431295422,0.1504665193
4.72,-0.07958097804,0.1548208796
4.73,-0.07461821254,0.1590152103
4.74,-0.06943068893,0.1630371893
4.75,-0.06402509644,0.1668747527
4.76,-0.05840876987,0.1705161303
4.77,-0.05258967528,0.1739498796
4.78,-0.04657639386,0.1771649199
4.79,-0.04037810397,0.1801505646
4.8,-0.03400456152,0.1828965536
4.81,-0.02746607856,0.1853930838
4.82,-0.02077350035,0.1876308389
4.83,-0.01393818071,0.1896010181
4.84,-0.006971956016,0.1912953631
4.85,0.0001128823548,0.1927061837
4.86,0.007303616892,0.193826383
4.87,0.01458713412,0.1946494795
4.88,0.021949956,0.1951696287
4.89,0.02937827236,0.1953816427
4.9,0.03685797451,0.1952810084
4.91,0.04437468966,0.1948639032
4.92,0.05191381624,0.1941272097
4.93,0.05946056002,0.1930685282
4.94,0.06699997076,0.1916861871
4.95,0.07451697956,0.189979252
4.96,0.08199643657,0.187947532
4.97,0.08942314903,0.1855915847
4.98,0.09678191963,0.1829127192
4.99,0.104057585,0.1799129963
5,0.111235054,0.1765952279
5.01,0.1182993465,0.1729629734
5.02,0.1252356313,0.1690205344
5.03,0.1320292642,0.1647729478
5.04,0.1386658254,0.1602259764
5.05,0.1451311568,0.1553860977
5.06,0.1514113984,0.1502604907
5.07,0.157493024,0.1448570215
5.08,0.1633628761,0.1391842258
5.09,0.1690082003,0.1332512905
5.1,0.1744166779,0.1270680336
5.11,0.1795764583,0.1206448815
5.12,0.1844761897,0.1139928461
5.13,0.1891050487,0.1071234985
5.14,0.1934527687,0.100048943
5.15,0.1975096664,0.09278178817
5.16,0.2012666674,0.08533511769
5.17,0.20471533,0.07772245907
5.18,0.2078478673,0.06995775164
5.19,0.2106571678,0.06205531326
5.2,0.2131368139,0.05402980598
5.21,0.2152810992,0.04589620086
5.22,0.2170850432,0.03766974186
5.23,0.2185444049,0.02936590902
5.24,0.2196556939,0.02100038099
5.25,0.2204161799,0.01258899707
5.26,0.2208238999,0.004147718694
5.27,0.2208776636,-0.004307409273
5.28,0.2205770572,-0.0127602976
5.29,0.2199224441,-0.02119485179
5.3,0.2189149647,-0.02959501123
5.31,0.2175565335,-0.03794478827
5.32,0.2158498346,-0.04622830705
5.33,0.2137983147,-0.0544298421
5.34,0.2114061748,-0.06253385647
5.35,0.2086783592,-0.0705250394
5.36,0.205620543,-0.07838834335
5.37,0.2022391179,-0.08610902031
5.38,0.1985411757,-0.09367265739
5.39,0.1945344902,-0.1010652114
5.4,0.1902274972,-0.1082730423
5.41,0.1856292731,-0.1152829462
5.42,0.1807495119,-0.1220821862
5.43,0.1755984998,-0.1286585227
5.44,0.1701870895,-0.1350002423
5.45,0.1645266721,-0.141096185
5.46,0.1586291484,-0.1469357701
5.47,0.1525068979,-0.1525090204
5.48,0.1461727481,-0.157806585
5.49,0.1396399411,-0.1628197603
5.5,0.1329221002,-0.1675405093
5.51,0.1260331955,-0.171961479
5.52,0.1189875083,-0.1760760161
5.53,0.1117995947,-0.1798781806
5.54,0.1044842493,-0.1833627583
5.55,0.09705646786,-0.1865252698
5.56,0.08953140904,-0.1893619793
5.57,0.08192435691,-0.1918699005
5.58,0.07425068247,-0.1940468002
5.59,0.06652580529,-0.1958912006
5.6,0.05876515514,-0.1974023797
5.61,0.05098413369,-0.1985803688
5.62,0.04319807645,-0.1994259489
5.63,0.03542221501,-0.1999406447
5.64,0.02767163962,-0.2001267167
5.65,0.01996126241,-0.199987152
5.66,0.01230578108,-0.1995256516
5.67,0.004719643414,-0.198746618
5.68,-0.002782987467,-0.1976551393
5.69,-0.01018826694,-0.1962569723
5.7,-0.01748270172,-0.1945585236
5.71,-0.02465318163,-0.1925668294
5.72,-0.03168701018,-0.1902895333
5.73,-0.038571934,-0.187734863
5.74,-0.04529617079,-0.184911605
5.75,-0.05184843607,-0.1818290783
5.76,-0.05821796827,-0.1784971067
5.77,-0.06439455248,-0.1749259902
5.78,-0.07036854247,-0.1711264743
5.79,-0.07613088111,-0.1671097194
5.8,-0.08167311915,-0.1628872685
5.81,-0.08698743216,-0.1584710142
5.82,-0.09206663572,-0.1538731653
5.83,-0.09690419886,-0.1491062116
5.84,-0.1014942555,-0.1441828899
5.85,-0.1058316142,-0.1391161475
5.86,-0.1099117659,-0.1339191071
5.87,-0.1137308895,-0.1286050303
5.88,-0.1172858561,-0.1231872812
5.89,-0.1205742309,-0.1176792901
5.9,-0.1235942732,-0.1120945169
5.91,-0.1263449343,-0.1064464153
5.92,-0.1288258544,-0.1007483963
5.93,-0.131037356,-0.0950137925
5.94,-0.1329804372,-0.08925582318
5.95,-0.1346567617,-0.08348755923
5.96,-0.1360686482,-0.07772188913
5.97,-0.1372190569,-0.07197148556
5.98,-0.1381115752,-0.06624877277
5.99,-0.1387504011,-0.06056589488
6,-0.1391403253,-0.05493468521
