"Freq [GHz]","re(S(Tx_p1,Tx_p1)) []","im(S(Tx_p1,Tx_p1)) []"
1,-0.02230065658,-0.05537213741
1.01,-0.02403323352,-0.05329294927
1.02,-0.02565234595,-0.05115272256
1.03,-0.0271546316,-0.04895712459
1.04,-0.0285370547,-0.04671205534
1.05,-0.02979691961,-0.04442362591
1.06,-0.03093188325,-0.04209813632
1.07,-0.03193996606,-0.03974205279
1.08,-0.03281956163,-0.03736198454
1.09,-0.03356944494,-0.03496466026
1.1,-0.03418877917,-0.03255690421
1.11,-0.0346771211,-0.03014561208
1.12,-0.03503442503,-0.02773772669
1.13,-0.0352610454,-0.02534021362
1.14,-0.03535773783,-0.02296003679
1.15,-0.03532565881,-0.02060413409
1.16,-0.035166364,-0.01827939317
1.17,-0.03488180503,-0.01599262744
1.18,-0.03447432503,-0.01375055231
1.19,-0.03394665272,-0.01155976184
1.2,-0.03330189517,-0.009426705771
1.21,-0.03254352926,-0.007357667117
1.22,-0.03167539188,-0.00535874025
1.23,-0.03070166883,-0.003435809687
1.24,-0.02962688255,-0.001594529554
1.25,-0.02845587874,0.000159696174
1.26,-0.02719381176,0.001821732607
1.27,-0.02584612902,0.003386731978
1.28,-0.02441855442,0.00485015074
1.29,-0.02291707072,0.006207765662
1.3,-0.02134790108,0.007455688875
1.31,-0.01971748978,0.008590381823
1.32,-0.01803248211,0.00960866807
1.33,-0.01629970362,0.01050774494
1.34,-0.01452613869,0.01128519391
1.35,-0.01271890855,0.01193898982
1.36,-0.0108852488,0.0124675087
1.37,-0.009032486527,0.01286953443
1.38,-0.007168017033,0.01314426394
1.39,-0.005299280342,0.01329131119
1.4,-0.003433737476,0.01331070972
1.41,-0.001578846623,0.01320291388
1.42,0.0002579607368,0.0129687987
1.43,0.002069303672,0.01260965836
1.44,0.00384787553,0.01212720339
1.45,0.005586467486,0.01152355639
1.46,0.007277991815,0.01080124656
1.47,0.008915504844,0.009963202804
1.48,0.01049222949,0.009012745612
1.49,0.01200157728,0.007953577625
1.5,0.01343716992,0.006789772985
1.51,0.0147928601,0.005525765476
1.52,0.0160627517,0.004166335495
1.53,0.01724121927,0.002716595888
1.54,0.01832292661,0.001181976717
1.55,0.01930284452,-0.0004317910224
1.56,0.02017626764,-0.002118692661
1.57,0.02093883026,-0.00387244805
1.58,0.02158652113,-0.005686530629
1.59,0.02211569718,-0.007554187309
1.6,0.02252309609,-0.009468459105
1.61,0.02280584774,-0.01142220247
1.62,0.02296148438,-0.01340811121
1.63,0.02298794968,-0.01541873905
1.64,0.02288360639,-0.01744652254
1.65,0.02264724279,-0.0194838045
1.66,0.02227807779,-0.02152285773
1.67,0.02177576475,-0.02355590905
1.68,0.02114039387,-0.02557516346
1.69,0.02037249332,-0.02757282843
1.7,0.019473029,-0.0295411383
1.71,0.01844340284,-0.03147237856
1.72,0.01728544994,-0.03335891006
1.73,0.01600143417,-0.03519319305
1.74,0.0145940426,-0.03696781088
1.75,0.01306637847,-0.03867549348
1.76,0.01142195303,-0.04030914037
1.77,0.009664675936,-0.04186184317
1.78,0.00779884456,-0.04332690761
1.79,0.005829131982,-0.04469787491
1.8,0.003760573865,-0.04596854247
1.81,0.00159855418,-0.04713298381
1.82,-0.0006512101545,-0.04818556772
1.83,-0.002982685681,-0.04912097654
1.84,-0.005389539802,-0.04993422348
1.85,-0.007865159124,-0.05062066904
1.86,-0.01040266868,-0.0511760363
1.87,-0.012994952,-0.05159642522
1.88,-0.0156346719,-0.05187832579
1.89,-0.01831429206,-0.05201863001
1.9,-0.02102609913,-0.05201464269
1.91,-0.02376222551,-0.05186409098
1.92,-0.02651467259,-0.0515651327
1.93,-0.02927533438,-0.05111636335
1.94,-0.03203602159,-0.05051682179
1.95,-0.03478848591,-0.04976599463
1.96,-0.03752444459,-0.04886381927
1.97,-0.04023560507,-0.04781068558
1.98,-0.04291368974,-0.04660743623
1.99,-0.04555046068,-0.04525536565
2,-0.04813774429,-0.04375621767
2.01,-0.05066745578,-0.04211218178
2.02,-0.05313162343,-0.04032588804
2.03,-0.05552241253,-0.03840040073
2.04,-0.05783214898,-0.03633921062
2.05,-0.06005334238,-0.03414622602
2.06,-0.06217870864,-0.03182576256
2.07,-0.064201192,-0.02938253169
2.08,-0.06611398642,-0.0268216281
2.09,-0.06791055617,-0.0241485159
2.1,-0.06958465577,-0.02136901371
2.11,-0.07113034895,-0.01848927874
2.12,-0.07254202683,-0.01551578974
2.13,-0.07381442508,-0.01245532912
2.14,-0.07494264013,-0.009314964022
2.15,-0.07592214425,-0.006102026664
2.16,-0.07674879964,-0.002824093784
2.17,-0.07741887133,0.0005110345985
2.18,-0.07792903886,0.003895357104
2.19,-0.07827640683,0.007320693528
2.2,-0.07845851419,0.01077870791
2.21,-0.07847334222,0.01426093206
2.22,-0.07831932125,0.01775878954
2.23,-0.07799533608,0.02126361987
2.24,-0.07750073008,0.02476670312
2.25,-0.07683530786,0.02825928457
2.26,-0.07599933674,0.03173259958
2.27,-0.07499354678,0.03517789838
2.28,-0.07381912945,0.03858647095
2.29,-0.07247773501,0.04194967173
2.3,-0.07097146852,0.04525894408
2.31,-0.06930288456,0.04850584461
2.32,-0.06747498058,0.05168206713
2.33,-0.06549118905,0.05477946612
2.34,-0.06335536826,0.05779007987
2.35,-0.06107179198,0.06070615299
2.36,-0.05864513783,0.06352015835
2.37,-0.05608047456,0.06622481835
2.38,-0.05338324813,0.06881312545
2.39,-0.05055926677,0.07127836192
2.4,-0.04761468497,0.07361411876
2.41,-0.04455598647,0.07581431371
2.42,-0.04138996631,0.07787320825
2.43,-0.03812371206,0.0797854237
2.44,-0.03476458408,0.0815459562
2.45,-0.03132019518,0.08315019061
2.46,-0.0277983894,0.0845939133
2.47,-0.02420722031,0.08587332373
2.48,-0.02055492858,0.0869850449
2.49,-0.01684991914,0.08792613251
2.5,-0.01310073784,0.08869408286
2.51,-0.009316047738,0.08928683953
2.52,-0.005504605112,0.08970279875
2.53,-0.001675235199,0.0899408134
2.54,0.002163192213,0.09000019577
2.55,0.006001787287,0.08988071899
2.56,0.00983166466,0.08958261707
2.57,0.01364396792,0.08910658371
2.58,0.01742989392,0.08845376968
2.59,0.021180717,0.08762577904
2.6,0.0248878128,0.08662466393
2.61,0.02854268183,0.08545291815
2.62,0.03213697264,0.08411346948
2.63,0.03566250447,0.08260967078
2.64,0.0391112894,0.08094528988
2.65,0.04247555387,0.07912449826
2.66,0.04574775956,0.0771518587
2.67,0.04892062356,0.07503231171
2.68,0.05198713769,0.07277116103
2.69,0.05494058708,0.07037405806
2.7,0.05777456781,0.06784698529
2.71,0.06048300357,0.06519623895
2.72,0.06306016143,0.06242841067
2.73,0.06550066653,0.05955036844
2.74,0.06779951567,0.05656923679
2.75,0.06995208985,0.05349237627
2.76,0.07195416564,0.05032736237
2.77,0.07380192538,0.04708196385
2.78,0.07549196619,0.04376412058
2.79,0.07702130776,0.04038192096
2.8,0.07838739888,0.036943579
2.81,0.07958812271,0.03345741113
2.82,0.08062180086,0.02993181274
2.83,0.08148719606,0.02637523462
2.84,0.08218351365,0.02279615933
2.85,0.08271040175,0.0192030775
2.86,0.08306795019,0.01560446428
2.87,0.08325668807,0.01200875588
2.88,0.08327758022,0.008424326284
2.89,0.08313202222,0.004859464292
2.9,0.08282183438,0.001322350866
2.91,0.08234925439,-0.002178963113
2.92,0.08171692882,-0.005636578624
2.93,0.08092790351,-0.009042769747
2.94,0.07998561281,-0.01239000432
2.95,0.07889386771,-0.01567096392
2.96,0.07765684299,-0.01887856321
2.97,0.07627906331,-0.02200596839
2.98,0.0747653884,-0.02504661497
2.99,0.07312099727,-0.02799422461
3,0.07135137162,-0.03084282103
3.01,0.06946227844,-0.03358674501
3.02,0.06745975181,-0.03622066837
3.03,0.06535007406,-0.03873960693
3.04,0.06313975626,-0.04113893235
3.05,0.06083551813,-0.04341438293
3.06,0.0584442675,-0.04556207326
3.07,0.05597307922,-0.04757850271
3.08,0.05342917375,-0.04946056272
3.09,0.05081989542,-0.05120554295
3.1,0.04815269045,-0.0528111362
3.11,0.04543508474,-0.0542754421
3.12,0.04267466155,-0.05559696957
3.13,0.03987903921,-0.05677463813
3.14,0.03705584871,-0.05780777787
3.15,0.03421271145,-0.05869612831
3.16,0.03135721719,-0.05943983595
3.17,0.02849690207,-0.06003945074
3.18,0.02563922707,-0.06049592124
3.19,0.02279155667,-0.06081058871
3.2,0.01996113803,-0.06098518001
3.21,0.0171550806,-0.06102179943
3.22,0.01438033619,-0.06092291937
3.23,0.01164367975,-0.06069137004
3.24,0.008951690685,-0.0603303281
3.25,0.006310734925,-0.0598433043
3.26,0.003726947707,-0.05923413026
3.27,0.001206217178,-0.0585069443
3.28,-0.001245831181,-0.05766617642
3.29,-0.003623849229,-0.0567165325
3.3,-0.005922779924,-0.05566297779
3.31,-0.008137870119,-0.05451071964
3.32,-0.01026468234,-0.05326518965
3.33,-0.01229910558,-0.05193202522
3.34,-0.01423736496,-0.05051705054
3.35,-0.01607603038,-0.04902625724
3.36,-0.01781202401,-0.04746578449
3.37,-0.01944262674,-0.04584189888
3.38,-0.02096548332,-0.04416097397
3.39,-0.0223786066,-0.04242946964
3.4,-0.02368038035,-0.04065391132
3.41,-0.02486956113,-0.0388408691
3.42,-0.02594527889,-0.03699693686
3.43,-0.02690703642,-0.03512871143
3.44,-0.02775470767,-0.03324277186
3.45,-0.02848853495,-0.03134565888
3.46,-0.02910912491,-0.02944385459
3.47,-0.02961744357,-0.02754376244
3.48,-0.03001481005,-0.02565168759
3.49,-0.03030288944,-0.02377381768
3.5,-0.03048368449,-0.02191620406
3.51,-0.03055952635,-0.02008474358
3.52,-0.0305330643,-0.01828516099
3.53,-0.03040725461,-0.01652299187
3.54,-0.03018534838,-0.01480356641
3.55,-0.02987087864,-0.01313199377
3.56,-0.02946764655,-0.01151314735
3.57,-0.02897970686,-0.009951650787
3.58,-0.02841135267,-0.008451864898
3.59,-0.02776709947,-0.007017875457
3.6,-0.02705166859,-0.005653481948
3.61,-0.02626997007,-0.004362187278
3.62,-0.02542708506,-0.003147188479
3.63,-0.02452824771,-0.002011368437
3.64,-0.0235788267,-0.0009572886581
3.65,-0.02258430642,1.281689922E-05
3.66,-0.02155026789,0.0008970469195
3.67,-0.02048236947,0.001693836737
3.68,-0.01938632738,0.002401961248
3.69,-0.01826789618,0.00302053672
3.7,-0.01713284917,0.003549021502
3.71,-0.01598695886,0.003987215629
3.72,-0.01483597752,0.004335259341
3.73,-0.01368561786,0.004593630509
3.74,-0.01254153398,0.004763140988
3.75,-0.01140930253,0.004844931915
3.76,-0.01029440424,0.004840467964
3.77,-0.009202205824,0.004751530584
3.78,-0.008137942315,0.004580210247
3.79,-0.007106699932,0.004328897728
3.8,-0.006113399462,0.004000274449
3.81,-0.005162780251,0.00359730193
3.82,-0.004259384849,0.003123210364
3.83,-0.003407544345,0.002581486381
3.84,-0.002611364434,0.001975860014
3.85,-0.001874712271,0.001310290936
3.86,-0.001201204141,0.000588953994
3.87,-0.0005941939739,-0.0001837758973
3.88,-5.676276167E-05,-0.001003339464
3.89,0.0004082911206,-0.001865009323
3.9,0.0007984606407,-0.002763906727
3.91,0.001111537868,-0.003695018752
3.92,0.001345620739,-0.004653215855
3.93,0.001499118819,-0.005633269776
3.94,0.001570758032,-0.006629871691
3.95,0.001559584356,-0.007637650596
3.96,0.001464966479,-0.008651191821
3.97,0.001286597397,-0.009665055659
3.98,0.001024494965,-0.01067379602
3.99,0.000679001393,-0.01167197905
4,0.0002507816973,-0.01265420171
4.01,-0.0002591788857,-0.01361511014
4.02,-0.0008495785161,-0.01454941792
4.03,-0.00151880338,-0.01545192398
4.04,-0.002264933314,-0.01631753028
4.05,-0.00308574841,-0.01714125906
4.06,-0.003978736567,-0.01791826974
4.07,-0.004941101978,-0.01864387527
4.08,-0.005969774502,-0.01931355803
4.09,-0.007061419919,-0.01992298514
4.1,-0.008212451002,-0.0204680231
4.11,-0.009419039392,-0.02094475185
4.12,-0.01067712823,-0.02134947812
4.13,-0.01198244549,-0.02167874794
4.14,-0.01333051802,-0.0219293585
4.15,-0.01471668615,-0.02209836912
4.16,-0.01613611893,-0.02218311135
4.17,-0.0175838299,-0.02218119831
4.18,-0.01905469327,-0.02209053294
4.19,-0.02054346061,-0.02190931552
4.2,-0.02204477791,-0.02163605009
4.21,-0.02355320286,-0.02126954997
4.22,-0.02506322253,-0.02080894228
4.23,-0.02656927117,-0.0202536715
4.24,-0.02806574823,-0.01960350195
4.25,-0.0295470364,-0.01885851932
4.26,-0.03100751974,-0.0180191312
4.27,-0.03244160185,-0.01708606653
4.28,-0.03384372383,-0.01606037411
4.29,-0.03520838226,-0.01494342006
4.3,-0.03653014689,-0.01373688433
4.31,-0.03780367818,-0.01244275619
4.32,-0.03902374448,-0.0110633288
4.33,-0.0401852389,-0.009601192785
4.34,-0.04128319581,-0.008059228933
4.35,-0.04231280682,-0.006440599968
4.36,-0.0432694364,-0.004748741465
4.37,-0.04414863678,-0.002987351913
4.38,-0.04494616245,-0.001160381975
4.39,-0.04565798392,0.000727977025
4.4,-0.04628030084,0.002673305363
4.41,-0.0468095544,0.004670967863
4.42,-0.04724243903,0.006716127511
4.43,-0.04757591329,0.008803759682
4.44,-0.04780720993,0.01092866694
4.45,-0.04793384514,0.01308549434
4.46,-0.04795362697,0.01526874527
4.47,-0.04786466275,0.01747279761
4.48,-0.04766536574,0.0196919204
4.49,-0.04735446073,0.02192029072
4.5,-0.04693098877,0.0241520109
4.51,-0.04639431091,0.02638112598
4.52,-0.045744111,0.02860164122
4.53,-0.04498039749,0.03080753988
4.54,-0.04410350426,0.03299280094
4.55,-0.04311409052,0.03515141687
4.56,-0.04201313965,0.03727741137
4.57,-0.04080195713,0.03936485697
4.58,-0.03948216752,0.0414078925
4.59,-0.03805571047,0.04340074034
4.6,-0.03652483577,0.04533772347
4.61,-0.03489209753,0.04721328206
4.62,-0.03316034744,0.04902198993
4.63,-0.03133272714,0.05075857039
4.64,-0.02941265978,0.05241791172
4.65,-0.02740384071,0.05399508221
4.66,-0.02531022742,0.05548534454
4.67,-0.02313602865,0.05688416964
4.68,-0.02088569289,0.05818724993
4.69,-0.01856389604,0.0593905119
4.7,-0.01617552857,0.06049012794
4.71,-0.01372568192,0.06148252752
4.72,-0.01121963447,0.06236440755
4.73,-0.00866283687,0.06313274196
4.74,-0.006060896936,0.06378479047
4.75,-0.003419564128,0.06431810654
4.76,-0.0007447136052,0.0647305444
4.77,0.001957670052,0.06502026526
4.78,0.004681509398,0.06518574261
4.79,0.007420650936,0.06522576654
4.8,0.01016888211,0.06513944728
4.81,0.01291994844,0.06492621767
4.82,0.01566757076,0.06458583477
4.83,0.01840546248,0.06411838056
4.84,0.02112734683,0.06352426164
4.85,0.02382697406,0.06280420804
4.86,0.02649813852,0.06195927111
4.87,0.02913469556,0.06099082048
4.88,0.03173057824,0.05990054014
4.89,0.03427981376,0.0586904236
4.9,0.03677653963,0.05736276823
4.91,0.03921501937,0.05592016869
4.92,0.04158965797,0.0543655096
4.93,0.04389501676,0.05270195735
4.94,0.04612582793,0.05093295115
4.95,0.04827700838,0.04906219335
4.96,0.05034367312,0.04709363903
4.97,0.05232114805,0.04503148493
4.98,0.05420498204,0.04288015768
4.99,0.05599095841,0.04064430148
5,0.05767510571,0.03832876514
5.01,0.05925370769,0.03593858869
5.02,0.06072331265,0.03347898938
5.03,0.06208074187,0.03095534733
5.04,0.06332309738,0.0283731907
5.05,0.06444776877,0.02573818055
5.06,0.0654524393,0.02305609539
5.07,0.06633509106,0.0203328154
5.08,0.06709400936,0.01757430652
5.09,0.06772778612,0.01478660426
5.1,0.06823532258,0.0119757975
5.11,0.06861583094,0.009148012126
5.12,0.06886883524,0.006309394672
5.13,0.06899417133,0.003466095958
5.14,0.06899198595,0.0006242548198
5.15,0.068862735,-0.00221001807
5.16,0.06860718089,-0.005030656218
5.17,0.06822638908,-0.007831653122
5.18,0.06772172382,-0.01060707784
5.19,0.067094843,-0.01335109024
5.2,0.06634769228,-0.016057956
5.21,0.06548249843,-0.0187220611
5.22,0.0645017619,-0.02133792601
5.23,0.06340824869,-0.02390021938
5.24,0.06220498153,-0.02640377124
5.25,0.06089523037,-0.02884358569
5.26,0.05948250226,-0.03121485299
5.27,0.05797053061,-0.03351296112
5.28,0.05636326392,-0.03573350665
5.29,0.05466485392,-0.03787230503
5.3,0.05287964328,-0.03992540014
5.31,0.05101215284,-0.04188907318
5.32,0.0490670684,-0.04375985085
5.33,0.04704922717,-0.04553451276
5.34,0.04496360389,-0.04721009806
5.35,0.04281529666,-0.04878391142
5.36,0.04060951247,-0.05025352808
5.37,0.03835155262,-0.05161679817
5.38,0.03604679787,-0.05287185028
5.39,0.03370069361,-0.05401709415
5.4,0.03131873481,-0.05505122258
5.41,0.02890645104,-0.05597321255
5.42,0.02646939151,-0.05678232552
5.43,0.02401311008,-0.05747810694
5.44,0.02154315047,-0.05806038494
5.45,0.01906503156,-0.05852926827
5.46,0.01658423289,-0.05888514349
5.47,0.01410618038,-0.05912867129
5.48,0.01163623231,-0.05926078225
5.49,0.00917966566,-0.05928267167
5.5,0.006741662681,-0.05919579389
5.51,0.004327297956,-0.05900185578
5.52,0.001941525813,-0.05870280965
5.53,-0.0004108318003,-0.05830084553
5.54,-0.002725096965,-0.05779838277
5.55,-0.004996746928,-0.05719806118
5.56,-0.007221424704,-0.05650273153
5.57,-0.009394949114,-0.05571544555
5.58,-0.01151332423,-0.05483944552
5.59,-0.01357274824,-0.05387815333
5.6,-0.0155696216,-0.05283515914
5.61,-0.01750055464,-0.05171420974
5.62,-0.01936237443,-0.05051919648
5.63,-0.02115213099,-0.04925414294
5.64,-0.02286710279,-0.04792319236
5.65,-0.02450480156,-0.0465305948
5.66,-0.02606297639,-0.04508069417
5.67,-0.02753961707,-0.04357791508
5.68,-0.02893295678,-0.04202674957
5.69,-0.03024147396,-0.04043174385
5.7,-0.03146389356,-0.03879748493
5.71,-0.03259918747,-0.03712858732
5.72,-0.0336465743,-0.03542967976
5.73,-0.03460551841,-0.03370539207
5.74,-0.03547572829,-0.03196034207
5.75,-0.03625715417,-0.03019912275
5.76,-0.03694998501,-0.02842628957
5.77,-0.03755464483,-0.02664634807
5.78,-0.03807178835,-0.02486374166
5.79,-0.03850229608,-0.02308283983
5.8,-0.03884726867,-0.02130792662
5.81,-0.03910802083,-0.01954318947
5.82,-0.03928607459,-0.01779270852
5.83,-0.03938315204,-0.01606044628
5.84,-0.03940116755,-0.01435023779
5.85,-0.03934221957,-0.01266578125
5.86,-0.03920858188,-0.01101062915
5.87,-0.0390026945,-0.009388179945
5.88,-0.03872715415,-0.00780167025
5.89,-0.03838470437,-0.00625416762
5.9,-0.03797822531,-0.004748563899
5.91,-0.03751072322,-0.00328756917
5.92,-0.0369853197,-0.001873706312
5.93,-0.03640524069,-0.0005093061687
5.94,-0.0357738053,0.0008034966412
5.95,-0.03509441443,0.002062767295
5.96,-0.03437053934,0.003266773687
5.97,-0.0336057101,0.004413988715
5.98,-0.03280350398,0.005503091919
5.99,-0.03196753382,0.006532970481
6,-0.03110143645,0.007502719583
