"Freq [GHz]","re(S(Tx_p1,Tx_p1)) []","im(S(Tx_p1,Tx_p1)) []"
1,0.02825530816,-0.1183279264
1.01,0.02511155622,-0.1176864531
1.02,0.02201526466,-0.1169699129
1.03,0.01896947531,-0.1161801191
1.04,0.01597709124,-0.1153191088
1.05,0.01304086409,-0.1143891276
1.06,0.01016338266,-0.113392614
1.07,0.007347062577,-0.1123321831
1.08,0.004594137147,-0.1112106112
1.09,0.001906649359,-0.1100308188
1.1,-0.0007135549815,-0.1087958546
1.11,-0.003264832996,-0.107508879
1.12,-0.005745749372,-0.1061731475
1.13,-0.008155079909,-0.1047919949
1.14,-0.010491814,-0.1033688185
1.15,-0.01275515605,-0.1019070624
1.16,-0.0149445259,-0.1004102014
1.17,-0.01705955823,-0.09888172591
1.18,-0.01910010104,-0.09732512629
1.19,-0.0210662131,-0.09574387823
1.2,-0.02295816064,-0.09414142823
1.21,-0.02477641307,-0.09252117965
1.22,-0.02652163792,-0.09088647922
1.23,-0.02819469498,-0.08924060411
1.24,-0.02979662973,-0.08758674954
1.25,-0.03132866601,-0.08592801704
1.26,-0.0327921981,-0.0842674033
1.27,-0.03418878218,-0.08260778976
1.28,-0.03552012717,-0.0809519328
1.29,-0.03678808516,-0.07930245473
1.3,-0.03799464128,-0.07766183549
1.31,-0.03914190323,-0.07603240506
1.32,-0.04023209038,-0.07441633673
1.33,-0.04126752266,-0.07281564106
1.34,-0.04225060907,-0.0712321607
1.35,-0.04318383605,-0.06966756598
1.36,-0.04406975573,-0.06812335124
1.37,-0.04491097395,-0.06660083208
1.38,-0.04571013833,-0.06510114331
1.39,-0.04646992629,-0.06362523769
1.4,-0.04719303313,-0.06217388552
1.41,-0.04788216015,-0.06074767493
1.42,-0.04854000293,-0.05934701292
1.43,-0.04916923984,-0.05797212722
1.44,-0.04977252064,-0.05662306876
1.45,-0.0503524555,-0.05529971493
1.46,-0.05091160417,-0.05400177345
1.47,-0.05145246563,-0.0527287869
1.48,-0.051977468,-0.05148013791
1.49,-0.05248895891,-0.05025505486
1.5,-0.05298919637,-0.04905261823
1.51,-0.05348033996,-0.04787176742
1.52,-0.0539644427,-0.04671130804
1.53,-0.05444344329,-0.04556991974
1.54,-0.05491915903,-0.04444616434
1.55,-0.05539327918,-0.04333849445
1.56,-0.05586735899,-0.04224526237
1.57,-0.05634281435,-0.04116472932
1.58,-0.05682091693,-0.04009507489
1.59,-0.05730279009,-0.03903440675
1.6,-0.05778940533,-0.03798077057
1.61,-0.05828157942,-0.03693216001
1.62,-0.05877997209,-0.03588652683
1.63,-0.05928508451,-0.03484179113
1.64,-0.05979725823,-0.03379585151
1.65,-0.06031667489,-0.0327465953
1.66,-0.06084335647,-0.03169190867
1.67,-0.0613771662,-0.03062968667
1.68,-0.06191781004,-0.02955784318
1.69,-0.0624648388,-0.02847432062
1.7,-0.06301765077,-0.02737709952
1.71,-0.06357549496,-0.02626420786
1.72,-0.06413747485,-0.02513373005
1.73,-0.06470255267,-0.0239838158
1.74,-0.06526955415,-0.02281268847
1.75,-0.06583717379,-0.02161865322
1.76,-0.06640398052,-0.02040010468
1.77,-0.06696842381,-0.01915553433
1.78,-0.06752884016,-0.01788353737
1.79,-0.06808345995,-0.01658281919
1.8,-0.06863041464,-0.01525220141
1.81,-0.06916774425,-0.0138906274
1.82,-0.06969340511,-0.01249716736
1.83,-0.07020527787,-0.01107102288
1.84,-0.07070117571,-0.009611531027
1.85,-0.0711788527,-0.008118167876
1.86,-0.07163601238,-0.006590551568
1.87,-0.07207031632,-0.005028444823
1.88,-0.07247939292,-0.003431756947
1.89,-0.07286084614,-0.001800545311
1.9,-0.07321226429,-0.0001350163149
1.91,-0.07353122881,0.001564474159
1.92,-0.07381532302,0.003297420802
1.93,-0.07406214076,0.005063169437
1.94,-0.07426929498,0.006860918056
1.95,-0.07443442616,0.008689718348
1.96,-0.07455521062,0.01054847769
1.97,-0.0746293686,0.01243596156
1.98,-0.07465467217,0.01435079648
1.99,-0.07462895295,0.01629147323
2,-0.07455010951,0.01825635061
2.01,-0.07441611454,0.0202436595
2.02,-0.07422502175,0.02225150729
2.03,-0.07397497245,0.02427788272
2.04,-0.0736642018,0.02632066094
2.05,-0.07329104476,0.02837760897
2.06,-0.07285394166,0.03044639135
2.07,-0.07235144344,0.03252457613
2.08,-0.0717822165,0.034609641
2.09,-0.0711450472,0.03669897972
2.1,-0.07043884594,0.03878990868
2.11,-0.0696626509,0.04087967362
2.12,-0.06881563136,0.04296545651
2.13,-0.06789709063,0.04504438252
2.14,-0.06690646859,0.04711352713
2.15,-0.06584334381,0.04916992324
2.16,-0.06470743536,0.05121056838
2.17,-0.0634986041,0.05323243188
2.18,-0.06221685372,0.05523246216
2.19,-0.06086233131,0.05720759385
2.2,-0.05943532756,0.05915475497
2.21,-0.05793627669,0.06107087407
2.22,-0.05636575588,0.06295288717
2.23,-0.05472448449,0.06479774477
2.24,-0.05301332285,0.06660241859
2.25,-0.05123327075,0.06836390831
2.26,-0.04938546565,0.0700792481
2.27,-0.04747118055,0.07174551299
2.28,-0.04549182159,0.07335982513
2.29,-0.04344892537,0.07491935977
2.3,-0.04134415601,0.07642135118
2.31,-0.03917930199,0.07786309822
2.32,-0.03695627271,0.07924196983
2.33,-0.03467709489,0.08055541023
2.34,-0.03234390869,0.08180094391
2.35,-0.02995896376,0.0829761804
2.36,-0.02752461501,0.08407881877
2.37,-0.02504331827,0.08510665197
2.38,-0.02251762581,0.08605757082
2.39,-0.01995018173,0.08692956786
2.4,-0.01734371722,0.08772074089
2.41,-0.01470104572,0.08842929629
2.42,-0.01202505803,0.08905355207
2.43,-0.00931871732,0.08959194075
2.44,-0.006585054036,0.09004301189
2.45,-0.003827160842,0.09040543448
2.46,-0.001048187459,0.09067799905
2.47,0.001748664499,0.09085961954
2.48,0.004560146717,0.09094933497
2.49,0.007382969363,0.09094631088
2.5,0.01021380629,0.09084984055
2.51,0.01304930022,0.09065934601
2.52,0.0158860679,0.09037437883
2.53,0.01872070526,0.08999462072
2.54,0.02154979249,0.08951988398
2.55,0.02436989917,0.08895011166
2.56,0.02717758924,0.08828537764
2.57,0.02996942605,0.08752588648
2.58,0.03274197722,0.08667197309
2.59,0.03549181959,0.08572410229
2.6,0.03821554399,0.08468286816
2.61,0.04090976003,0.08354899323
2.62,0.04357110077,0.08232332759
2.63,0.04619622741,0.08100684777
2.64,0.04878183379,0.07960065557
2.65,0.05132465092,0.07810597663
2.66,0.05382145143,0.07652415905
2.67,0.05626905392,0.07485667169
2.68,0.05866432724,0.07310510249
2.69,0.06100419473,0.0712711566
2.7,0.06328563841,0.06935665441
2.71,0.06550570298,0.06736352948
2.72,0.06766149996,0.06529382632
2.73,0.06975021152,0.0631496981
2.74,0.07176909444,0.0609334042
2.75,0.0737154839,0.0586473077
2.76,0.0755867972,0.05629387274
2.77,0.07738053744,0.05387566174
2.78,0.07909429714,0.05139533257
2.79,0.08072576171,0.04885563555
2.8,0.08227271297,0.04625941039
2.81,0.08373303246,0.04360958296
2.82,0.08510470478,0.04090916203
2.83,0.08638582078,0.0381612358
2.84,0.08757458069,0.03536896837
2.85,0.08866929721,0.03253559611
2.86,0.08966839839,0.02966442388
2.87,0.09057043057,0.02675882109
2.88,0.09137406106,0.02382221777
2.89,0.09207808088,0.02085810037
2.9,0.09268140725,0.01787000753
2.91,0.09318308604,0.01486152574
2.92,0.0935822941,0.01183628476
2.93,0.09387834143,0.008797953096
2.94,0.0940706732,0.005750233191
2.95,0.09415887172,0.0026968566
2.96,0.09414265814,-0.0003584209957
2.97,0.0940218941,-0.003411824884
2.98,0.09379658311,-0.006459566527
2.99,0.09346687185,-0.009497848876
3,0.09303305124,-0.0125228718
3.01,0.09249555732,-0.01553083762
3.02,0.09185497193,-0.01851795669
3.03,0.09111202319,-0.02148045319
3.04,0.09026758579,-0.02441457085
3.05,0.08932268099,-0.02731657884
3.06,0.08827847641,-0.03018277778
3.07,0.08713628565,-0.03300950563
3.08,0.08589756752,-0.03579314388
3.09,0.08456392515,-0.03853012353
3.1,0.08313710475,-0.04121693129
3.11,0.0816189941,-0.04385011571
3.12,0.08001162085,-0.0464262933
3.13,0.0783171504,-0.04894215473
3.14,0.07653788361,-0.0513944709
3.15,0.07467625414,-0.05378009905
3.16,0.07273482556,-0.05609598882
3.17,0.07071628807,-0.05833918817
3.18,0.06862345503,-0.06050684932
3.19,0.06645925908,-0.06259623449
3.2,0.06422674804,-0.06460472164
3.21,0.06192908049,-0.06652980995
3.22,0.05956952098,-0.06836912526
3.23,0.05715143505,-0.07012042526
3.24,0.0546782839,-0.07178160459
3.25,0.05215361878,-0.07335069961
3.26,0.04958107508,-0.07482589307
3.27,0.04696436621,-0.07620551846
3.28,0.04430727713,-0.07748806415
3.29,0.04161365772,-0.07867217726
3.3,0.0388874158,-0.07975666717
3.31,0.03613251004,-0.08074050885
3.32,0.03335294252,-0.0816228457
3.33,0.03055275122,-0.08240299224
3.34,0.02773600223,-0.08308043629
3.35,0.02490678181,-0.08365484084
3.36,0.02206918834,-0.08412604558
3.37,0.01922732407,-0.08449406799
3.38,0.01638528681,-0.08475910402
3.39,0.01354716151,-0.08492152836
3.4,0.01071701176,-0.08498189434
3.41,0.007898871258,-0.08494093331
3.42,0.005096735225,-0.08479955364
3.43,0.002314551866,-0.08455883928
3.44,-0.0004437861934,-0.0842200478
3.45,-0.003174450391,-0.08378460808
3.46,-0.005873684652,-0.08325411745
3.47,-0.008537813714,-0.08263033848
3.48,-0.01116325131,-0.08191519518
3.49,-0.01374650823,-0.0811107689
3.5,-0.01628420017,-0.0802192937
3.51,-0.01877305539,-0.07924315127
3.52,-0.02120992216,-0.07818486549
3.53,-0.0235917759,-0.07704709654
3.54,-0.02591572612,-0.07583263456
3.55,-0.02817902297,-0.07454439298
3.56,-0.03037906348,-0.07318540143
3.57,-0.0325133975,-0.0717587983
3.58,-0.03457973316,-0.07026782298
3.59,-0.03657594207,-0.0687158077
3.6,-0.03850006391,-0.06710616913
3.61,-0.04035031079,-0.0654423997
3.62,-0.04212507099,-0.06372805859
3.63,-0.04382291225,-0.06196676259
3.64,-0.04544258468,-0.06016217663
3.65,-0.04698302298,-0.05831800423
3.66,-0.04844334829,-0.05643797775
3.67,-0.04982286943,-0.0545258485
3.68,-0.0511210836,-0.0525853768
3.69,-0.05233767658,-0.05062032194
3.7,-0.05347252227,-0.04863443215
3.71,-0.05452568181,-0.04663143449
3.72,-0.05549740198,-0.04461502486
3.73,-0.05638811316,-0.04258885806
3.74,-0.05719842664,-0.04055653789
3.75,-0.05792913144,-0.03852160742
3.76,-0.05858119049,-0.0364875395
3.77,-0.05915573633,-0.0344577273
3.78,-0.05965406628,-0.03243547526
3.79,-0.06007763699,-0.03042399018
3.8,-0.06042805857,-0.0284263727
3.81,-0.06070708819,-0.02644560899
3.82,-0.0609166232,-0.02448456296
3.83,-0.06105869376,-0.02254596866
3.84,-0.06113545507,-0.02063242333
3.85,-0.06114917918,-0.01874638065
3.86,-0.06110224636,-0.01689014467
3.87,-0.06099713619,-0.01506586411
3.88,-0.06083641821,-0.01327552719
3.89,-0.06062274235,-0.01152095706
3.9,-0.06035882902,-0.009803807774
3.91,-0.060047459,-0.008125560756
3.92,-0.05969146313,-0.006487521985
3.93,-0.05929371173,-0.00489081971
3.94,-0.05885710401,-0.003336402812
3.95,-0.05838455728,-0.001825039792
3.96,-0.05787899615,-0.0003573183975
3.97,-0.05734334169,0.001066354101
3.98,-0.05678050056,0.002445749993
3.99,-0.05619335427,0.003780819559
4,-0.05558474844,0.005071688852
4.01,-0.0549574823,0.006318656839
4.02,-0.0543142982,0.007522191902
4.03,-0.05365787152,0.008682927715
4.04,-0.05299080065,0.009801658499
4.05,-0.05231559735,0.01087933367
4.06,-0.05163467744,0.01191705191
4.07,-0.05095035176,0.01291605466
4.08,-0.05026481763,0.01387771904
4.09,-0.04958015063,0.0148035503
4.1,-0.04889829694,0.01569517371
4.11,-0.04822106612,0.01655432599
4.12,-0.04755012439,0.01738284634
4.13,-0.04688698847,0.01818266695
4.14,-0.04623302008,0.01895580323
4.15,-0.04558942089,0.01970434364
4.16,-0.04495722823,0.02043043921
4.17,-0.04433731136,0.02113629281
4.18,-0.04373036842,0.02182414812
4.19,-0.04313692408,0.02249627847
4.2,-0.04255732788,0.0231549755
4.21,-0.04199175323,0.02380253767
4.22,-0.04144019716,0.02444125878
4.23,-0.04090248077,0.02507341636
4.24,-0.04037825042,0.02570126012
4.25,-0.03986697959,0.02632700053
4.26,-0.03936797155,0.02695279735
4.27,-0.03888036261,0.02758074845
4.28,-0.03840312623,0.02821287875
4.29,-0.03793507766,0.02885112939
4.3,-0.03747487944,0.02949734723
4.31,-0.03702104739,0.0301532746
4.32,-0.0365719574,0.03082053948
4.33,-0.03612585273,0.03150064603
4.34,-0.03568085199,0.03219496562
4.35,-0.03523495769,0.03290472823
4.36,-0.03478606527,0.03363101453
4.37,-0.03433197275,0.03437474835
4.38,-0.03387039079,0.03513668985
4.39,-0.03339895324,0.0359174292
4.4,-0.03291522812,0.03671738106
4.41,-0.03241672888,0.03753677953
4.42,-0.03190092615,0.03837567397
4.43,-0.03136525966,0.03923392544
4.44,-0.03080715044,0.04011120393
4.45,-0.03022401327,0.04100698626
4.46,-0.02961326923,0.04192055489
4.47,-0.02897235841,0.04285099735
4.48,-0.02829875266,0.04379720659
4.49,-0.02758996836,0.04475788203
4.5,-0.02684357916,0.04573153148
4.51,-0.02605722867,0.04671647379
4.52,-0.02522864295,0.04771084236
4.53,-0.02435564292,0.04871258937
4.54,-0.02343615644,0.04971949083
4.55,-0.0224682302,0.05072915242
4.56,-0.02145004124,0.05173901599
4.57,-0.02037990814,0.0527463669
4.58,-0.01925630173,0.05374834199
4.59,-0.01807785542,0.0547419383
4.6,-0.01684337501,0.05572402239
4.61,-0.01555184787,0.05669134036
4.62,-0.01420245171,0.05764052839
4.63,-0.01279456253,0.05856812394
4.64,-0.01132776208,0.0594705774
4.65,-0.009801844559,0.06034426427
4.66,-0.008216822567,0.0611854978
4.67,-0.006572932368,0.06199054199
4.68,-0.004870638337,0.062755625
4.69,-0.003110636624,0.06347695289
4.7,-0.001293857989,0.06415072354
4.71,0.0005785301907,0.0647731409
4.72,0.00250512278,0.06534042932
4.73,0.0044842766,0.06584884807
4.74,0.006514111016,0.06629470586
4.75,0.008592509416,0.06667437542
4.76,0.01071712156,0.06698430804
4.77,0.0128853668,0.06722104796
4.78,0.01509443823,0.06738124669
4.79,0.01734130764,0.06746167707
4.8,0.01962273134,0.06745924713
4.81,0.0219352569,0.06737101359
4.82,0.02427523062,0.06719419502
4.83,0.02663880589,0.06692618464
4.84,0.02902195227,0.06656456262
4.85,0.03142046541,0.06610710782
4.86,0.0338299776,0.06555180914
4.87,0.03624596914,0.0648968761
4.88,0.03866378022,0.06414074887
4.89,0.04107862361,0.06328210765
4.9,0.04348559779,0.06231988124
4.91,0.0458797007,0.06125325491
4.92,0.04825584396,0.06008167753
4.93,0.05060886757,0.05880486777
4.94,0.052933555,0.05742281952
4.95,0.05522464865,0.05593580646
4.96,0.0574768656,0.05434438568
4.97,0.05968491363,0.05264940041
4.98,0.0618435074,0.05085198184
4.99,0.06394738485,0.04895354992
5,0.06599132363,0.04695581334
5.01,0.06797015752,0.04486076839
5.02,0.06987879296,0.04267069701
5.03,0.07171222534,0.04038816375
5.04,0.07346555525,0.03801601188
5.05,0.07513400454,0.03555735847
5.06,0.07671293202,0.03301558854
5.07,0.078197849,0.03039434836
5.08,0.07958443433,0.02769753772
5.09,0.08086854909,0.02492930146
5.1,0.08204625085,0.02209401996
5.11,0.08311380729,0.01919629898
5.12,0.08406770934,0.01624095854
5.13,0.08490468371,0.01323302113
5.14,0.08562170467,0.01017769916
5.15,0.08621600518,0.007080381639
5.16,0.0866850873,0.00394662034
5.17,0.08702673172,0.0007821152191
5.18,0.08723900656,-0.00240730065
5.19,0.08732027522,-0.00561567669
5.2,0.08726920343,-0.008836960888
5.21,0.08708476535,-0.01206501628
5.22,0.08676624865,-0.01529363782
5.23,0.08631325877,-0.01851656947
5.24,0.08572572211,-0.02172752169
5.25,0.08500388822,-0.02492018895
5.26,0.08414833103,-0.02808826747
5.27,0.08315994903,-0.03122547304
5.28,0.08203996448,-0.0343255588
5.29,0.08078992152,-0.03738233304
5.3,0.07941168337,-0.04038967679
5.31,0.07790742843,-0.04334156137
5.32,0.07627964545,-0.04623206566
5.33,0.07453112768,-0.04905539304
5.34,0.07266496604,-0.05180588808
5.35,0.07068454141,-0.05447805276
5.36,0.06859351592,-0.0570665623
5.37,0.06639582342,-0.05956628042
5.38,0.06409565898,-0.06197227413
5.39,0.06169746772,-0.06427982782
5.4,0.05920593264,-0.06648445675
5.41,0.05662596193,-0.06858191984
5.42,0.05396267532,-0.07056823171
5.43,0.05122139,-0.07243967392
5.44,0.04840760569,-0.07419280539
5.45,0.04552698934,-0.07582447203
5.46,0.04258535916,-0.07733181536
5.47,0.03958866824,-0.07871228029
5.48,0.03654298779,-0.07996362198
5.49,0.03345448991,-0.08108391165
5.5,0.03032943021,-0.08207154146
5.51,0.02717413001,-0.0829252284
5.52,0.02399495853,-0.08364401709
5.53,0.02079831483,-0.08422728164
5.54,0.01759060972,-0.08467472642
5.55,0.0143782477,-0.08498638586
5.56,0.0111676089,-0.08516262314
5.57,0.007965031176,-0.08520412793
5.58,0.004776792356,-0.08511191306
5.59,0.001609092737,-0.08488731024
5.6,-0.001531962136,-0.08453196473
5.61,-0.004640378342,-0.08404782909
5.62,-0.007710290044,-0.08343715601
5.63,-0.0107359755,-0.0827024901
5.64,-0.01371187256,-0.08184665894
5.65,-0.01663259358,-0.0808727632
5.66,-0.01949293977,-0.0797841659
5.67,-0.02228791484,-0.07858448098
5.68,-0.02501273798,-0.07727756104
5.69,-0.02766285604,-0.07586748445
5.7,-0.03023395502,-0.07435854171
5.71,-0.03272197065,-0.07275522133
5.72,-0.03512309816,-0.07106219506
5.73,-0.03743380119,-0.06928430261
5.74,-0.03965081975,-0.06742653598
5.75,-0.04177117727,-0.06549402338
5.76,-0.04379218668,-0.06349201273
5.77,-0.04571145554,-0.06142585496
5.78,-0.04752689022,-0.05930098709
5.79,-0.04923669896,-0.05712291503
5.8,-0.0508393941,-0.05489719644
5.81,-0.05233379318,-0.05262942336
5.82,-0.05371901911,-0.050325205
5.83,-0.05499449929,-0.0479901505
5.84,-0.05615996377,-0.04562985188
5.85,-0.05721544243,-0.0432498671
5.86,-0.05816126119,-0.04085570345
5.87,-0.05899803727,-0.03845280117
5.88,-0.05972667353,-0.03604651745
5.89,-0.06034835189,-0.03364211082
5.9,-0.0608645259,-0.03124472604
5.91,-0.06127691247,-0.02885937942
5.92,-0.06158748276,-0.02649094477
5.93,-0.0617984523,-0.0241441399
5.94,-0.06191227039,-0.02182351379
5.95,-0.06193160884,-0.01953343445
5.96,-0.06185934995,-0.01727807746
5.97,-0.06169857399,-0.01506141534
5.98,-0.06145254608,-0.01288720762
5.99,-0.06112470258,-0.01075899183
6,-0.06071863695,-0.008680075244
