"Freq [GHz]","re(S(Tx_p1,Tx_p1)) []","im(S(Tx_p1,Tx_p1)) []"
1,-0.05054537856,-0.03665970028
1.01,-0.05196993854,-0.03406415311
1.02,-0.05326375084,-0.03140674852
1.03,-0.05442360165,-0.02869438589
1.04,-0.05544667782,-0.02593414482
1.05,-0.05633057587,-0.02313326021
1.06,-0.05707330962,-0.02029909716
1.07,-0.05767331619,-0.01743912544
1.08,-0.05812946054,-0.0145608939
1.09,-0.0584410385,-0.01167200466
1.1,-0.05860777816,-0.008780087389
1.11,-0.05862983987,-0.005892773561
1.12,-0.05850781468,-0.003017670948
1.13,-0.05824272129,-0.0001623382935
1.14,-0.05783600148,0.002665739654
1.15,-0.05728951423,0.005459176722
1.16,-0.05660552831,0.008210709394
1.17,-0.0557867135,0.01091322033
1.18,-0.05483613057,0.01355976125
1.19,-0.05375721987,0.01614357509
1.2,-0.05255378872,0.01865811738
1.21,-0.05122999762,0.02109707677
1.22,-0.04979034526,0.02345439462
1.23,-0.04823965258,0.02572428365
1.24,-0.04658304568,0.02790124551
1.25,-0.04482593786,0.02998008727
1.26,-0.04297401081,0.03195593679
1.27,-0.04103319488,0.0338242569
1.28,-0.03900964875,0.03558085832
1.29,-0.03690973837,0.03722191136
1.3,-0.0347400153,0.03874395632
1.31,-0.03250719462,0.04014391254
1.32,-0.03021813238,0.04141908613
1.33,-0.0278798027,0.04256717637
1.34,-0.02549927461,0.04358628063
1.35,-0.02308368878,0.04447489806
1.36,-0.02064023406,0.04523193173
1.37,-0.01817612407,0.04585668958
1.38,-0.01569857387,0.04634888377
1.39,-0.01321477673,0.04670862889
1.4,-0.01073188114,0.04693643861
1.41,-0.008256968215,0.04703322122
1.42,-0.005797029344,0.04700027364
1.43,-0.003358944411,0.04683927436
1.44,-0.000949460504,0.04655227502
1.45,0.001424828774,0.0461416908
1.46,0.003757503311,0.04561028972
1.47,0.006042335765,0.04496118074
1.48,0.00827331004,0.04419780086
1.49,0.01044463891,0.04332390118
1.5,0.01255078074,0.04234353202
1.51,0.01458645523,0.04126102712
1.52,0.01654665813,0.04008098705
1.53,0.01842667498,0.03880826181
1.54,0.02022209367,0.03744793271
1.55,0.0219288159,0.0360052937
1.56,0.0235430675,0.03448583207
1.57,0.02506140755,0.03289520863
1.58,0.02648073625,0.03123923756
1.59,0.02779830167,0.02952386583
1.6,0.02901170511,0.02775515242
1.61,0.03011890535,0.02593924726
1.62,0.03111822156,0.02408237016
1.63,0.03200833495,0.02219078957
1.64,0.03278828926,0.02027080148
1.65,0.03345748989,0.01832870835
1.66,0.0340157019,0.01637079825
1.67,0.03446304673,0.01440332423
1.68,0.03479999777,0.01243248405
1.69,0.03502737475,0.0104644002
1.7,0.03514633701,0.008505100503
1.71,0.03515837568,0.006560499151
1.72,0.03506530474,0.004636378323
1.73,0.03486925114,0.002738370483
1.74,0.03457264387,0.0008719413489
1.75,0.03417820216,-0.0009576263822
1.76,0.03368892276,-0.002745248506
1.77,0.0331080664,-0.004486053933
1.78,0.0324391435,-0.006175398421
1.79,0.03168589914,-0.007808877369
1.8,0.0308522974,-0.009382337642
1.81,0.02994250509,-0.0108918884
1.82,0.02896087497,-0.01233391087
1.83,0.02791192848,-0.0137050671
1.84,0.02680033809,-0.01500230762
1.85,0.02563090936,-0.01622287795
1.86,0.02440856265,-0.01736432412
1.87,0.0231383147,-0.01842449695
1.88,0.02182526008,-0.01940155529
1.89,0.02047455253,-0.02029396812
1.9,0.01909138641,-0.02110051547
1.91,0.01768097809,-0.02182028838
1.92,0.0162485476,-0.02245268756
1.93,0.01479930042,-0.02299742115
1.94,0.01333840955,-0.0234545013
1.95,0.01187099795,-0.02382423977
1.96,0.01040212132,-0.02410724247
1.97,0.008936751346,-0.02430440308
1.98,0.007479759466,-0.02441689566
1.99,0.006035901193,-0.02444616637
2,0.004609801037,-0.02439392432
2.01,0.003205938094,-0.02426213161
2.02,0.001828632335,-0.02405299251
2.03,0.0004820316463,-0.02376894202
2.04,-0.0008299003418,-0.02341263363
2.05,-0.002103395612,-0.02298692651
2.06,-0.003334892253,-0.02249487212
2.07,-0.004521044077,-0.02193970023
2.08,-0.005658729318,-0.02132480455
2.09,-0.006745058404,-0.02065372792
2.1,-0.007777380782,-0.01993014713
2.11,-0.008753290766,-0.01915785747
2.12,-0.009670632427,-0.01834075704
2.13,-0.01052750348,-0.0174828309
2.14,-0.01132225822,-0.01658813511
2.15,-0.01205350939,-0.01566078069
2.16,-0.01272012921,-0.01470491762
2.17,-0.01332124927,-0.01372471895
2.18,-0.01385625959,-0.01272436493
2.19,-0.01432480663,-0.01170802744
2.2,-0.01472679047,-0.0106798546
2.21,-0.01506236099,-0.009643955701
2.22,-0.01533191324,-0.008604386468
2.23,-0.01553608189,-0.007565134749
2.24,-0.01567573489,-0.006530106641
2.25,-0.01575196637,-0.005503113119
2.26,-0.01576608869,-0.004487857212
2.27,-0.01571962388,-0.003487921758
2.28,-0.01561429433,-0.002506757788
2.29,-0.01545201289,-0.001547673577
2.3,-0.01523487235,-0.0006138243784
2.31,-0.01496513439,0.0002917971001
2.32,-0.01464521808,0.001166369476
2.33,-0.01427768786,0.002007250689
2.34,-0.01386524118,0.002811985196
2.35,-0.01341069582,0.003578310348
2.36,-0.01291697687,0.004304161938
2.37,-0.0123871035,0.004987678894
2.38,-0.01182417556,0.005627207131
2.39,-0.01123136007,0.006221302534
2.4,-0.01061187759,0.006768733091
2.41,-0.009968988621,0.007268480164
2.42,-0.009305979999,0.007719738907
2.43,-0.00862615142,0.008121917849
2.44,-0.007932802076,0.008474637632
2.45,-0.007229217484,0.008777728948
2.46,-0.006518656562,0.009031229662
2.47,-0.005804338983,0.009235381169
2.48,-0.005089432869,0.00939062399
2.49,-0.004377042855,0.009497592638
2.5,-0.003670198577,0.009557109794
2.51,-0.002971843617,0.009570179802
2.52,-0.002284824948,0.009537981539
2.53,-0.001611882909,0.009461860684
2.54,-0.0009556417491,0.009343321421
2.55,-0.000318600769,0.009184017627
2.56,0.0002968739124,0.008985743573
2.57,0.0008885569412,0.008750424193
2.58,0.001454370638,0.008480104956
2.59,0.001992391214,0.008176941383
2.6,0.002500854278,0.007843188274
2.61,0.002978159621,0.007481188665
2.62,0.003422875264,0.007093362585
2.63,0.00383374077,0.006682195645
2.64,0.004209669802,0.006250227513
2.65,0.00454975194,0.005800040331
2.66,0.004853253746,0.005334247098
2.67,0.005119619092,0.004855480094
2.68,0.005348468749,0.00436637937
2.69,0.005539599255,0.003869581366
2.7,0.005692981065,0.00336770768
2.71,0.005808756009,0.002863354061
2.72,0.005887234074,0.002359079641
2.73,0.005928889522,0.001857396467
2.74,0.00593435638,0.001360759351
2.75,0.005904423315,0.0008715561077
2.76,0.005840027937,0.0003920981756
2.77,0.00574225054,-7.538830875E-05
2.78,0.00561230733,-0.0005287709741
2.79,0.005451543168,-0.0009660191774
2.8,0.005261423855,-0.00138521144
2.81,0.005043528011,-0.001784542333
2.82,0.004799538569,-0.002162328789
2.83,0.004531233941,-0.002517015825
2.84,0.004240478875,-0.002847181643
2.85,0.003929215066,-0.003151542125
2.86,0.003599451542,-0.003428954672
2.87,0.003253254889,-0.00367842141
2.88,0.002892739332,-0.003899091736
2.89,0.002520056732,-0.004090264218
2.9,0.002137386546,-0.004251387825
2.91,0.001746925766,-0.004382062511
2.92,0.001350878907,-0.004482039144
2.93,0.0009514480757,-0.004551218794
2.94,0.0005508231473,-0.004589651384
2.95,0.0001511721126,-0.004597533715
2.96,-0.0002453683831,-0.004575206892
2.97,-0.0006367022647,-0.004523153148
2.98,-0.001020782981,-0.004441992103
2.99,-0.001395622151,-0.00433247647
3,-0.001759297874,-0.00419548723
3.01,-0.002109962668,-0.00403202831
3.02,-0.002445851003,-0.003843220777
3.03,-0.002765286416,-0.003630296596
3.04,-0.003066688164,-0.003394591961
3.05,-0.003348577405,-0.003137540249
3.06,-0.003609582876,-0.002860664618
3.07,-0.003848446055,-0.002565570289
3.08,-0.004064025789,-0.002253936548
3.09,-0.004255302371,-0.001927508496
3.1,-0.004421381058,-0.001588088597
3.11,-0.004561495009,-0.001237528052
3.12,-0.00467500766,-0.0008777180327
3.13,-0.004761414498,-0.0005105808315
3.14,-0.004820344257,-0.0001380609416
3.15,-0.004851559533,0.0002378838765
3.16,-0.004854956806,0.0006152915123
3.17,-0.004830565887,0.0009922043676
3.18,-0.004778548792,0.001366678127
3.19,-0.004699198059,0.001736790399
3.2,-0.004592934506,0.002100649197
3.21,-0.00446030446,0.002456401219
3.22,-0.004301976461,0.002802239899
3.23,-0.004118737463,0.003136413192
3.24,-0.003911488556,0.003457231072
3.25,-0.003681240224,0.003763072699
3.26,-0.003429107169,0.004052393238
3.27,-0.003156302715,0.004323730309
3.28,-0.002864132839,0.004575710024
3.29,-0.002553989834,0.004807052608
3.3,-0.002227345646,0.005016577576
3.31,-0.001885744919,0.005203208449
3.32,-0.001530797768,0.005365976986
3.33,-0.00116417232,0.005504026926
3.34,-0.0007875870519,0.005616617232
3.35,-0.0004028029682,0.005703124806
3.36,-1.161563613E-05,0.005763046697
3.37,0.0003841528712,0.005796001765
3.38,0.0007826620985,0.005801731827
3.39,0.001182061362,0.005780102264
3.4,0.001580497896,0.005731102094
3.41,0.001976124965,0.005654843523
3.42,0.002367109901,0.005551560967
3.43,0.002751642032,0.005421609567
3.44,0.003127940478,0.005265463188
3.45,0.003494261774,0.005083711932
3.46,0.00384890729,0.004877059168
3.47,0.004190230431,0.004646318098
3.48,0.004516643561,0.004392407877
3.49,0.004826624656,0.004116349298
3.5,0.00511872364,0.003819260081
3.51,0.005391568379,0.003502349765
3.52,0.005643870324,0.00316691425
3.53,0.005874429768,0.002814329989
3.54,0.006082140704,0.002446047884
3.55,0.006265995265,0.002063586886
3.56,0.006425087731,0.001668527351
3.57,0.006558618087,0.001262504163
3.58,0.00666589512,0.000847199666
3.59,0.006746339049,0.0004243364274
3.6,0.006799483674,-4.330129274E-06
3.61,0.006824978042,-0.0004370191967
3.62,0.006822587624,-0.0008719321269
3.63,0.006792195004,-0.001307260013
3.64,0.006733800075,-0.001741191281
3.65,0.006647519747,-0.002171919255
3.66,0.006533587174,-0.002597649671
3.67,0.006392350499,-0.003016608105
3.68,0.006224271133,-0.003427047283
3.69,0.006029921567,-0.003827254249
3.7,0.005809982745,-0.004215557362
3.71,0.005565240992,-0.004590333083
3.72,0.005296584527,-0.004950012545
3.73,0.005004999575,-0.005293087861
3.74,0.004691566083,-0.00561811816
3.75,0.004357453087,-0.005923735314
3.76,0.004003913717,-0.006208649355
3.77,0.003632279896,-0.006471653532
3.78,0.003243956726,-0.00671162902
3.79,0.002840416612,-0.006927549246
3.8,0.002423193129,-0.007118483811
3.81,0.001993874676,-0.007283602023
3.82,0.001554097923,-0.007422175986
3.83,0.001105541105,-0.007533583278
3.84,0.0006499171662,-0.007617309181
3.85,0.0001889667983,-0.007672948463
3.86,-0.0002755486002,-0.007700206714
3.87,-0.0007418540204,-0.007698901229
3.88,-0.001208167961,-0.007668961434
3.89,-0.001672709539,-0.007610428859
3.9,-0.002133705569,-0.007523456662
3.91,-0.002589397575,-0.007408308706
3.92,-0.003038048716,-0.007265358193
3.93,-0.003477950585,-0.007095085875
3.94,-0.003907429875,-0.006898077831
3.95,-0.00432485486,-0.006675022842
3.96,-0.004728641689,-0.006426709367
3.97,-0.005117260454,-0.006154022132
3.98,-0.005489241018,-0.005857938357
3.99,-0.005843178572,-0.005539523627
4,-0.006177738912,-0.005199927441
4.01,-0.006491663402,-0.004840378438
4.02,-0.006783773621,-0.004462179346
4.03,-0.00705297566,-0.004066701649
4.04,-0.007298264073,-0.003655380022
4.05,-0.007518725449,-0.003229706534
4.06,-0.007713541607,-0.00279122466
4.07,-0.007881992399,-0.002341523121
4.08,-0.008023458112,-0.001882229576
4.09,-0.008137421456,-0.001415004194
4.1,-0.008223469148,-0.0009415331362
4.11,-0.008281293074,-0.0004635219672
4.12,-0.008310691028,1.731097144E-05
4.13,-0.00831156704,0.000499241202
4.14,-0.00828393128,0.000980544738
4.15,-0.008227899548,0.001459504672
4.16,-0.008143692354,0.001934417699
4.17,-0.008031633597,0.002403600547
4.18,-0.007892148843,0.002865396293
4.19,-0.007725763223,0.00331818054
4.2,-0.007533098947,0.003760367427
4.21,-0.007314872463,0.004190415457
4.22,-0.007071891264,0.00460683311
4.23,-0.006805050359,0.005008184235
4.24,-0.006515328425,0.005393093186
4.25,-0.006203783668,0.005760249695
4.26,-0.005871549387,0.006108413457
4.27,-0.00551982929,0.006436418415
4.28,-0.005149892557,0.006743176729
4.29,-0.004763068689,0.007027682419
4.3,-0.004360742158,0.007289014658
4.31,-0.003944346876,0.007526340723
4.32,-0.003515360516,0.007738918578
4.33,-0.003075298702,0.007926099092
4.34,-0.002625709093,0.008087327881
4.35,-0.002168165387,0.008222146774
4.36,-0.001704261267,0.008330194891
4.37,-0.001235604312,0.008411209344
4.38,-0.0007638099082,0.008465025553
4.39,-0.0002904951637,0.008491577181
4.4,0.0001827271266,0.00849089569
4.41,0.0006542544591,0.008463109524
4.42,0.001122500511,0.008408442927
4.43,0.001585900921,0.008327214401
4.44,0.002042918943,0.008219834813
4.45,0.002492050939,0.008086805159
4.46,0.002931831712,0.00792871401
4.47,0.003360839637,0.007746234628
4.48,0.003777701588,0.007540121796
4.49,0.004181097629,0.007311208345
4.5,0.004569765474,0.007060401429
4.51,0.004942504669,0.006788678531
4.52,0.005298180519,0.006497083244
4.53,0.00563572771,0.006186720829
4.54,0.005954153643,0.005858753583
4.55,0.006252541457,0.005514396021
4.56,0.006530052728,0.005154909912
4.57,0.006785929847,0.004781599168
4.58,0.007019498065,0.004395804633
4.59,0.007230167194,0.003998898763
4.6,0.007417432975,0.003592280253
4.61,0.007580878097,0.003177368602
4.62,0.007720172873,0.002755598657
4.63,0.007835075572,0.002328415155
4.64,0.007925432411,0.001897267272
4.65,0.007991177206,0.001463603224
4.66,0.008032330693,0.001028864917
4.67,0.008048999516,0.0005944826776
4.68,0.008041374898,0.0001618700896
4.69,0.008009731003,-0.0002675810557
4.7,0.00795442299,-0.0006925056684
4.71,0.007875884776,-0.001111570114
4.72,0.007774626526,-0.001523476791
4.73,0.00765123187,-0.001926968523
4.74,0.007506354866,-0.002320832744
4.75,0.007340716732,-0.002703905458
4.76,0.007155102351,-0.003075074975
4.77,0.006950356566,-0.003433285394
4.78,0.006727380294,-0.003777539831
4.79,0.006487126463,-0.004106903384
4.8,0.006230595793,-0.004420505812
4.81,0.005958832451,-0.004717543944
4.82,0.00567291958,-0.004997283784
4.83,0.005373974735,-0.005259062334
4.84,0.005063145245,-0.005502289105
4.85,0.004741603508,-0.005726447336
4.86,0.004410542258,-0.005931094902
4.87,0.004071169803,-0.006115864926
4.88,0.003724705271,-0.006280466084
4.89,0.00337237387,-0.006424682607
4.9,0.003015402187,-0.006548373992
4.91,0.002655013551,-0.006651474417
4.92,0.002292423458,-0.006733991873
4.93,0.001928835097,-0.006796007014
4.94,0.001565434989,-0.006837671735
4.95,0.001203388739,-0.00685920749
4.96,0.0008438369411,-0.006860903358
4.97,0.0004878912361,-0.006843113865
4.98,0.0001366305386,-0.006806256578
4.99,-0.0002089025511,-0.006750809482
5,-0.0005477051382,-0.006677308157
5.01,-0.0008788172182,-0.006586342756
5.02,-0.001201324643,-0.006478554821
5.03,-0.001514361859,-0.006354633928
5.04,-0.001817114412,-0.006215314196
5.05,-0.002108821204,-0.00606137067
5.06,-0.002388776507,-0.005893615581
5.07,-0.002656331716,-0.005712894528
5.08,-0.002910896848,-0.005520082573
5.09,-0.003151941781,-0.005316080278
5.1,-0.003378997225,-0.005101809698
5.11,-0.003591655431,-0.004878210356
5.12,-0.003789570642,-0.004646235201
5.13,-0.003972459276,-0.004406846577
5.14,-0.004140099853,-0.004161012219
5.15,-0.004292332668,-0.003909701292
5.16,-0.004429059214,-0.003653880484
5.17,-0.004550241357,-0.003394510172
5.18,-0.004655900278,-0.003132540684
5.19,-0.004746115181,-0.002868908657
5.2,-0.004821021782,-0.002604533512
5.21,-0.004880810588,-0.002340314063
5.22,-0.004925724966,-0.002077125269
5.23,-0.004956059032,-0.001815815141
5.24,-0.004972155352,-0.001557201809
5.25,-0.004974402481,-0.001302070774
5.26,-0.004963232344,-0.001051172342
5.27,-0.004939117482,-0.00080521925
5.28,-0.004902568162,-0.0005648844971
5.29,-0.004854129382,-0.0003307993813
5.3,-0.004794377774,-0.0001035517519
5.31,-0.004723918425,0.0001163155208
5.32,-0.004643381625,0.0003283058528
5.33,-0.004553419567,0.0005319700298
5.34,-0.004454703006,0.0007269070636
5.35,-0.004347917891,0.0009127648218
5.36,-0.004233761997,0.001089240431
5.37,-0.004112941553,0.001256080452
5.38,-0.003986167899,0.001413080841
5.39,-0.003854154179,0.001560086675
5.4,-0.003717612074,0.00169699168
5.41,-0.003577248612,0.001823737531
5.42,-0.003433763044,0.001940312965
5.43,-0.003287843817,0.002046752679
5.44,-0.003140165645,0.002143136051
5.45,-0.002991386692,0.002229585671
5.46,-0.002842145888,0.002306265703
5.47,-0.002693060369,0.002373380079
5.48,-0.002544723073,0.002431170548
5.49,-0.002397700479,0.002479914573
5.5,-0.00225253052,0.002519923104
5.51,-0.002109720652,0.002551538229
5.52,-0.001969746113,0.002575130718
5.53,-0.001833048352,0.002591097475
5.54,-0.001700033654,0.002599858903
5.55,-0.001571071944,0.002601856209
5.56,-0.001446495799,0.002597548643
5.57,-0.001326599644,0.002587410707
5.58,-0.001211639151,0.002571929323
5.59,-0.00110183083,0.002551600998
5.6,-0.000997351827,0.002526928977
5.61,-0.0008983399053,0.002498420413
5.62,-0.0008048936284,0.002466583562
5.63,-0.0007170727302,0.002431925008
5.64,-0.0006348986711,0.002394946949
5.65,-0.0005583553768,0.00235614453
5.66,-0.0004873901524,0.002316003268
5.67,-0.0004219147667,0.002274996542
5.68,-0.0003618066988,0.002233583193
5.69,-0.0003069105409,0.002192205223
5.7,-0.0002570395477,0.002151285613
5.71,-0.0002119773238,0.00211122626
5.72,-0.0001714796401,0.002072406055
5.73,-0.0001352763701,0.002035179096
5.74,-0.0001030735331,0.001999873048
5.75,-7.455543709E-05,0.001966787664
5.76,-4.938690771E-05,0.001936193458
5.77,-2.721559261E-05,0.001908330547
5.78,-7.674330095E-06,0.001883407662
5.79,9.616430398E-06,0.001861601326
5.8,2.504616764E-05,0.001843055213
5.81,3.901179995E-05,0.001827879677
5.82,5.191518048E-05,0.001816151463
5.83,6.416058871E-05,0.001807913586
5.84,7.61522299E-05,0.001803175399
5.85,8.829175454E-05,0.001801912821
5.86,0.0001009758094,0.001804068747
5.87,0.0001145936318,0.001809553622
5.88,0.0001295246978,0.001818246179
5.89,0.0001461364358,0.001829994344
5.9,0.000164782016,0.001844616284
5.91,0.0001857982246,0.001861901615
5.92,0.0002095034344,0.001881612745
5.93,0.0002361956792,0.001903486357
5.94,0.0002661508412,0.001927235015
5.95,0.0002996209597,0.001952548889
5.96,0.0003368326683,0.001979097594
5.97,0.0003779857666,0.002006532128
5.98,0.0004232519347,0.002034486896
5.99,0.0004727735933,0.002062581824
6,0.000526662916,0.002090424534
