"Freq [GHz]","re(S(Tx_p1,Tx_p1)) []","im(S(Tx_p1,Tx_p1)) []"
1,-0.01644794611,-0.0193158938
1.01,-0.0171946027,-0.01848328886
1.02,-0.01790137938,-0.01761869254
1.03,-0.01856664097,-0.01672409422
1.04,-0.01918886552,-0.01580157492
1.05,-0.01976664915,-0.01485330021
1.06,-0.02029871032,-0.01388151286
1.07,-0.02078389377,-0.01288852536
1.08,-0.02122117396,-0.01187671227
1.09,-0.02160965807,-0.01084850237
1.1,-0.02194858855,-0.009806370814
1.11,-0.0222373452,-0.00875283105
1.12,-0.02247544679,-0.007690426807
1.13,-0.02266255221,-0.00662172396
1.14,-0.02279846118,-0.00554930242
1.15,-0.02288311443,-0.004475748023
1.16,-0.02291659354,-0.003403644452
1.17,-0.02289912021,-0.002335565234
1.18,-0.02283105512,-0.001274065808
1.19,-0.02271289639,-0.0002216757137
1.2,-0.02254527753,0.0008191090928
1.21,-0.02232896505,0.001845833762
1.22,-0.02206485555,0.002856091897
1.23,-0.02175397257,0.003847532698
1.24,-0.02139746286,0.004817867883
1.25,-0.02099659242,0.005764878368
1.26,-0.02055274216,0.006686420683
1.27,-0.02006740312,0.007580433109
1.28,-0.01954217152,0.008444941513
1.29,-0.0189787434,0.009278064875
1.3,-0.01837890898,0.01007802048
1.31,-0.01774454679,0.01084312875
1.32,-0.01707761758,0.01157181778
1.33,-0.01638015789,0.01226262739
1.34,-0.01565427357,0.01291421294
1.35,-0.014902133,0.01352534863
1.36,-0.01412596023,0.01409493046
1.37,-0.01332802793,0.01462197881
1.38,-0.0125106503,0.01510564055
1.39,-0.01167617579,0.01554519077
1.4,-0.0108269799,0.01594003411
1.41,-0.009965457798,0.01628970562
1.42,-0.009094017021,0.01659387127
1.43,-0.008215070144,0.01685232796
1.44,-0.007331027495,0.01706500323
1.45,-0.006444289921,0.01723195443
1.46,-0.005557241638,0.01735336757
1.47,-0.004672243178,0.01742955576
1.48,-0.003791624463,0.01746095726
1.49,-0.002917678025,0.01744813309
1.5,-0.00205265239,0.01739176439
1.51,-0.001198745651,0.01729264927
1.52,-0.0003580992445,0.01715169947
1.53,0.0004672080458,0.01696993654
1.54,0.001275165843,0.0167484878
1.55,0.002063837673,0.01648858197
1.56,0.002831366183,0.01619154447
1.57,0.003575978071,0.01585879254
1.58,0.00429598871,0.01549182999
1.59,0.004989806456,0.01509224184
1.6,0.005655936625,0.01466168862
1.61,0.006292985132,0.01420190061
1.62,0.006899661781,0.01371467176
1.63,0.007474783197,0.01320185358
1.64,0.008017275396,0.01266534884
1.65,0.008526175982,0.01210710514
1.66,0.009000635974,0.01152910846
1.67,0.00943992125,0.01093337653
1.68,0.009843413616,0.01032195231
1.69,0.0102106115,0.00969689727
1.7,0.01054113024,0.009060284819
1.71,0.01083470204,0.008414193657
1.72,0.01109117552,0.00776070121
1.73,0.01131051489,0.007101877116
1.74,0.01149279876,0.006439776795
1.75,0.01163821866,0.005776435117
1.76,0.01174707707,0.005113860205
1.77,0.01181978526,0.004454027369
1.78,0.01185686069,0.003798873205
1.79,0.01185892412,0.003150289878
1.8,0.01182669648,0.002510119591
1.81,0.01176099529,0.001880149282
1.82,0.01166273097,0.001262105537
1.83,0.01153290276,0.0006576497538
1.84,0.01137259446,6.837356467E-05
1.85,0.01118296987,-0.000504205473
1.86,0.01096526808,-0.0010586479
1.87,0.01072079849,-0.001593596086
1.88,0.0104509357,-0.002107777652
1.89,0.01015711424,-0.002600008586
1.9,0.009840823059,-0.003069196028
1.91,0.009503600025,-0.003514340739
1.92,0.009147026208,-0.003934539223
1.93,0.008772720131,-0.004328985521
1.94,0.008382331928,-0.004696972659
1.95,0.007977537469,-0.005037893757
1.96,0.00756003245,-0.005351242786
1.97,0.00713152647,-0.005636614989
1.98,0.006693737131,-0.005893706955
1.99,0.006248384162,-0.006122316354
2,0.005797183594,-0.006322341335
2.01,0.00534184201,-0.006493779592
2.02,0.004884050874,-0.006636727107
2.03,0.004425480981,-0.006751376568
2.04,0.003967777018,-0.006838015481
2.05,0.003512552279,-0.00689702398
2.06,0.003061383529,-0.006928872341
2.07,0.00261580605,-0.006934118214
2.08,0.002177308873,-0.006913403591
2.09,0.001747330222,-0.00686745151
2.1,0.001327253164,-0.006797062519
2.11,0.0009184015052,-0.006703110907
2.12,0.0005220359201,-0.00658654072
2.13,0.0001393503418,-0.006448361579
2.14,-0.0002285313853,-0.006289644312
2.15,-0.0005805585774,-0.006111516415
2.16,-0.0009157565002,-0.005915157368
2.17,-0.001233228868,-0.005701793813
2.18,-0.001532160047,-0.005472694616
2.19,-0.001811816957,-0.00522916583
2.2,-0.002071550665,-0.004972545582
2.21,-0.002310797675,-0.004704198891
2.22,-0.002529080905,-0.004425512448
2.23,-0.00272601035,-0.004137889367
2.24,-0.002901283437,-0.003842743932
2.25,-0.003054685069,-0.003541496348
2.26,-0.003186087364,-0.003235567533
2.27,-0.003295449082,-0.002926373944
2.28,-0.003382814761,-0.002615322473
2.29,-0.003448313554,-0.002303805429
2.3,-0.003492157775,-0.001993195609
2.31,-0.00351464117,-0.001684841493
2.32,-0.003516136912,-0.001380062561
2.33,-0.003497095332,-0.00108014476
2.34,-0.003458041394,-0.0007863361332
2.35,-0.003399571935,-0.0004998426217
2.36,-0.003322352664,-0.0002218240515
2.37,-0.003227114945,4.660967505E-05
2.38,-0.003114652378,0.0003044021776
2.39,-0.002985817181,0.0005505539725
2.4,-0.002841516395,0.0007841256146
2.41,-0.002682707927,0.001004240596
2.42,-0.002510396441,0.001210087991
2.43,-0.00232562912,0.001400924853
2.44,-0.002129491302,0.001576078327
2.45,-0.001923102025,0.001734947514
2.46,-0.001707609482,0.001877005042
2.47,-0.001484186402,0.002001798372
2.48,-0.001254025394,0.002108950808
2.49,-0.00101833424,0.002198162239
2.5,-0.0007783311831,0.002269209591
2.51,-0.0005352402067,0.002321946989
2.52,-0.0002902863334,0.002356305651
2.53,-4.469095447E-05,0.002372293489
2.54,0.000200332791,0.002369994446
2.55,0.0004435845731,0.002349567551
2.56,0.000683881347,0.002311245713
2.57,0.0009200617332,0.002255334252
2.58,0.001150990287,0.002182209178
2.59,0.001375561643,0.002092315223
2.6,0.001592704519,0.001986163636
2.61,0.001801385569,0.00186432975
2.62,0.002000613074,0.001727450331
2.63,0.002189440443,0.001576220724
2.64,0.002366969542,0.001411391793
2.65,0.002532353814,0.001233766692
2.66,0.002684801187,0.001044197457
2.67,0.00282357677,0.0008435814389
2.68,0.002948005323,0.0006328576011
2.69,0.003057473484,0.0004130026791
2.7,0.003151431763,0.0001850272308
2.71,0.00322939629,-5.002841542E-05
2.72,0.003290950304,-0.0002910982972
2.73,0.003335745395,-0.0005370950244
2.74,0.003363502484,-0.0007869140392
2.75,0.003374012545,-0.001039437915
2.76,0.003367137062,-0.001293540679
2.77,0.003342808228,-0.001548092138
2.78,0.003301028883,-0.001801962203
2.79,0.003241872195,-0.002054025184
2.8,0.003165481075,-0.002303164047
2.81,0.003072067354,-0.00254827462
2.82,0.002961910702,-0.002788269725
2.83,0.002835357304,-0.003022083231
2.84,0.0026928183,-0.003248674006
2.85,0.002534767998,-0.003467029762
2.86,0.002361741863,-0.00367617077
2.87,0.002174334284,-0.003875153443
2.88,0.001973196149,-0.004063073765
2.89,0.001759032214,-0.004239070566
2.9,0.001532598293,-0.004402328614
2.91,0.00129469827,-0.004552081538
2.92,0.001046180954,-0.00468761455
2.93,0.000787936779,-0.004808266969
2.94,0.0005208943673,-0.004913434538
2.95,0.0002460169724,-0.005002571523
2.96,-3.570119402E-05,-0.005075192591
2.97,-0.0003232387303,-0.005130874461
2.98,-0.0006155508961,-0.005169257318
2.99,-0.0009115735337,-0.005190045993
3,-0.001210227043,-0.005193010906
3.01,-0.001510420396,-0.00517798876
3.02,-0.00181105518,-0.005144882996
3.03,-0.002111029648,-0.005093664003
3.04,-0.002409242764,-0.005024369086
3.05,-0.002704598239,-0.004937102186
3.06,-0.00299600852,-0.004832033368
3.07,-0.003282398747,-0.004709398061
3.08,-0.003562710636,-0.004569496078
3.09,-0.003835906298,-0.004412690393
3.1,-0.004100971963,-0.004239405704
3.11,-0.004356921605,-0.004050126775
3.12,-0.004602800457,-0.003845396568
3.13,-0.004837688393,-0.00362581417
3.14,-0.005060703182,-0.003392032532
3.15,-0.005271003584,-0.003144756015
3.16,-0.005467792297,-0.002884737761
3.17,-0.005650318726,-0.002612776907
3.18,-0.005817881583,-0.002329715631
3.19,-0.005969831294,-0.002036436064
3.2,-0.006105572215,-0.001733857067
3.21,-0.006224564648,-0.001422930885
3.22,-0.006326326643,-0.001104639701
3.23,-0.006410435597,-0.0007799920855
3.24,-0.006476529628,-0.000450019375
3.25,-0.006524308724,-0.0001157719744
3.26,-0.006553535681,0.0002216843909
3.27,-0.006564036797,0.0005612724657
3.28,-0.006555702344,0.0009019072819
3.29,-0.006528486818,0.001242499989
3.3,-0.006482408944,0.001581961685
3.31,-0.006417551468,0.001919207231
3.32,-0.006334060709,0.002253159041
3.33,-0.006232145899,0.002582750828
3.34,-0.006112078289,0.0029069313
3.35,-0.005974190054,0.00322466778
3.36,-0.005818872971,0.003534949758
3.37,-0.005646576901,0.00383679234
3.38,-0.005457808067,0.004129239598
3.39,-0.005253127141,0.004411367805
3.4,-0.005033147144,0.00468228854
3.41,-0.004798531173,0.004941151658
3.42,-0.004549989955,0.005187148113
3.43,-0.004288279248,0.005419512622
3.44,-0.00401419709,0.005637526164
3.45,-0.003728580911,0.005840518309
3.46,-0.003432304523,0.006027869361
3.47,-0.003126274985,0.006199012313
3.48,-0.002811429373,0.006353434614
3.49,-0.002488731455,0.006490679731
3.5,-0.002159168286,0.006610348504
3.51,-0.001823746737,0.006712100302
3.52,-0.001483489969,0.00679565396
3.53,-0.001139433869,0.006860788505
3.54,-0.0007926234517,0.00690734367
3.55,-0.0004441092532,0.006935220185
3.56,-9.494371552E-05,0.006944379857
3.57,0.0002538224139,0.006934845438
3.58,0.0006011436609,0.006906700269
3.59,0.0009459833675,0.006860087725
3.6,0.001287317185,0.006795210443
3.61,0.001624136508,0.006712329348
3.62,0.001955451834,0.00661176248
3.63,0.002280296039,0.006493883629
3.64,0.00259772756,0.006359120771
3.65,0.002906833465,0.006207954337
3.66,0.003206732413,0.006040915292
3.67,0.00349657748,0.005858583058
3.68,0.003775558855,0.005661583271
3.69,0.004042906387,0.005450585389
3.7,0.00429789198,0.005226300165
3.71,0.00453983182,0.00498947698
3.72,0.004768088446,0.004740901063
3.73,0.004982072635,0.004481390598
3.74,0.00518124511,0.004211793728
3.75,0.00536511806,0.003932985483
3.76,0.005533256477,0.003645864615
3.77,0.005685279285,0.003351350385
3.78,0.005820860288,0.003050379287
3.79,0.005939728905,0.002743901735
3.8,0.00604167071,0.002432878724
3.81,0.006126527773,0.002118278468
3.82,0.006194198795,0.001801073044
3.83,0.006244639042,0.001482235035
3.84,0.006277860079,0.0011627342
3.85,0.006293929314,0.0008435341699
3.86,0.006292969334,0.0005255891963
3.87,0.006275157065,0.0002098409457
3.88,0.006240722732,-0.0001027846328
3.89,0.006189948644,-0.0004113803655
3.9,0.006123167802,-0.0007150608222
3.91,0.006040762339,-0.001012965187
3.92,0.005943161787,-0.001304260021
3.93,0.0058308412,-0.001588141908
3.94,0.005704319119,-0.001863839969
3.95,0.005564155406,-0.002130618254
3.96,0.005410948934,-0.002387777977
3.97,0.005245335169,-0.002634659609
3.98,0.00506798363,-0.002870644817
3.99,0.004879595251,-0.003095158236
4,0.004680899647,-0.003307669073
4.01,0.004472652303,-0.003507692542
4.02,0.004255631687,-0.003694791122
4.03,0.004030636312,-0.003868575632
4.04,0.003798481735,-0.004028706127
4.05,0.003559997534,-0.004174892606
4.06,0.003316024251,-0.004306895539
4.07,0.003067410318,-0.0044245262
4.08,0.002815008986,-0.004527646823
4.09,0.002559675261,-0.004616170559
4.1,0.002302262854,-0.004690061267
4.11,0.002043621166,-0.004749333102
4.12,0.001784592315,-0.00479404994
4.13,0.001526008212,-0.004824324619
4.14,0.001268687701,-0.00484031801
4.15,0.001013433767,-0.004842237918
4.16,0.0007610308386,-0.004830337825
4.17,0.0005122421645,-0.004804915476
4.18,0.000267807306,-0.00476631131
4.19,2.843973043E-05,-0.004714906755
4.2,-0.0002051754751,-0.004651122385
4.21,-0.0004323837657,-0.004575415943
4.22,-0.0006525631685,-0.004488280258
4.23,-0.0008651261735,-0.004390241037
4.24,-0.001069521479,-0.004281854561
4.25,-0.001265235591,-0.004163705295
4.26,-0.001451794256,-0.004036403401
4.27,-0.001628763755,-0.003900582194
4.28,-0.001795752009,-0.00375689552
4.29,-0.001952409542,-0.003606015095
4.3,-0.002098430261,-0.003448627792
4.31,-0.002233552072,-0.0032854329
4.32,-0.002357557322,-0.003117139364
4.33,-0.002470273076,-0.002944463012
4.34,-0.002571571214,-0.002768123781
4.35,-0.002661368365,-0.002588842956
4.36,-0.002739625671,-0.00240734043
4.37,-0.002806348379,-0.002224331993
4.38,-0.002861585282,-0.00204052666
4.39,-0.002905427982,-0.001856624059
4.4,-0.002938010016,-0.001673311869
4.41,-0.002959505815,-0.001491263333
4.42,-0.002970129527,-0.001311134849
4.43,-0.002970133689,-0.001133563649
4.44,-0.002959807776,-0.0009591655706
4.45,-0.002939476611,-0.0007885329355
4.46,-0.002909498662,-0.0006222325354
4.47,-0.002870264218,-0.0004608037369
4.48,-0.002822193466,-0.0003047567103
4.49,-0.002765734468,-0.0001545707872
4.5,-0.002701361043,-1.069295373E-05
4.51,-0.00262957058,0.0001264635171
4.52,-0.002550881767,0.0002565202886
4.53,-0.002465832271,0.0003791350362
4.54,-0.002374976354,0.000494002373
4.55,-0.002278882452,0.0006008546215
4.56,-0.002178130719,0.0006994624318
4.57,-0.00207331055,0.0007896352419
4.58,-0.001965018085,0.000871221583
4.59,-0.001853853713,0.0009441092271
4.6,-0.001740419583,0.001008225179
4.61,-0.001625317124,0.001063535511
4.62,-0.001509144596,0.001110045052
4.63,-0.001392494674,0.001147796912
4.64,-0.001275952071,0.001176871874
4.65,-0.00116009122,0.001197387631
4.66,-0.001045474012,0.001209497887
4.67,-0.0009326476076,0.001213391321
4.68,-0.0008221423181,0.00120929042
4.69,-0.0007144695823,0.001197450187
4.7,-0.0006101200285,0.001178156728
4.71,-0.0005095616383,0.001151725733
4.72,-0.0004132380161,0.001118500836
4.73,-0.0003215667708,0.001078851894
4.74,-0.0002349380147,0.001033173159
4.75,-0.0001537129854,0.000981881377
4.76,-7.822279468E-05,0.0009254138041
4.77,-8.767308862E-06,0.0008642261587
4.78,5.438583621E-05,0.0007987905139
4.79,0.0001110020822,0.0007295931397
4.8,0.0001608806551,0.0006571323037
4.81,0.0002038551302,0.0005819160394
4.82,0.0002397938536,0.0005044598913
4.83,0.0002686002193,0.0004252846452
4.84,0.0002902128023,0.0003449140535
4.85,0.0003046053484,0.0002638725643
4.86,0.0003117866197,0.0001826830627
4.87,0.0003118001004,0.0001018646345
4.88,0.0003047235616,2.193035882E-05
4.89,0.0002906684909,-5.661485898E-05
4.9,0.0002697793873,-0.0001332764086
4.91,0.0002422329261,-0.0002075720399
4.92,0.0002082369988,-0.0002790338656
4.93,0.0001680296305,-0.000347210293
4.94,0.0001218777815,-0.0004116678778
4.95,7.007603771E-05,-0.0004719930932
4.96,1.294519646E-05,-0.0005277940084
4.97,-4.916924732E-05,-0.0005787018686
4.98,-0.0001158987067,-0.0006243725725
4.99,-0.0001868531941,-0.0006644880418
5,-0.0002616230906,-0.0006987574771
5.01,-0.0003397809865,-0.0007269184962
5.02,-0.0004208835845,-0.0007487381513
5.03,-0.0005044736585,-0.0007640138214
5.04,-0.0005900820598,-0.0007725739774
5.05,-0.0006772297614,-0.0007742788165
5.06,-0.0007654299345,-0.0007690207658
5.07,-0.0008541900456,-0.000756724852
5.08,-0.0009430139688,-0.0007373489381
5.09,-0.001031404103,-0.0007108838256
5.1,-0.001118863488,-0.0006773532225
5.11,-0.001204897905,-0.0006368135796
5.12,-0.001289017961,-0.0005893537936
5.13,-0.001370741148,-0.0005350947817
5.14,-0.00144959386,-0.000474188928
5.15,-0.001525113372,-0.0004068194049
5.16,-0.001596849767,-0.0003331993745
5.17,-0.001664367803,-0.0002535710703
5.18,-0.001727248714,-0.0001682047673
5.19,-0.001785091944,-7.739764161E-05
5.2,-0.001837516798,1.852747259E-05
5.21,-0.001884164006,0.0001192234255
5.22,-0.001924697204,0.0002243201867
5.23,-0.001958804315,0.0003334263669
5.24,-0.001986198823,0.0004461308199
5.25,-0.002006620955,0.000562004319
5.26,-0.002019838744,0.0006806012997
5.27,-0.002025648977,0.0008014616621
5.28,-0.002023878036,0.0009241126263
5.29,-0.002014382611,0.001048070633
5.3,-0.001997050299,0.001172843279
5.31,-0.00197180007,0.001297931288
5.32,-0.00193858262,0.001422830495
5.33,-0.00189738059,0.001547033856
5.34,-0.001848208663,0.001670033448
5.35,-0.001791113538,0.001791322487
5.36,-0.00172617377,0.001910397319
5.37,-0.001653499499,0.002026759406
5.38,-0.001573232048,0.002139917277
5.39,-0.001485543404,0.00224938846
5.4,-0.001390635578,0.002354701362
5.41,-0.001288739861,0.002455397108
5.42,-0.001180115954,0.002551031328
5.43,-0.001065051002,0.002641175882
5.44,-0.0009438585216,0.002725420517
5.45,-0.000816877227,0.002803374455
5.46,-0.000684469767,0.0028746679
5.47,-0.0005470213704,0.002938953462
5.48,-0.0004049384102,0.002995907497
5.49,-0.0002586468901,0.00304523134
5.5,-0.0001085908599,0.003086652457
5.51,4.476923282E-05,0.003119925485
5.52,0.0002009582496,0.003144833169
5.53,0.0003594881191,0.003161187188
5.54,0.0005198596391,0.003168828877
5.55,0.0006815643165,0.003167629828
5.56,0.0008440862364,0.00315749238
5.57,0.001006903955,0.003138349993
5.58,0.001169492408,0.003110167502
5.59,0.001331324826,0.003072941252
5.6,0.001491874654,0.003026699123
5.61,0.001650617462,0.00297150043
5.62,0.001807032842,0.002907435707
5.63,0.001960606287,0.002834626384
5.64,0.002110831043,0.002753224338
5.65,0.002257209921,0.002663411345
5.66,0.002399257077,0.002565398417
5.67,0.002536499737,0.002459425034
5.68,0.002668479873,0.002345758277
5.69,0.002794755818,0.002224691859
5.7,0.002914903815,0.002096545064
5.71,0.003028519499,0.001961661598
5.72,0.003135219296,0.001820408349
5.73,0.003234641749,0.001673174075
5.74,0.003326448756,0.00152036801
5.75,0.003410326714,0.001362418405
5.76,0.00348598758,0.001199771006
5.77,0.003553169824,0.001032887472
5.78,0.003611639293,0.000862243744
5.79,0.003661189962,0.0006883283684
5.8,0.003701644594,0.0005116407821
5.81,0.003732855279,0.0003326895654
5.82,0.003754703877,0.00015199067
5.83,0.003767102346,-2.993437154E-05
5.84,0.003769992965,-0.0002125602481
5.85,0.003763348441,-0.0003953596781
5.86,0.003747171916,-0.0005778052151
5.87,0.003721496858,-0.0007593710464
5.88,0.003686386847,-0.0009395347757
5.89,0.003641935255,-0.001117779186
5.9,0.003588264824,-0.001293593973
5.91,0.003525527139,-0.001466477448
5.92,0.003453902,-0.001635938197
5.93,0.003373596706,-0.001801496701
5.94,0.003284845233,-0.001962686894
5.95,0.003187907334,-0.002119057679
5.96,0.003083067546,-0.002270174367
5.97,0.002970634121,-0.002415620066
5.98,0.002850937873,-0.002554996983
5.99,0.00272433096,-0.002687927663
6,0.002591185593,-0.002814056142
