"Freq [GHz]","re(S(Tx_p1,Tx_p1)) []","im(S(Tx_p1,Tx_p1)) []"
1,0.07192131723,-0.1769174735
1.01,0.06715970766,-0.1775333803
1.02,0.06238126233,-0.1780343371
1.03,0.05759058118,-0.1784179547
1.04,0.05279236322,-0.1786821807
1.05,0.04799138695,-0.178825295
1.06,0.04319249147,-0.1788459052
1.07,0.0384005581,-0.1787429412
1.08,0.0336204927,-0.1785156492
1.09,0.02885720855,-0.1781635853
1.1,0.02411560993,-0.1776866084
1.11,0.01940057623,-0.1770848732
1.12,0.01471694681,-0.1763588216
1.13,0.01006950645,-0.1755091748
1.14,0.005462971469,-0.1745369247
1.15,0.0009019764975,-0.1734433239
1.16,-0.003608938059,-0.1722298768
1.17,-0.008065337899,-0.1708983295
1.18,-0.01246290602,-0.1694506594
1.19,-0.01679745322,-0.1678890646
1.2,-0.02106492793,-0.1662159531
1.21,-0.02526142535,-0.1644339319
1.22,-0.02938319587,-0.1625457953
1.23,-0.03342665284,-0.1605545135
1.24,-0.0373883796,-0.1584632213
1.25,-0.04126513589,-0.1562752058
1.26,-0.0450538635,-0.1539938945
1.27,-0.04875169127,-0.1516228439
1.28,-0.05235593941,-0.1491657268
1.29,-0.05586412319,-0.1466263207
1.3,-0.05927395586,-0.1440084956
1.31,-0.06258335105,-0.1413162022
1.32,-0.06579042443,-0.1385534598
1.33,-0.06889349475,-0.1357243445
1.34,-0.07189108432,-0.132832978
1.35,-0.07478191882,-0.1298835154
1.36,-0.07756492654,-0.1268801344
1.37,-0.08023923705,-0.123827024
1.38,-0.08280417931,-0.1207283737
1.39,-0.08525927922,-0.1175883628
1.4,-0.08760425669,-0.11441115
1.41,-0.08983902218,-0.1112008635
1.42,-0.09196367273,-0.1079615913
1.43,-0.09397848759,-0.1046973717
1.44,-0.0958839234,-0.1014121843
1.45,-0.09768060888,-0.09810994136
1.46,-0.09936933926,-0.09479447971
1.47,-0.1009510702,-0.09146955268
1.48,-0.1024269116,-0.0881388228
1.49,-0.1037981206,-0.08480585479
1.5,-0.1050660951,-0.08147410904
1.51,-0.1062323659,-0.0781469355
1.52,-0.1072985901,-0.07482756807
1.53,-0.1082665426,-0.07151911944
1.54,-0.1091381087,-0.06822457641
1.55,-0.1099152758,-0.06494679571
1.56,-0.1106001256,-0.06168850027
1.57,-0.1111948255,-0.05845227599
1.58,-0.1117016206,-0.05524056902
1.59,-0.1121228249,-0.05205568347
1.6,-0.1124608132,-0.04889977966
1.61,-0.1127180125,-0.04577487279
1.62,-0.1128968937,-0.04268283216
1.63,-0.1129999632,-0.03962538077
1.64,-0.1130297547,-0.03660409547
1.65,-0.1129888207,-0.03362040748
1.66,-0.1128797248,-0.0306756034
1.67,-0.1127050339,-0.02777082667
1.68,-0.1124673097,-0.02490707938
1.69,-0.1121691018,-0.02208522456
1.7,-0.1118129403,-0.01930598887
1.71,-0.1114013282,-0.01656996555
1.72,-0.1109367348,-0.01387761792
1.73,-0.110421589,-0.01122928307
1.74,-0.1098582729,-0.008625175966
1.75,-0.1092491157,-0.00606539385
1.76,-0.108596388,-0.003549920924
1.77,-0.1079022962,-0.001078633325
1.78,-0.1071689774,0.001348695642
1.79,-0.1063984947,0.003732390049
1.8,-0.1055928326,0.006072865655
1.81,-0.104753893,0.008370624033
1.82,-0.1038834917,0.01062624651
1.83,-0.1029833547,0.01284038799
1.84,-0.1020551153,0.01501377055
1.85,-0.1011003118,0.01714717708
1.86,-0.1001203851,0.01924144468
1.87,-0.09911667691,0.02129745808
1.88,-0.09809042849,0.023316143
1.89,-0.09704277944,0.02529845947
1.9,-0.09597476721,0.02724539516
1.91,-0.09488732685,0.02915795872
1.92,-0.0937812911,0.0310371732
1.93,-0.09265739098,0.03288406945
1.94,-0.09151625663,0.0346996797
1.95,-0.09035841862,0.03648503117
1.96,-0.08918430953,0.03824113982
1.97,-0.08799426592,0.03996900426
1.98,-0.08678853066,0.04166959978
1.99,-0.08556725553,0.04334387262
2,-0.08433050419,0.04499273435
2.01,-0.08307825541,0.0466170565
2.02,-0.08181040664,0.04821766546
2.03,-0.08052677778,0.04979533751
2.04,-0.07922711532,0.05135079421
2.05,-0.07791109659,0.05288469801
2.06,-0.07657833438,0.05439764812
2.07,-0.07522838168,0.0558901767
2.08,-0.07386073662,0.05736274534
2.09,-0.07247484765,0.05881574184
2.1,-0.07107011883,0.06024947733
2.11,-0.06964591527,0.06166418368
2.12,-0.06820156868,0.06306001128
2.13,-0.0667363831,0.06443702712
2.14,-0.0652496406,0.06579521322
2.15,-0.06374060713,0.06713446542
2.16,-0.06220853842,0.06845459253
2.17,-0.06065268583,0.06975531574
2.18,-0.0590723023,0.07103626849
2.19,-0.05746664824,0.07229699661
2.2,-0.05583499743,0.07353695884
2.21,-0.05417664278,0.07475552766
2.22,-0.05249090214,0.07595199049
2.23,-0.05077712398,0.07712555121
2.24,-0.04903469291,0.07827533197
2.25,-0.04726303517,0.07940037541
2.26,-0.04546162394,0.08049964706
2.27,-0.04362998447,0.08157203817
2.28,-0.0417676991,0.08261636876
2.29,-0.03987441203,0.08363139098
2.3,-0.03794983396,0.08461579269
2.31,-0.03599374643,0.08556820141
2.32,-0.03400600599,0.08648718839
2.33,-0.03198654816,0.08737127298
2.34,-0.02993539101,0.08821892726
2.35,-0.02785263862,0.08902858075
2.36,-0.02573848417,0.08979862547
2.37,-0.02359321279,0.090527421
2.38,-0.02141720409,0.09121329987
2.39,-0.01921093441,0.09185457295
2.4,-0.01697497873,0.09244953507
2.41,-0.01471001232,0.09299647066
2.42,-0.01241681199,0.09349365957
2.43,-0.01009625712,0.09393938288
2.44,-0.00774933025,0.09433192879
2.45,-0.005377117432,0.09466959859
2.46,-0.002980808198,0.09495071262
2.47,-0.0005616952187,0.09517361617
2.48,0.001878826369,0.09533668547
2.49,0.004339259969,0.09543833358
2.5,0.006818008856,0.09547701623
2.51,0.009313377826,0.09545123762
2.52,0.01182357517,0.09535955607
2.53,0.01434671493,0.09520058967
2.54,0.01688081956,0.09497302169
2.55,0.01942382269,0.09467560593
2.56,0.02197357244,0.0943071719
2.57,0.02452783477,0.09386662982
2.58,0.02708429728,0.09335297544
2.59,0.02964057317,0.09276529467
2.6,0.03219420549,0.09210276797
2.61,0.03474267161,0.09136467458
2.62,0.03728338798,0.09055039644
2.63,0.03981371499,0.08965942189
2.64,0.04233096212,0.08869134915
2.65,0.04483239325,0.08764588945
2.66,0.04731523212,0.08652286992
2.67,0.049776668,0.08532223626
2.68,0.0522138614,0.08404405498
2.69,0.05462395003,0.08268851545
2.7,0.05700405477,0.0812559316
2.71,0.05935128577,0.07974674327
2.72,0.0616627486,0.07816151734
2.73,0.0639355505,0.07650094844
2.74,0.06616680666,0.0747658594
2.75,0.06835364645,0.07295720132
2.76,0.07049321977,0.07107605339
2.77,0.0725827033,0.06912362232
2.78,0.07461930676,0.06710124148
2.79,0.07660027911,0.06501036971
2.8,0.07852291474,0.0628525898
2.81,0.08038455945,0.06062960671
2.82,0.08218261651,0.05834324537
2.83,0.08391455247,0.05599544832
2.84,0.08557790288,0.05358827293
2.85,0.08717027793,0.05112388843
2.86,0.08868936786,0.04860457254
2.87,0.09013294819,0.04603270799
2.88,0.09149888487,0.0434107786
2.89,0.09278513908,0.04074136525
2.9,0.09398977197,0.03802714153
2.91,0.09511094905,0.0352708692
2.92,0.09614694444,0.0324753934
2.93,0.09709614482,0.02964363769
2.94,0.09795705315,0.02677859886
2.95,0.09872829213,0.0238833416
2.96,0.09940860735,0.02096099301
2.97,0.09999687023,0.01801473689
2.98,0.1004920806,0.015047808
2.99,0.100893369,0.01206348614
3,0.1011999987,0.009065090115
3.01,0.1014113676,0.006055971677
3.02,0.1015270093,0.003039509321
3.03,0.1015465946,1.910208097E-05
3.04,0.101469932,-0.003001836739
3.05,0.1012969682,-0.006019885845
3.06,0.1010277885,-0.009031622251
3.07,0.1006626164,-0.01203362756
3.08,0.1002018135,-0.0150224942
3.09,0.09964587837,-0.01799483168
3.1,0.09899544567,-0.02094727273
3.11,0.09825128489,-0.02387647935
3.12,0.09741429859,-0.02677914887
3.13,0.09648552051,-0.02965201982
3.14,0.09546611339,-0.03249187772
3.15,0.09435736644,-0.0352955607
3.16,0.09316069263,-0.03805996505
3.17,0.09187762566,-0.04078205056
3.18,0.09050981674,-0.0434588457
3.19,0.08905903109,-0.0460874526
3.2,0.0875271442,-0.04866505191
3.21,0.08591613794,-0.05118890736
3.22,0.08422809636,-0.05365637018
3.23,0.08246520145,-0.05606488327
3.24,0.08062972853,-0.05841198513
3.25,0.07872404163,-0.06069531358
3.26,0.07675058867,-0.06291260919
3.27,0.07471189642,-0.0650617185
3.28,0.07261056546,-0.06714059698
3.29,0.07044926494,-0.06914731166
3.3,0.06823072724,-0.07108004361
3.31,0.06595774264,-0.07293709001
3.32,0.06363315377,-0.07471686606
3.33,0.06125985013,-0.07641790657
3.34,0.05884076252,-0.07803886724
3.35,0.05637885744,-0.07957852573
3.36,0.05387713148,-0.08103578239
3.37,0.05133860571,-0.08240966075
3.38,0.04876632012,-0.08369930772
3.39,0.04616332802,-0.08490399355
3.4,0.04353269056,-0.08602311144
3.41,0.04087747125,-0.08705617701
3.42,0.0382007306,-0.08800282737
3.43,0.03550552079,-0.08886282007
3.44,0.03279488047,-0.08963603168
3.45,0.03007182966,-0.09032245625
3.46,0.0273393648,-0.09092220342
3.47,0.02460045385,-0.09143549637
3.48,0.02185803163,-0.09186266958
3.49,0.01911499522,-0.09220416626
3.5,0.01637419961,-0.09246053575
3.51,0.01363845345,-0.09263243057
3.52,0.01091051502,-0.09272060342
3.53,0.008193088346,-0.0927259039
3.54,0.005488819582,-0.09264927518
3.55,0.0028002935,-0.09249175043
3.56,0.0001300302596,-0.09225444916
3.57,-0.002519517642,-0.09193857348
3.58,-0.005145968202,-0.09154540414
3.59,-0.007747012515,-0.09107629658
3.6,-0.01032041716,-0.09053267681
3.61,-0.01286402637,-0.08991603731
3.62,-0.01537576393,-0.08922793275
3.63,-0.01785363492,-0.0884699758
3.64,-0.02029572717,-0.08764383275
3.65,-0.02270021247,-0.08675121924
3.66,-0.02506534764,-0.08579389592
3.67,-0.02738947528,-0.08477366408
3.68,-0.02967102435,-0.08369236138
3.69,-0.03190851048,-0.08255185749
3.7,-0.03410053613,-0.08135404989
3.71,-0.03624579046,-0.08010085962
3.72,-0.03834304906,-0.07879422711
3.73,-0.0403911734,-0.07743610815
3.74,-0.04238911014,-0.0760284698
3.75,-0.04433589026,-0.07457328654
3.76,-0.04623062789,-0.07307253641
3.77,-0.04807251912,-0.0715281973
3.78,-0.04986084052,-0.06994224336
3.79,-0.05159494752,-0.06831664153
3.8,-0.05327427271,-0.06665334816
3.81,-0.05489832384,-0.06495430587
3.82,-0.05646668186,-0.06322144043
3.83,-0.05797899867,-0.06145665787
3.84,-0.0594349949,-0.05966184175
3.85,-0.06083445743,-0.05783885054
3.86,-0.06217723694,-0.05598951522
3.87,-0.06346324529,-0.05411563702
3.88,-0.06469245284,-0.0522189853
3.89,-0.06586488574,-0.05030129571
3.9,-0.0669806231,-0.04836426842
3.91,-0.06803979414,-0.04640956658
3.92,-0.06904257532,-0.04443881492
3.93,-0.06998918742,-0.04245359863
3.94,-0.07087989259,-0.04045546226
3.95,-0.07171499144,-0.03844590895
3.96,-0.07249482008,-0.03642639976
3.97,-0.07321974722,-0.03439835318
3.98,-0.07389017124,-0.03236314481
3.99,-0.07450651736,-0.03032210725
4,-0.07506923478,-0.0282765301
4.01,-0.07557879392,-0.02622766017
4.02,-0.07603568369,-0.0241767018
4.03,-0.07644040889,-0.02212481739
4.04,-0.07679348756,-0.02007312802
4.05,-0.07709544854,-0.01802271424
4.06,-0.07734682908,-0.01597461699
4.07,-0.07754817248,-0.01392983866
4.08,-0.07770002597,-0.01188934424
4.09,-0.07780293854,-0.009854062642
4.1,-0.07785745905,-0.007824888041
4.11,-0.07786413432,-0.005802681401
4.12,-0.0778235074,-0.003788272044
4.13,-0.07773611603,-0.001782459315
4.14,-0.07760249111,0.0002139856761
4.15,-0.07742315544,0.002200318256
4.16,-0.07719862245,0.00417581832
4.17,-0.07692939523,0.006139788428
4.18,-0.0766159656,0.008091551849
4.19,-0.07625881334,0.01003045058
4.2,-0.07585840557,0.01195584335
4.21,-0.07541519631,0.0138671036
4.22,-0.07492962615,0.01576361745
4.23,-0.07440212204,0.0176447817
4.24,-0.0738330973,0.01951000183
4.25,-0.07322295169,0.02135869
4.26,-0.07257207164,0.02319026309
4.27,-0.0718808307,0.02500414081
4.28,-0.07114958996,0.02679974384
4.29,-0.07037869876,0.02857649198
4.3,-0.06956849542,0.03033380241
4.31,-0.06871930817,0.032071088
4.32,-0.06783145608,0.03378775572
4.33,-0.06690525025,0.0354832051
4.34,-0.06594099501,0.03715682678
4.35,-0.06493898921,0.03880800117
4.36,-0.06389952768,0.04043609721
4.37,-0.06282290269,0.04204047122
4.38,-0.06170940557,0.04362046589
4.39,-0.06055932835,0.04517540933
4.4,-0.05937296545,0.04670461432
4.41,-0.05815061555,0.04820737758
4.42,-0.05689258331,0.04968297927
4.43,-0.05559918135,0.05113068254
4.44,-0.0542707321,0.05254973325
4.45,-0.05290756975,0.05393935982
4.46,-0.05151004223,0.05529877319
4.47,-0.0500785132,0.05662716696
4.48,-0.04861336396,0.05792371759
4.49,-0.04711499552,0.05918758485
4.5,-0.04558383047,0.06041791229
4.51,-0.04402031498,0.0616138279
4.52,-0.04242492069,0.06277444493
4.53,-0.04079814661,0.06389886276
4.54,-0.03914052092,0.06498616801
4.55,-0.03745260279,0.06603543565
4.56,-0.03573498407,0.06704573037
4.57,-0.03398829097,0.06801610793
4.58,-0.03221318564,0.06894561678
4.59,-0.03041036767,0.06983329964
4.6,-0.02858057549,0.0706781953
4.61,-0.02672458776,0.07147934048
4.62,-0.02484322451,0.07223577177
4.63,-0.02293734831,0.07294652775
4.64,-0.02100786529,0.07361065104
4.65,-0.01905572597,0.0742271906
4.66,-0.01708192612,0.074795204
4.67,-0.01508750735,0.0753137598
4.68,-0.01307355764,0.07578193996
4.69,-0.01104121175,0.07619884233
4.7,-0.008991651419,0.07656358318
4.71,-0.006926105548,0.07687529979
4.72,-0.004845850111,0.07713315301
4.73,-0.002752208004,0.07733632992
4.74,-0.0006465487262,0.07748404643
4.75,0.00146971209,0.07757554998
4.76,0.003595113293,0.07761012215
4.77,0.005728148972,0.07758708132
4.78,0.007867269368,0.07750578526
4.79,0.01001088193,0.07736563378
4.8,0.01215735253,0.07716607127
4.81,0.01430500679,0.07690658922
4.82,0.01645213158,0.0765867287
4.83,0.0185969767,0.07620608282
4.84,0.02073775657,0.07576429905
4.85,0.02287265221,0.07526108149
4.86,0.02499981326,0.07469619315
4.87,0.02711736013,0.07406945801
4.88,0.02922338633,0.07338076306
4.89,0.03131596086,0.07263006027
4.9,0.03339313076,0.07181736836
4.91,0.03545292375,0.07094277454
4.92,0.03749335094,0.07000643609
4.93,0.03951240975,0.06900858184
4.94,0.04150808676,0.0679495135
4.95,0.0434783608,0.06682960684
4.96,0.045421206,0.0656493128
4.97,0.04733459502,0.06440915834
4.98,0.04921650225,0.06310974726
4.99,0.05106490711,0.06175176079
5,0.0528777974,0.06033595806
5.01,0.0546531727,0.05886317638
5.02,0.05638904778,0.0573343314
5.03,0.05808345605,0.05575041706
5.04,0.05973445304,0.05411250543
5.05,0.06134011984,0.05242174632
5.06,0.06289856663,0.05067936677
5.07,0.06440793608,0.04888667035
5.08,0.06586640686,0.04704503632
5.09,0.06727219706,0.04515591855
5.1,0.06862356755,0.0432208444
5.11,0.06991882536,0.04124141327
5.12,0.07115632699,0.03921929515
5.13,0.07233448163,0.03715622889
5.14,0.07345175436,0.03505402038
5.15,0.07450666925,0.03291454052
5.16,0.07549781238,0.03073972309
5.17,0.07642383476,0.02853156244
5.18,0.07728345521,0.02629211104
5.19,0.07807546303,0.0240234769
5.2,0.07879872065,0.02172782083
5.21,0.07945216615,0.01940735362
5.22,0.0800348156,0.01706433303
5.23,0.08054576531,0.01470106073
5.24,0.08098419394,0.01231987906
5.25,0.08134936449,0.009923167761
5.26,0.08164062606,0.007513340533
5.27,0.08185741557,0.005092841556
5.28,0.0819992592,0.002664141903
5.29,0.0820657738,0.0002297358839
5.3,0.08205666801,-0.002207862676
5.31,0.0819717433,-0.004646124224
5.32,0.08181089478,-0.007082507311
5.33,0.08157411188,-0.00951446247
5.34,0.0812614788,-0.01193943613
5.35,0.08087317487,-0.01435487456
5.36,0.08040947461,-0.0167582278
5.37,0.07987074772,-0.01914695365
5.38,0.0792574588,-0.02151852162
5.39,0.07857016697,-0.02387041689
5.4,0.07780952523,-0.02620014423
5.41,0.07697627972,-0.02850523193
5.42,0.07607126874,-0.03078323562
5.43,0.0750954216,-0.03303174218
5.44,0.07404975734,-0.03524837342
5.45,0.07293538323,-0.03743078986
5.46,0.07175349313,-0.03957669434
5.47,0.07050536567,-0.04168383559
5.48,0.06919236229,-0.04375001171
5.49,0.06781592509,-0.04577307354
5.5,0.06637757455,-0.04775092794
5.51,0.06487890713,-0.049681541
5.52,0.06332159267,-0.05156294105
5.53,0.06170737169,-0.05339322162
5.54,0.06003805256,-0.05517054424
5.55,0.05831550857,-0.0568931411
5.56,0.05654167481,-0.05855931762
5.57,0.05471854504,-0.06016745479
5.58,0.05284816839,-0.06171601141
5.59,0.05093264597,-0.06320352621
5.6,0.04897412744,-0.06462861972
5.61,0.04697480747,-0.06598999606
5.62,0.0449369221,-0.06728644449
5.63,0.04286274512,-0.06851684088
5.64,0.04075458433,-0.06968014891
5.65,0.03861477779,-0.07077542119
5.66,0.03644568999,-0.07180180009
5.67,0.03424970806,-0.07275851853
5.68,0.03202923791,-0.07364490049
5.69,0.0297867004,-0.07446036133
5.7,0.02752452747,-0.07520440808
5.71,0.0252451583,-0.07587663932
5.72,0.0229510355,-0.07647674513
5.73,0.0206446013,-0.07700450666
5.74,0.01832829379,-0.07745979565
5.75,0.01600454323,-0.07784257374
5.76,0.01367576831,-0.07815289163
5.77,0.01134437264,-0.07839088802
5.78,0.009012741116,-0.07855678847
5.79,0.006683236523,-0.07865090405
5.8,0.004358196116,-0.07867362985
5.81,0.002039928345,-0.07862544335
5.82,-0.0002692903512,-0.07850690264
5.83,-0.002567218631,-0.07831864453
5.84,-0.004851653233,-0.07806138243
5.85,-0.007120431846,-0.0777359043
5.86,-0.00937143585,-0.07734307026
5.87,-0.01160259294,-0.07688381025
5.88,-0.0138118796,-0.07635912149
5.89,-0.01599732347,-0.07577006594
5.9,-0.01815700556,-0.07511776754
5.91,-0.02028906229,-0.0744034095
5.92,-0.02239168743,-0.07362823142
5.93,-0.02446313386,-0.0727935264
5.94,-0.02650171521,-0.07190063807
5.95,-0.0285058073,-0.07095095756
5.96,-0.03047384942,-0.06994592046
5.97,-0.03240434555,-0.06888700372
5.98,-0.03429586529,-0.06777572251
5.99,-0.03614704472,-0.06661362713
6,-0.03795658706,-0.06540229984
