"Freq [GHz]","re(S(Tx_p1,Tx_p1)) []","im(S(Tx_p1,Tx_p1)) []"
1,-0.006218986578,-0.1496438159
1.01,-0.01115107519,-0.1484641183
1.02,-0.01603516125,-0.1471120329
1.03,-0.02086332271,-0.1455888462
1.04,-0.02562772332,-0.1438963002
1.05,-0.03032063668,-0.1420365815
1.06,-0.03493446958,-0.1400123101
1.07,-0.0394617844,-0.1378265269
1.08,-0.04389532071,-0.1354826806
1.09,-0.04822801597,-0.1329846136
1.1,-0.05245302532,-0.130336547
1.11,-0.0565637404,-0.1275430647
1.12,-0.06055380717,-0.1246090975
1.13,-0.06441714273,-0.1215399052
1.14,-0.06814795113,-0.1183410596
1.15,-0.07174073811,-0.1150184255
1.16,-0.0751903247,-0.1115781422
1.17,-0.07849185982,-0.1080266038
1.18,-0.08164083169,-0.1043704397
1.19,-0.08463307815,-0.1006164937
1.2,-0.08746479578,-0.09677180427
1.21,-0.09013254799,-0.09284358313
1.22,-0.09263327179,-0.08883919434
1.23,-0.09496428358,-0.08476613314
1.24,-0.09712328363,-0.08063200453
1.25,-0.0991083595,-0.07644450196
1.26,-0.1009179882,-0.07221138594
1.27,-0.1025510375,-0.06794046276
1.28,-0.1040067657,-0.06363956329
1.29,-0.1052848203,-0.05931652201
1.3,-0.1063852362,-0.05497915626
1.31,-0.1073084322,-0.05063524572
1.32,-0.1080552063,-0.04629251236
1.33,-0.1086267306,-0.04195860061
1.34,-0.109024545,-0.03764105815
1.35,-0.1092505492,-0.03334731707
1.36,-0.1093069949,-0.02908467561
1.37,-0.1091964765,-0.02486028046
1.38,-0.1089219206,-0.02068110978
1.39,-0.1084865752,-0.01655395674
1.4,-0.1078939982,-0.01248541389
1.41,-0.1071480443,-0.00848185822
1.42,-0.1062528524,-0.004549437018
1.43,-0.1052128314,-0.000694054518
1.44,-0.1040326455,0.00307864059
1.45,-0.1027171997,0.006763266791
1.46,-0.1012716234,0.01035472049
1.47,-0.09970125531,0.01384818582
1.48,-0.09801162614,0.01723914356
1.49,-0.0962084423,0.02052337909
1.5,-0.09429756855,0.02369698932
1.51,-0.09228501068,0.02675638881
1.52,-0.09017689792,0.02969831469
1.53,-0.08797946518,0.03251983082
1.54,-0.0856990353,0.03521833083
1.55,-0.08334200111,0.03779154018
1.56,-0.08091480764,0.04023751736
1.57,-0.0784239343,0.04255465394
1.58,-0.07587587727,0.04474167387
1.59,-0.07327713196,0.04679763162
1.6,-0.07063417577,0.04872190958
1.61,-0.0679534511,0.0505142144
1.62,-0.06524134865,0.05217457252
1.63,-0.06250419109,0.05370332483
1.64,-0.05974821719,0.05510112043
1.65,-0.05697956633,0.05636890966
1.66,-0.05420426357,0.05750793623
1.67,-0.05142820518,0.05851972872
1.68,-0.0486571448,0.05940609129
1.69,-0.04589668022,0.06016909372
1.7,-0.04315224069,0.06081106077
1.71,-0.04042907506,0.06133456105
1.72,-0.03773224049,0.06174239516
1.73,-0.03506659196,0.06203758346
1.74,-0.03243677247,0.06222335325
1.75,-0.02984720409,0.06230312559
1.76,-0.0273020797,0.06228050165
1.77,-0.02480535567,0.06215924885
1.78,-0.02236074519,0.06194328653
1.79,-0.01997171261,0.06163667151
1.8,-0.01764146847,0.06124358341
1.81,-0.01537296547,0.06076830975
1.82,-0.01316889522,0.06021523105
1.83,-0.01103168592,0.05958880582
1.84,-0.0089635008,0.05889355548
1.85,-0.006966237447,0.05813404945
1.86,-0.005041527957,0.05731489022
1.87,-0.003190739903,0.05644069854
1.88,-0.001414978114,0.05551609887
1.89,0.0002849127447,0.05454570499
1.9,0.001908344824,0.05353410583
1.91,0.003454982979,0.05248585171
1.92,0.004924739931,0.05140544081
1.93,0.006317770705,0.05029730609
1.94,0.007634466395,0.04916580261
1.95,0.008875447267,0.04801519528
1.96,0.01004155523,0.04684964713
1.97,0.01113384573,0.04567320811
1.98,0.01215357906,0.04448980436
1.99,0.01310221115,0.04330322814
2,0.01398138386,0.04211712834
2.01,0.01479291486,0.04093500159
2.02,0.01553878701,0.03976018404
2.03,0.01622113747,0.0385958438
2.04,0.01684224636,0.03744497405
2.05,0.01740452523,0.03631038689
2.06,0.0179105052,0.03519470784
2.07,0.01836282492,0.03410037109
2.08,0.01876421836,0.03302961548
2.09,0.01911750248,0.0319844812
2.1,0.01942556477,0.03096680722
2.11,0.01969135081,0.02997822945
2.12,0.0199178518,0.02902017965
2.13,0.02010809209,0.02809388504
2.14,0.02026511686,0.02720036864
2.15,0.0203919799,0.02634045032
2.16,0.0204917315,0.02551474852
2.17,0.02056740662,0.02472368271
2.18,0.02062201325,0.02396747646
2.19,0.02065852104,0.02324616115
2.2,0.02067985025,0.0225595804
2.21,0.02068886106,0.02190739498
2.22,0.02068834321,0.0212890884
2.23,0.02068100612,0.02070397301
2.24,0.02066946935,0.02015119665
2.25,0.02065625361,0.01962974977
2.26,0.0206437722,0.01913847309
2.27,0.02063432298,0.01867606558
2.28,0.02063008092,0.01824109301
2.29,0.0206330911,0.01783199673
2.3,0.02064526238,0.01744710283
2.31,0.02066836164,0.0170846317
2.32,0.02070400856,0.0167427077
2.33,0.02075367108,0.01641936918
2.34,0.02081866148,0.01611257865
2.35,0.02090013304,0.0158202331
2.36,0.02099907737,0.01554017451
2.37,0.0211163224,0.01527020032
2.38,0.02125253095,0.01500807404
2.39,0.0214082,0.01475153588
2.4,0.02158366053,0.01449831324
2.41,0.02177907807,0.01424613129
2.42,0.02199445377,0.0139927233
2.43,0.02222962617,0.01373584094
2.44,0.02248427353,0.01347326435
2.45,0.02275791673,0.01320281204
2.46,0.02304992278,0.01292235052
2.47,0.02335950883,0.01262980368
2.48,0.02368574678,0.01232316188
2.49,0.02402756837,0.01200049067
2.5,0.0243837707,0.01165993922
2.51,0.02475302234,0.01129974827
2.52,0.02513386981,0.01091825778
2.53,0.02552474442,0.01051391408
2.54,0.02592396966,0.01008527655
2.55,0.02632976875,0.009631023911
2.56,0.0267402727,0.009149959928
2.57,0.02715352854,0.008641018673
2.58,0.02756750788,0.008103269227
2.59,0.02798011572,0.007535919868
2.6,0.02838919939,0.0069383217
2.61,0.02879255772,0.006309971737
2.62,0.02918795037,0.005650515412
2.63,0.02957310719,0.004959748535
2.64,0.02994573769,0.004237618668
2.65,0.03030354056,0.00348422594
2.66,0.03064421317,0.002699823278
2.67,0.03096546104,0.001884816091
2.68,0.03126500727,0.00103976137
2.69,0.03154060186,0.0001653662513
2.7,0.03179003087,-0.0007375139823
2.71,0.0320111255,-0.001667878427
2.72,0.0322017709,-0.002624583612
2.73,0.03235991482,-0.003606347069
2.74,0.03248357596,-0.004611751389
2.75,0.03257085213,-0.005639248768
2.76,0.03261992799,-0.006687166005
2.77,0.03262908256,-0.007753709948
2.78,0.03259669636,-0.008836973354
2.79,0.03252125816,-0.009934941156
2.8,0.03240137131,-0.01104549709
2.81,0.03223575974,-0.01216643068
2.82,0.03202327341,-0.01329544456
2.83,0.03176289346,-0.01443016206
2.84,0.03145373673,-0.0155681351
2.85,0.03109505995,-0.01670685228
2.86,0.03068626333,-0.01784374724
2.87,0.03022689373,-0.01897620717
2.88,0.02971664728,-0.02010158145
2.89,0.0291553715,-0.02121719049
2.9,0.02854306687,-0.02232033456
2.91,0.02787988796,-0.02340830278
2.92,0.02716614394,-0.02447838211
2.93,0.02640229862,-0.02552786628
2.94,0.02558896999,-0.02655406483
2.95,0.02472692918,-0.02755431194
2.96,0.02381709893,-0.02852597529
2.97,0.02286055164,-0.02946646475
2.98,0.02185850678,-0.03037324092
2.99,0.02081232794,-0.03124382355
3,0.01972351933,-0.03207579971
3.01,0.01859372187,-0.03286683174
3.02,0.01742470882,-0.03361466499
3.03,0.01621838094,-0.03431713525
3.04,0.01497676135,-0.03497217589
3.05,0.01370198983,-0.03557782469
3.06,0.01239631694,-0.0361322303
3.07,0.01106209765,-0.03663365843
3.08,0.009701784681,-0.03708049751
3.09,0.008317921552,-0.03747126411
3.1,0.006913135354,-0.03780460784
3.11,0.00549012924,-0.03807931587
3.12,0.004051674693,-0.03829431705
3.13,0.002600603599,-0.03844868546
3.14,0.001139800122,-0.03854164365
3.15,-0.0003278075556,-0.03857256533
3.16,-0.001799255634,-0.03854097754
3.17,-0.003271553183,-0.03844656248
3.18,-0.004741690713,-0.03828915875
3.19,-0.006206648773,-0.0380687621
3.2,-0.007663406581,-0.03778552579
3.21,-0.009108950632,-0.03743976035
3.22,-0.01054028328,-0.03703193297
3.23,-0.01195443122,-0.03656266631
3.24,-0.01334845393,-0.03603273694
3.25,-0.01471945198,-0.03544307324
3.26,-0.01606457515,-0.03479475286
3.27,-0.01738103043,-0.0340889998
3.28,-0.01866608982,-0.03332718095
3.29,-0.01991709791,-0.03251080231
3.3,-0.02113147922,-0.03164150474
3.31,-0.02230674526,-0.03072105935
3.32,-0.02344050136,-0.02975136249
3.33,-0.02453045315,-0.02873443044
3.34,-0.02557441273,-0.02767239367
3.35,-0.02657030454,-0.02656749085
3.36,-0.02751617083,-0.02542206257
3.37,-0.02841017678,-0.0242385447
3.38,-0.02925061527,-0.02301946161
3.39,-0.0300359112,-0.02176741903
3.4,-0.03076462544,-0.02048509683
3.41,-0.03143545835,-0.01917524148
3.42,-0.03204725292,-0.01784065848
3.43,-0.03259899739,-0.01648420452
3.44,-0.03308982753,-0.01510877963
3.45,-0.03351902841,-0.0137173192
3.46,-0.03388603579,-0.01231278591
3.47,-0.03419043697,-0.01089816166
3.48,-0.03443197132,-0.009476439475
3.49,-0.03461053025,-0.008050615406
3.5,-0.03472615685,-0.006623680478
3.51,-0.03477904494,-0.00519861269
3.52,-0.03476953789,-0.003778369099
3.53,-0.03469812683,-0.002365878012
3.54,-0.03456544856,-0.0009640313018
3.55,-0.034372283,0.0004243231233
3.56,-0.03411955025,0.001796388678
3.57,-0.0338083073,0.003149427262
3.58,-0.03343974431,0.004480766217
3.59,-0.03301518056,0.005787805037
3.6,-0.03253606009,0.007068021838
3.61,-0.03200394694,0.008318979554
3.62,-0.03142052011,0.009538331845
3.63,-0.03078756827,0.0107238287
3.64,-0.03010698411,0.01187332175
3.65,-0.0293807585,0.01298476918
3.66,-0.02861097438,0.01405624042
3.67,-0.02779980044,0.01508592032
3.68,-0.02694948457,0.01607211315
3.69,-0.02606234724,0.01701324603
3.7,-0.02514077457,0.01790787214
3.71,-0.02418721139,0.01875467347
3.72,-0.02320415412,0.01955246316
3.73,-0.02219414363,0.0203001875
3.74,-0.02115975792,0.0209969275
3.75,-0.02010360489,0.02164190004
3.76,-0.019028315,0.02223445865
3.77,-0.01793653393,0.02277409391
3.78,-0.0168309153,0.02326043338
3.79,-0.01571411343,0.02369324121
3.8,-0.01458877615,0.02407241732
3.81,-0.01345753765,0.02439799623
3.82,-0.01232301157,0.02467014544
3.83,-0.01118778405,0.02488916355
3.84,-0.01005440703,0.02505547792
3.85,-0.008925391732,0.02516964207
3.86,-0.007803202219,0.02523233263
3.87,-0.006690249263,0.02524434609
3.88,-0.005588884373,0.02520659515
3.89,-0.004501394065,0.02512010479
3.9,-0.003429994391,0.02498600805
3.91,-0.002376825721,0.02480554161
3.92,-0.001343947804,0.02458004098
3.93,-0.0003333351138,0.02431093557
3.94,0.0006531274994,0.0239997435
3.95,0.001613648856,0.02364806622
3.96,0.002546535168,0.02325758287
3.97,0.003450193443,0.02283004463
3.98,0.004323134539,0.02236726876
3.99,0.005163975897,0.02187113261
4,0.005971443915,0.02134356753
4.01,0.006744375978,0.02078655258
4.02,0.007481722142,0.02020210833
4.03,0.008182546454,0.0195922905
4.04,0.008846027931,0.01895918359
4.05,0.009471461175,0.01830489454
4.06,0.01005825664,0.01763154636
4.07,0.01060594057,0.01694127181
4.08,0.01111415455,0.01623620712
4.09,0.01158265476,0.01551848578
4.1,0.01201131086,0.01479023242
4.11,0.0124001046,0.01405355678
4.12,0.01274912804,0.01331054783
4.13,0.01305858151,0.01256326798
4.14,0.01332877127,0.0118137475
4.15,0.01356010684,0.01106397904
4.16,0.0137530981,0.01031591245
4.17,0.01390835206,0.009571449639
4.18,0.01402656947,0.008832439791
4.19,0.01410854108,0.008100674725
4.2,0.01415514377,0.007377884522
4.21,0.01416733639,0.006665733388
4.22,0.01414615544,0.005965815782
4.23,0.01409271061,0.005279652812
4.24,0.01400818002,0.004608688903
4.25,0.01389380551,0.003954288749
4.26,0.01375088757,0.003317734557
4.27,0.01358078039,0.002700223588
4.28,0.01338488659,0.002102865991
4.29,0.01316465205,0.001526682947
4.3,0.01292156054,0.0009726051184
4.31,0.01265712842,0.000441471399
4.32,0.0123728992,-6.597201733E-05
4.33,0.01207043817,-0.0005490722689
4.34,0.01175132703,-0.001007270148
4.35,0.01141715849,-0.001440100119
4.36,0.01106953093,-0.001847190038
4.37,0.0107100432,-0.002228260574
4.38,0.01034028933,-0.002583124338
4.39,0.009961853508,-0.002911684729
4.4,0.009576305013,-0.003213934499
4.41,0.009185193361,-0.00348995405
4.42,0.008790043548,-0.003739909465
4.43,0.008392351443,-0.003964050289
4.44,0.007993579353,-0.004162707066
4.45,0.00759515175,-0.00433628864
4.46,0.007198451188,-0.00448527924
4.47,0.006804814421,-0.004610235354
4.48,0.006415528725,-0.004711782401
4.49,0.006031828433,-0.004790611227
4.5,0.005654891709,-0.004847474425
4.51,0.005285837543,-0.004883182504
4.52,0.004925722996,-0.004898599905
4.53,0.004575540695,-0.004894640904
4.54,0.004236216576,-0.004872265392
4.55,0.00390860789,-0.00483247456
4.56,0.003593501476,-0.004776306505
4.57,0.003291612288,-0.004704831765
4.58,0.003003582209,-0.004619148808
4.59,0.002729979113,-0.004520379479
4.6,0.002471296218,-0.004409664437
4.61,0.002227951691,-0.004288158576
4.62,0.002000288533,-0.004157026468
4.63,0.001788574721,-0.004017437831
4.64,0.001593003621,-0.003870563027
4.65,0.001413694655,-0.003717568635
4.66,0.001250694219,-0.003559613082
4.67,0.001103976856,-0.003397842363
4.68,0.0009734466658,-0.00323338586
4.69,0.0008589389513,-0.003067352275
4.7,0.0007602220928,-0.002900825687
4.71,0.0006769996384,-0.002734861747
4.72,0.0006089126053,-0.002570484019
4.73,0.0005555419796,-0.002408680489
4.74,0.0005164114051,-0.002250400241
4.75,0.0004909900504,-0.002096550311
4.76,0.0004786956417,-0.001947992741
4.77,0.0004788976508,-0.001805541822
4.78,0.0004909206246,-0.001669961551
4.79,0.0005140476436,-0.001541963301
4.8,0.000547523897,-0.001422203708
4.81,0.0005905603599,-0.00131128279
4.82,0.0006423375596,-0.00120974229
4.83,0.0007020094168,-0.001118064262
4.84,0.0007687071472,-0.001036669888
4.85,0.0008415432105,-0.0009659185406
4.86,0.0009196152908,-0.0009061070815
4.87,0.001002010296,-0.0008574694098
4.88,0.00108780836,-0.0008201762473
4.89,0.001176086835,-0.0007943351675
4.9,0.001265924259,-0.0007799908634
4.91,0.001356404286,-0.000777125653
4.92,0.00144661956,-0.0007856602179
4.93,0.001535675529,-0.0008054545718
4.94,0.001622694179,-0.0008363092527
4.95,0.001706817668,-0.0008779667354
4.96,0.001787211869,-0.000930113055
4.97,0.001863069789,-0.0009923796366
4.98,0.00193361486,-0.001064345323
4.99,0.001998104092,-0.001145538589
5,0.002055831081,-0.001235439943
5.01,0.002106128853,-0.001333484489
5.02,0.002148372538,-0.001439064658
5.03,0.002181981871,-0.001551533082
5.04,0.002206423504,-0.001670205619
5.05,0.002221213128,-0.001794364487
5.06,0.00222591739,-0.001923261531
5.07,0.002220155609,-0.002056121583
5.08,0.00220360128,-0.002192145916
5.09,0.002175983359,-0.002330515775
5.1,0.002137087332,-0.002470395972
5.11,0.002086756059,-0.002610938535
5.12,0.002024890393,-0.002751286393
5.13,0.001951449578,-0.002890577086
5.14,0.00186645141,-0.003027946487
5.15,0.001769972181,-0.00316253252
5.16,0.001662146389,-0.003293478866
5.17,0.001543166231,-0.003419938632
5.18,0.001413280869,-0.003541077992
5.19,0.001272795477,-0.003656079754
5.2,0.001122070075,-0.003764146878
5.21,0.0009615181568,-0.003864505896
5.22,0.0007916051042,-0.003956410255
5.23,0.0006128464097,-0.004039143542
5.24,0.0004258057051,-0.004112022603
5.25,0.0002310926052,-0.004174400528
5.26,2.936037605E-05,-0.004225669502
5.27,-0.0001786965652,-0.004265263507
5.28,-0.0003923453087,-0.004292660867
5.29,-0.0006108172594,-0.004307386627
5.3,-0.0008333110824,-0.004309014754
5.31,-0.001058995777,-0.004297170162
5.32,-0.001287013869,-0.004271530541
5.33,-0.001516484702,-0.004231827992
5.34,-0.001746507834,-0.004177850464
5.35,-0.001976166498,-0.004109442976
5.36,-0.002204531154,-0.004026508636
5.37,-0.002430663073,-0.003929009439
5.38,-0.002653617984,-0.00381696685
5.39,-0.00287244974,-0.003690462169
5.4,-0.003086214004,-0.003549636668
5.41,-0.003293971946,-0.003394691513
5.42,-0.003494793917,-0.003225887463
5.43,-0.003687763117,-0.003043544344
5.44,-0.003871979217,-0.002848040308
5.45,-0.004046561936,-0.002639810877
5.46,-0.004210654562,-0.002419347767
5.47,-0.004363427391,-0.002187197509
5.48,-0.004504081094,-0.001943959861
5.49,-0.004631849972,-0.001690286023
5.5,-0.004746005116,-0.00142687666
5.51,-0.004845857434,-0.00115447973
5.52,-0.004930760561,-0.000873888144
5.53,-0.005000113619,-0.0005859372483
5.54,-0.005053363826,-0.0002915021419
5.55,-0.005090008951,8.505154806E-06
5.56,-0.005109599594,0.0003131386788
5.57,-0.005111741292,0.0006214216364
5.58,-0.005096096439,0.0009323496389
5.59,-0.005062386015,0.00124489405
5.6,-0.005010391115,0.001558005437
5.61,-0.004939954279,0.001870617107
5.62,-0.004850980603,0.002181648725
5.63,-0.004743438651,0.002490009993
5.64,-0.00461736114,0.002794604386
5.65,-0.004472845406,0.003094332926
5.66,-0.004310053657,0.003388097978
5.67,-0.004129212992,0.00367480707
5.68,-0.003930615205,0.003953376708
5.69,-0.003714616364,0.004222736175
5.7,-0.003481636163,0.004481831316
5.71,-0.003232157061,0.004729628275
5.72,-0.002966723198,0.004965117185
5.73,-0.002685939097,0.005187315799
5.74,-0.002390468157,0.005395273039
5.75,-0.002081030938,0.005588072457
5.76,-0.001758403243,0.005764835604
5.77,-0.001423414011,0.00592472528
5.78,-0.001076943015,0.006066948664
5.79,-0.0007199183844,0.006190760312
5.8,-0.0003533139503,0.006295465012
5.81,2.185357176E-05,0.006380420483
5.82,0.0004045275551,0.006445039911
5.83,0.0007936145811,0.006488794318
5.84,0.001187987695,0.006511214747
5.85,0.001586489785,0.006511894263
5.86,0.001987937081,0.006490489754
5.87,0.002391122749,0.006446723537
5.88,0.002794820584,0.006380384755
5.89,0.003197788775,0.006291330564
5.9,0.003598773749,0.006179487101
5.91,0.003996514055,0.006044850234
5.92,0.004389744301,0.005887486091
5.93,0.004777199117,0.005707531364
5.94,0.005157617131,0.005505193386
5.95,0.005529744956,0.005280749982
5.96,0.005892341156,0.005034549091
5.97,0.006244180204,0.004767008168
5.98,0.006584056389,0.004478613358
5.99,0.006910787688,0.004169918445
6,0.007223219567,0.003841543591
