"Freq [GHz]","re(S(Tx_p1,Tx_p1)) []","im(S(Tx_p1,Tx_p1)) []"
1,-0.00990283057,-0.02034725297
1.01,-0.01062403623,-0.01980876871
1.02,-0.01132015804,-0.01924266079
1.03,-0.01198989451,-0.0186501226
1.04,-0.01263201399,-0.01803241789
1.05,-0.01324535812,-0.01739087595
1.06,-0.01382884496,-0.01672688682
1.07,-0.01438147178,-0.0160418962
1.08,-0.01490231766,-0.01533740045
1.09,-0.01539054561,-0.0146149414
1.1,-0.01584540453,-0.01387610115
1.11,-0.01626623081,-0.01312249681
1.12,-0.01665244959,-0.01235577526
1.13,-0.01700357573,-0.01157760779
1.14,-0.01731921454,-0.01078968488
1.15,-0.01759906212,-0.009993710952
1.16,-0.01784290545,-0.009191399083
1.17,-0.01805062218,-0.008384465899
1.18,-0.01822218016,-0.007574626449
1.19,-0.01835763665,-0.006763589188
1.2,-0.01845713729,-0.005953051059
1.21,-0.01852091481,-0.005144692672
1.22,-0.01854928744,-0.00434017362
1.23,-0.01854265715,-0.003541127914
1.24,-0.0185015076,-0.002749159578
1.25,-0.01842640188,-0.001965838387
1.26,-0.01831798004,-0.001192695786
1.27,-0.01817695642,-0.0004312209778
1.28,-0.01800411678,0.0003171428014
1.29,-0.01780031528,0.001051001809
1.3,-0.01756647122,0.001769015123
1.31,-0.01730356575,0.002469897759
1.32,-0.01701263833,0.003152423573
1.33,-0.0166947831,0.003815427942
1.34,-0.01635114515,0.004457810217
1.35,-0.0159829167,0.005078535955
1.36,-0.01559133315,0.005676638911
1.37,-0.0151776691,0.006251222797
1.38,-0.01474323426,0.006801462811
1.39,-0.01428936942,0.007326606919
1.4,-0.01381744224,0.007825976913
1.41,-0.01332884314,0.008298969224
1.42,-0.01282498114,0.008745055501
1.43,-0.01230727973,0.009163782965
1.44,-0.01177717267,0.009554774525
1.45,-0.01123609998,0.009917728676
1.46,-0.01068550385,0.01025241917
1.47,-0.01012682462,0.01055869446
1.48,-0.009561496902,0.01083647697
1.49,-0.008990945688,0.01108576212
1.5,-0.00841658261,0.01130661714
1.51,-0.007839802267,0.01149917976
1.52,-0.007261978675,0.01166365664
1.53,-0.006684461826,0.01180032168
1.54,-0.006108574376,0.01190951409
1.55,-0.005535608464,0.0119916364
1.56,-0.004966822673,0.01204715223
1.57,-0.00440343914,0.01207658395
1.58,-0.003846640816,0.01208051021
1.59,-0.003297568887,0.01205956337
1.6,-0.002757320359,0.01201442675
1.61,-0.002226945811,0.01194583185
1.62,-0.001707447324,0.01185455542
1.63,-0.001199776576,0.0117414165
1.64,-0.0007048331318,0.01160727332
1.65,-0.0002234628934,0.01145302021
1.66,0.0002435432516,0.01127958443
1.67,0.0006954506069,0.01108792292
1.68,0.00113158166,0.01087901907
1.69,0.001551316889,0.01065387947
1.7,0.001954095394,0.01041353059
1.71,0.002339415336,0.01015901553
1.72,0.002706834212,0.009891390739
1.73,0.00305596894,0.009611722767
1.74,0.003386495773,0.009321085018
1.75,0.003698150051,0.009020554575
1.76,0.003990725774,0.008711209049
1.77,0.004264075019,0.008394123486
1.78,0.004518107195,0.008070367334
1.79,0.004752788147,0.007741001483
1.8,0.004968139111,0.007407075376
1.81,0.005164235524,0.00706962421
1.82,0.005341205698,0.006729666225
1.83,0.005499229366,0.006388200086
1.84,0.005638536098,0.006046202375
1.85,0.005759403605,0.005704625186
1.86,0.005862155928,0.005364393836
1.87,0.005947161524,0.005026404693
1.88,0.00601483126,0.004691523126
1.89,0.006065616308,0.004360581588
1.9,0.006100005968,0.004034377814
1.91,0.006118525414,0.00371367317
1.92,0.006121733371,0.003399191126
1.93,0.006110219735,0.003091615868
1.94,0.006084603144,0.002791591051
1.95,0.006045528505,0.002499718696
1.96,0.005993664483,0.002216558224
1.97,0.005929700968,0.001942625631
1.98,0.005854346514,0.001678392813
1.99,0.005768325778,0.001424287024
2,0.005672376938,0.001180690483
2.01,0.005567249131,0.0009479401155
2.02,0.00545369989,0.0007263274377
2.03,0.005332492599,0.0005160985762
2.04,0.005204393976,0.0003174544235
2.05,0.005070171587,0.0001305509258
2.06,0.004930591393,-4.450049958E-05
2.07,0.004786415345,-0.0002076324193
2.08,0.004638399029,-0.0003588207163
2.09,0.004487289367,-0.0004980838023
2.1,0.004333822377,-0.000625481714
2.11,0.004178721008,-0.0007411150985
2.12,0.004022693038,-0.0008451240904
2.13,0.003866429057,-0.0009376870873
2.14,0.003710600532,-0.001019019427
2.15,0.003555857952,-0.001089371973
2.16,0.003402829078,-0.00114902961
2.17,0.003252117269,-0.001198309662
2.18,0.003104299926,-0.001237560228
2.19,0.00295992702,-0.001267158454
2.2,0.002819519741,-0.001287508732
2.21,0.00268356924,-0.001299040846
2.22,0.00255253549,-0.001302208065
2.23,0.002426846253,-0.001297485182
2.24,0.002306896167,-0.001285366522
2.25,0.002193045938,-0.001266363909
2.26,0.002085621655,-0.001241004604
2.27,0.001984914221,-0.001209829226
2.28,0.001891178896,-0.00117338965
2.29,0.00180463496,-0.001132246902
2.3,0.001725465495,-0.001086969045
2.31,0.001653817279,-0.001038129069
2.32,0.001589800798,-0.0009863027932
2.33,0.001533490369,-0.0009320667746
2.34,0.00148492438,-0.0008759962453
2.35,0.001444105639,-0.0008186630707
2.36,0.001411001833,-0.0007606337413
2.37,0.001385546091,-0.0007024674021
2.38,0.001367637658,-0.0006447139239
2.39,0.001357142661,-0.0005879120237
2.4,0.001353894982,-0.0005325874375
2.41,0.001357697224,-0.0004792511518
2.42,0.001368321765,-0.0004283976973
2.43,0.001385511906,-0.0003805035109
2.44,0.001408983097,-0.000336025369
2.45,0.00143842425,-0.0002953988967
2.46,0.001473499119,-0.0002590371568
2.47,0.001513847758,-0.000227329323
2.48,0.001559088044,-0.0002006394392
2.49,0.001608817256,-0.0001793052692
2.5,0.001662613719,-0.0001636372399
2.51,0.001720038491,-0.0001539174799
2.52,0.001780637102,-0.0001503989561
2.53,0.00184394133,-0.0001533047109
2.54,0.001909471013,-0.0001628272011
2.55,0.00197673589,-0.000179127741
2.56,0.002045237465,-0.0002023360496
2.57,0.002114470892,-0.0002325499042
2.58,0.002183926871,-0.0002698349006
2.59,0.002253093544,-0.0003142243195
2.6,0.002321458406,-0.0003657191002
2.61,0.002388510194,-0.0004242879212
2.62,0.002453740777,-0.0004898673862
2.63,0.002516647026,-0.0005623623163
2.64,0.002576732663,-0.0006416461451
2.65,0.002633510073,-0.0007275614176
2.66,0.002686502101,-0.0008199203891
2.67,0.002735243788,-0.0009185057237
2.68,0.002779284084,-0.001023071288
2.69,0.002818187494,-0.001133343042
2.7,0.00285153568,-0.001249020013
2.71,0.002878929001,-0.001369775372
2.72,0.002899987989,-0.001495257576
2.73,0.002914354753,-0.001625091607
2.74,0.002921694318,-0.001758880277
2.75,0.002921695878,-0.001896205616
2.76,0.002914073973,-0.002036630314
2.77,0.002898569582,-0.002179699244
2.78,0.002874951123,-0.002324941028
2.79,0.00284301537,-0.002471869667
2.8,0.002802588265,-0.00261998622
2.81,0.002753525644,-0.002768780515
2.82,0.002695713858,-0.002917732916
2.83,0.002629070295,-0.003066316108
2.84,0.002553543794,-0.003213996914
2.85,0.002469114966,-0.003360238133
2.86,0.002375796401,-0.003504500397
2.87,0.002273632767,-0.003646244027
2.88,0.002162700814,-0.003784930905
2.89,0.002043109259,-0.003920026334
2.9,0.001914998573,-0.004051000893
2.91,0.001778540659,-0.004177332277
2.92,0.001633938427,-0.004298507118
2.93,0.001481425262,-0.004414022775
2.94,0.001321264395,-0.004523389099
2.95,0.001153748172,-0.004626130152
2.96,0.0009791972214,-0.004721785886
2.97,0.0007979595352,-0.004809913776
2.98,0.0006104094479,-0.004890090394
2.99,0.000416946533,-0.004961912923
3,0.000217994411,-0.005025000611
3.01,1.399947644E-05,-0.00507899615
3.02,-0.0001945704538,-0.005123566983
3.03,-0.000407227565,-0.005158406534
3.04,-0.0006234655387,-0.005183235353
3.05,-0.0008427611109,-0.005197802177
3.06,-0.00106457569,-0.005201884894
3.07,-0.001288357027,-0.005195291425
3.08,-0.001513540938,-0.005177860496
3.09,-0.001739553066,-0.005149462323
3.1,-0.001965810683,-0.005109999187
3.11,-0.00219172452,-0.005059405907
3.12,-0.002416700629,-0.00499765021
3.13,-0.002640142255,-0.004924732992
3.14,-0.002861451732,-0.004840688473
3.15,-0.003080032377,-0.004745584238
3.16,-0.003295290387,-0.004639521176
3.17,-0.003506636738,-0.004522633306
3.18,-0.00371348906,-0.004395087497
3.19,-0.003915273503,-0.004257083076
3.2,-0.004111426574,-0.004108851336
3.21,-0.004301396946,-0.003950654933
3.22,-0.004484647232,-0.003782787181
3.23,-0.004660655711,-0.003605571251
3.24,-0.004828918012,-0.003419359264
3.25,-0.004988948739,-0.003224531295
3.26,-0.005140283042,-0.00302149428
3.27,-0.005282478119,-0.002810680838
3.28,-0.005415114649,-0.002592548005
3.29,-0.005537798153,-0.002367575892
3.3,-0.005650160274,-0.002136266258
3.31,-0.005751859973,-0.001899141022
3.32,-0.005842584638,-0.0016567407
3.33,-0.005922051104,-0.001409622786
3.34,-0.005990006572,-0.001158360075
3.35,-0.006046229442,-0.0009035389312
3.36,-0.006090530028,-0.0006457575229
3.37,-0.006122751188,-0.0003856240058
3.38,-0.006142768837,-0.0001237546818
3.39,-0.006150492356,0.0001392278714
3.4,-0.006145864895,0.0004026966903
3.41,-0.006128863563,0.0006660223294
3.42,-0.006099499513,0.0009285747727
3.43,-0.006057817913,0.001189725346
3.44,-0.006003897808,0.001448848623
3.45,-0.005937851869,0.00170532432
3.46,-0.005859826047,0.001958539173
3.47,-0.005769999098,0.00220788879
3.48,-0.005668582025,0.002452779468
3.49,-0.0055558174,0.002692629984
3.5,-0.005431978591,0.002926873328
3.51,-0.005297368894,0.003154958399
3.52,-0.005152320564,0.003376351645
3.53,-0.004997193759,0.003590538634
3.54,-0.004832375387,0.003797025574
3.55,-0.004658277885,0.003995340747
3.56,-0.004475337903,0.004185035885
3.57,-0.004284014916,0.00436568745
3.58,-0.004084789778,0.004536897843
3.59,-0.003878163192,0.004698296518
3.6,-0.003664654135,0.004849541011
3.61,-0.003444798222,0.004990317864
3.62,-0.003219146023,0.005120343466
3.63,-0.002988261339,0.005239364783
3.64,-0.00275271944,0.005347159988
3.65,-0.002513105268,0.005443538994
3.66,-0.002270011628,0.00552834387
3.67,-0.002024037348,0.005601449163
3.68,-0.001775785433,0.005662762099
3.69,-0.001525861219,0.005712222692
3.7,-0.001274870516,0.005749803732
3.71,-0.001023417771,0.005775510672
3.72,-0.0007721042367,0.005789381411
3.73,-0.0005215261648,0.005791485967
3.74,-0.0002722730222,0.00578192605
3.75,-2.492574202E-05,0.00576083453
3.76,0.0002199449884,0.005728374812
3.77,0.0004617803952,0.005684740106
3.78,0.0007000352364,0.005630152612
3.79,0.0009341793656,0.005564862609
3.8,0.001163699236,0.005489147458
3.81,0.001388099338,0.005403310528
3.82,0.001606903569,0.005307680031
3.83,0.001819656532,0.005202607797
3.84,0.002025924747,0.005088467974
3.85,0.002225297792,0.004965655656
3.86,0.002417389351,0.004834585467
3.87,0.00260183818,0.004695690078
3.88,0.002778308971,0.004549418679
3.89,0.002946493137,0.004396235415
3.9,0.003106109491,0.004236617773
3.91,0.003256904828,0.00407105495
3.92,0.003398654416,0.003900046186
3.93,0.003531162375,0.003724099084
3.94,0.003654261967,0.003543727913
3.95,0.00376781578,0.003359451909
3.96,0.003871715808,0.003171793569
3.97,0.003965883439,0.002981276955
3.98,0.004050269335,0.002788426003
3.99,0.004124853219,0.002593762859
4,0.004189643565,0.002397806224
4.01,0.004244677189,0.002201069743
4.02,0.004290018754,0.002004060413
4.03,0.004325760179,0.001807277039
4.04,0.004352019961,0.001611208734
4.05,0.004368942421,0.001416333465
4.06,0.004376696855,0.001223116656
4.07,0.004375476623,0.001032009848
4.08,0.004365498154,0.0008434494233
4.09,0.004346999888,0.000657855395
4.1,0.004320241151,0.0004756302702
4.11,0.004285500974,0.0002971579846
4.12,0.004243076848,0.0001228029158
4.13,0.004193283444,-4.709102367E-05
4.14,0.004136451271,-0.0002122012098
4.15,0.004072925309,-0.0003722270469
4.16,0.0040030636,-0.0005268906193
4.17,0.003927235811,-0.0006759372561
4.18,0.003845821776,-0.0008191360052
4.19,0.003759210018,-0.0009562800176
4.2,0.003667796261,-0.001087186841
4.21,0.003571981935,-0.001211698623
4.22,0.003472172677,-0.001329682221
4.23,0.003368776841,-0.001441029225
4.24,0.003262204013,-0.001545655891
4.25,0.003152863549,-0.001643502982
4.26,0.003041163121,-0.001734535527
4.27,0.002927507304,-0.001818742493
4.28,0.002812296177,-0.001896136374
4.29,0.002695923974,-0.001966752701
4.3,0.002578777766,-0.002030649474
4.31,0.002461236191,-0.002087906518
4.32,0.002343668232,-0.002138624767
4.33,0.002226432043,-0.002182925483
4.34,0.002109873843,-0.002220949409
4.35,0.001994326857,-0.00225285586
4.36,0.001880110327,-0.002278821759
4.37,0.001767528591,-0.00229904062
4.38,0.001656870223,-0.002313721487
4.39,0.001548407252,-0.002323087819
4.4,0.00144239445,-0.002327376353
4.41,0.001339068699,-0.002326835916
4.42,0.001238648431,-0.002321726217
4.43,0.001141333147,-0.002312316618
4.44,0.001047303015,-0.002298884873
4.45,0.0009567185526,-0.002281715868
4.46,0.0008697203776,-0.002261100339
4.47,0.0007864290512,-0.002237333591
4.48,0.000706944993,-0.002210714221
4.49,0.0006313484773,-0.002181542835
4.5,0.0005596997073,-0.002150120789
4.51,0.000492038966,-0.002116748933
4.52,0.0004283868428,-0.002081726382
4.53,0.000368744533,-0.002045349305
4.54,0.0003130942103,-0.002007909747
4.55,0.000261399467,-0.001969694479
4.56,0.0002136058228,-0.001930983887
4.57,0.0001696412972,-0.001892050901
4.58,0.0001294170429,-0.001853159963
4.59,9.282803795E-05,-0.00181456605
4.6,5.975383281E-05,-0.001776513742
4.61,3.005934874E-05,-0.001739236342
4.62,3.595724112E-06,-0.001702955055
4.63,-1.979879523E-05,-0.001667878226
4.64,-4.029792533E-05,-0.001634200636
4.65,-5.808637735E-05,-0.001602102865
4.66,-7.335885863E-05,-0.001571750709
4.67,-8.631904585E-05,-0.001543294681
4.68,-9.717853442E-05,-0.00151686956
4.69,-0.0001061557685,-0.001492594022
4.7,-0.0001134749556,-0.001470570332
4.71,-0.0001193649707,-0.001450884109
4.72,-0.0001240582536,-0.001433604159
4.73,-0.0001277897038,-0.001418782378
4.74,-0.0001307955774,-0.001406453723
4.75,-0.0001333123905,-0.001396636253
4.76,-0.0001355758321,-0.001389331232
4.77,-0.0001378196917,-0.00138452331
4.78,-0.000140274805,-0.001382180754
4.79,-0.0001431680212,-0.001382255755
4.8,-0.0001467211966,-0.001384684788
4.81,-0.0001511502168,-0.001389389038
4.82,-0.0001566640513,-0.001396274879
4.83,-0.0001634638453,-0.00140523441
4.84,-0.0001717420484,-0.001416146045
4.85,-0.0001816815865,-0.001428875145
4.86,-0.0001934550783,-0.001443274711
4.87,-0.0002072240975,-0.001459186107
4.88,-0.0002231384858,-0.001476439831
4.89,-0.0002413357166,-0.00149485632
4.9,-0.0002619403122,-0.001514246796
4.91,-0.0002850633157,-0.001534414132
4.92,-0.0003108018202,-0.001555153754
4.93,-0.0003392385548,-0.001576254562
4.94,-0.0003704415299,-0.001597499875
4.95,-0.0004044637419,-0.001618668383
4.96,-0.0004413429376,-0.001639535128
4.97,-0.0004811014402,-0.001659872476
4.98,-0.0005237460343,-0.001679451105
4.99,-0.0005692679126,-0.001698040995
5,-0.000617642682,-0.001715412408
5.01,-0.0006688304303,-0.001731336872
5.02,-0.0007227758504,-0.00174558815
5.03,-0.0007794084241,-0.001757943196
5.04,-0.0008386426615,-0.001768183104
5.05,-0.0009003783967,-0.00177609402
5.06,-0.0009645011373,-0.001781468056
5.07,-0.001030882467,-0.001784104153
5.08,-0.001099380496,-0.00178380894
5.09,-0.001169840366,-0.00178039754
5.1,-0.001242094795,-0.001773694361
5.11,-0.001315964669,-0.001763533837
5.12,-0.001391259678,-0.001749761139
5.13,-0.001467778988,-0.001732232841
5.14,-0.00154531195,-0.001710817545
5.15,-0.001623638845,-0.00168539646
5.16,-0.001702531656,-0.001655863937
5.17,-0.001781754877,-0.001622127952
5.18,-0.001861066335,-0.001584110544
5.19,-0.001940218045,-0.0015417482
5.2,-0.002018957079,-0.001494992193
5.21,-0.002097026452,-0.001443808856
5.22,-0.002174166022,-0.001388179821
5.23,-0.002250113399,-0.00132810219
5.24,-0.002324604862,-0.001263588656
5.25,-0.002397376279,-0.001194667577
5.26,-0.002468164026,-0.001121382987
5.27,-0.002536705909,-0.00104379456
5.28,-0.002602742075,-0.000961977521
5.29,-0.002666015918,-0.0008760224988
5.3,-0.00272627497,-0.0007860353351
5.31,-0.002783271782,-0.0006921368384
5.32,-0.00283676479,-0.0005944624892
5.33,-0.002886519151,-0.0004931620978
5.34,-0.00293230757,-0.0003883994142
5.35,-0.002973911093,-0.0002803516931
5.36,-0.003011119876,-0.0001692092152
5.37,-0.003043733927,-5.5174766E-05
5.38,-0.003071563811,6.153692523E-05
5.39,-0.003094431324,0.0001806997849
5.4,-0.003112170137,0.0003020770305
5.41,-0.003124626388,0.0004254218406
5.42,-0.003131659253,0.0005504780555
5.43,-0.00313314146,0.0006769809088
5.44,-0.003128959775,0.0008046577846
5.45,-0.003119015428,0.0009332290001
5.46,-0.003103224515,0.001062408611
5.47,-0.003081518333,0.001191905233
5.48,-0.003053843686,0.001321422887
5.49,-0.003020163132,0.001450661851
5.5,-0.002980455192,0.001579319529
5.51,-0.002934714497,0.001707091326
5.52,-0.002882951906,0.001833671532
5.53,-0.002825194554,0.001958754208
5.54,-0.00276148587,0.002082034071
5.55,-0.002691885531,0.002203207384
5.56,-0.002616469383,0.002321972836
5.57,-0.0025353293,0.002438032415
5.58,-0.002448573005,0.002551092276
5.59,-0.002356323839,0.002660863596
5.6,-0.002258720492,0.002767063409
5.61,-0.002155916677,0.002869415435
5.62,-0.002048080772,0.00296765088
5.63,-0.001935395415,0.003061509221
5.64,-0.001818057051,0.003150738962
5.65,-0.001696275455,0.003235098374
5.66,-0.001570273196,0.003314356195
5.67,-0.001440285086,0.003388292311
5.68,-0.001306557572,0.003456698398
5.69,-0.001169348115,0.003519378537
5.7,-0.001028924523,0.003576149789
5.71,-0.0008855642575,0.003626842738
5.72,-0.0007395537202,0.003671301992
5.73,-0.0005911875035,0.003709386648
5.74,-0.0004407676244,0.003740970715
5.75,-0.0002886027347,0.003765943494
5.76,-0.0001350073132,0.00378420992
5.77,1.969915894E-05,0.003795690856
5.78,0.0001751930377,0.003800323346
5.79,0.0003311473668,0.003798060818
5.8,0.0004872327381,0.003788873248
5.81,0.0006431181595,0.003772747275
5.82,0.0007984719271,0.00374968627
5.83,0.0009529624998,0.003719710359
5.84,0.001106259374,0.003682856397
5.85,0.001258033954,0.003639177904
5.86,0.001407960423,0.003588744945
5.87,0.001555716595,0.00353164397
5.88,0.001700984774,0.003467977609
5.89,0.001843452582,0.003397864421
5.9,0.001982813789,0.003321438599
5.91,0.002118769117,0.003238849631
5.92,0.002251027025,0.003150261924
5.93,0.00237930448,0.003055854382
5.94,0.002503327693,0.002955819942
5.95,0.002622832845,0.002850365081
5.96,0.002737566768,0.002739709276
5.97,0.002847287614,0.002624084435
5.98,0.002951765478,0.002503734286
5.99,0.003050783,0.002378913746
6,0.003144135925,0.002249888246
