"Freq [GHz]","re(S(Tx_p1,Tx_p1)) []","im(S(Tx_p1,Tx_p1)) []"
1,0.005238159617,-0.02866203325
1.01,0.004793118185,-0.02788551243
1.02,0.004400745133,-0.027123995
1.03,0.004059305578,-0.02638018434
1.04,0.00376689936,-0.02565666594
1.05,0.00352147084,-0.02495589527
1.06,0.003320819503,-0.02428018664
1.07,0.003162611265,-0.02363170309
1.08,0.003044390414,-0.02301244722
1.09,0.002963592096,-0.02242425316
1.1,0.002917555259,-0.02186877954
1.11,0.002903535968,-0.02134750366
1.12,0.002918721012,-0.02086171665
1.13,0.002960241703,-0.02041251978
1.14,0.003025187796,-0.02000082192
1.15,0.003110621434,-0.01962733803
1.16,0.003213591044,-0.01929258878
1.17,0.003331145099,-0.01899690119
1.18,0.003460345669,-0.01874041033
1.19,0.00359828168,-0.01852306208
1.2,0.003742081826,-0.01834461673
1.21,0.003888927039,-0.01820465365
1.22,0.00403606248,-0.01810257674
1.23,0.004180808961,-0.01803762078
1.24,0.004320573776,-0.01800885854
1.25,0.004452860853,-0.0180152086
1.26,0.00457528021,-0.01805544386
1.27,0.004685556655,-0.01812820061
1.28,0.004781537705,-0.01823198821
1.29,0.00486120068,-0.01836519915
1.3,0.004922658963,-0.01852611957
1.31,0.004964167394,-0.01871294007
1.32,0.004984126783,-0.01892376684
1.33,0.004981087547,-0.01915663289
1.34,0.004953752447,-0.01940950948
1.35,0.004900978447,-0.01968031753
1.36,0.004821777695,-0.01996693903
1.37,0.004715317627,-0.02026722839
1.38,0.004580920242,-0.02057902358
1.39,0.004418060534,-0.0209001571
1.4,0.004226364144,-0.02122846661
1.41,0.00400560424,-0.02156180527
1.42,0.003755697668,-0.02189805162
1.43,0.003476700425,-0.02223511912
1.44,0.003168802487,-0.02257096505
1.45,0.002832322038,-0.02290359901
1.46,0.002467699164,-0.02323109069
1.47,0.002075489049,-0.02355157717
1.48,0.001656354747,-0.02386326948
1.49,0.001211059568,-0.0241644585
1.5,0.0007404591463,-0.02445352018
1.51,0.0002454932631,-0.02472892005
1.52,-0.0002728225431,-0.02498921699
1.53,-0.0008134054913,-0.02523306629
1.54,-0.001375114151,-0.02545922195
1.55,-0.00195675705,-0.02566653832
1.56,-0.002557101233,-0.02585397092
1.57,-0.003174880722,-0.02602057664
1.58,-0.003808804811,-0.02616551323
1.59,-0.004457566147,-0.0262880381
1.6,-0.005119848545,-0.02638750653
1.61,-0.005794334486,-0.02646336923
1.62,-0.006479712244,-0.02651516935
1.63,-0.007174682617,-0.02654253892
1.64,-0.007877965202,-0.0265451949
1.65,-0.008588304191,-0.02652293464
1.66,-0.009304473646,-0.02647563105
1.67,-0.01002528224,-0.02640322737
1.68,-0.01074957742,-0.02630573162
1.69,-0.01147624899,-0.02618321088
1.7,-0.01220423211,-0.02603578528
1.71,-0.01293250962,-0.02586362193
1.72,-0.01366011385,-0.02566692871
1.73,-0.01438612773,-0.02544594807
1.74,-0.0151096853,-0.02520095083
1.75,-0.01582997167,-0.02493223007
1.76,-0.01654622232,-0.02464009517
1.77,-0.01725772187,-0.02432486603
1.78,-0.01796380229,-0.02398686747
1.79,-0.01866384058,-0.02362642402
1.8,-0.01935725594,-0.02324385493
1.81,-0.02004350653,-0.02283946965
1.82,-0.02072208576,-0.02241356361
1.83,-0.0213925182,-0.02196641458
1.84,-0.02205435516,-0.02149827936
1.85,-0.02270717,-0.02100939113
1.86,-0.02335055314,-0.02049995719
1.87,-0.02398410693,-0.01997015737
1.88,-0.02460744033,-0.01942014292
1.89,-0.02522016354,-0.01885003607
1.9,-0.02582188257,-0.01825993007
1.91,-0.02641219381,-0.01764988989
1.92,-0.02699067871,-0.01701995353
1.93,-0.0275568986,-0.01637013381
1.94,-0.02811038959,-0.01570042085
1.95,-0.02865065783,-0.01501078501
1.96,-0.02917717497,-0.01430118039
1.97,-0.02968937399,-0.01357154885
1.98,-0.03018664537,-0.01282182451
1.99,-0.03066833376,-0.01205193867
2,-0.03113373502,-0.01126182512
2.01,-0.03158209381,-0.01045142591
2.02,-0.03201260179,-0.009620697289
2.03,-0.03242439625,-0.008769616083
2.04,-0.03281655943,-0.007898186167
2.05,-0.03318811847,-0.007006445186
2.06,-0.03353804598,-0.006094471358
2.07,-0.03386526123,-0.005162390357
2.08,-0.03416863206,-0.004210382189
2.09,-0.03444697747,-0.003238688017
2.1,-0.03469907082,-0.002247616876
2.11,-0.03492364373,-0.001237552211
2.12,-0.03511939066,-0.0002089581831
2.13,-0.03528497414,0.000837614312
2.14,-0.03541903051,0.001901521977
2.15,-0.03552017643,0.002982023848
2.16,-0.03558701585,0.004078276492
2.17,-0.03561814751,0.005189329706
2.18,-0.03561217302,0.006314122793
2.19,-0.03556770528,0.007451481428
2.2,-0.03548337747,0.00860011519
2.21,-0.03535785219,0.009758615773
2.22,-0.0351898311,0.01092545593
2.23,-0.03497806471,0.0120989892
2.24,-0.03472136235,0.01327745034
2.25,-0.03441860231,0.01445895669
2.26,-0.03406874203,0.01564151027
2.27,-0.03367082825,0.01682300075
2.28,-0.03322400718,0.01800120926
2.29,-0.03272753438,0.01917381307
2.3,-0.03218078459,0.02033839111
2.31,-0.03158326118,0.0214924303
2.32,-0.03093460528,0.02263333274
2.33,-0.03023460449,0.02375842372
2.34,-0.02948320113,0.02486496042
2.35,-0.02868049991,0.02595014149
2.36,-0.027826775,0.02701111724
2.37,-0.02692247642,0.02804500055
2.38,-0.02596823572,0.02904887838
2.39,-0.02496487086,0.0300198239
2.4,-0.02391339023,0.03095490908
2.41,-0.02281499583,0.0318512178
2.42,-0.02167108548,0.0327058593
2.43,-0.02048325409,0.03351598202
2.44,-0.01925329394,0.03427878764
2.45,-0.01798319385,0.03499154537
2.46,-0.01667513746,0.03565160626
2.47,-0.01533150026,0.03625641764
2.48,-0.01395484566,0.03680353745
2.49,-0.01254791996,0.03729064846
2.5,-0.01111364618,0.03771557226
2.51,-0.009655116905,0.03807628297
2.52,-0.00817558597,0.0383709206
2.53,-0.006678459177,0.03859780387
2.54,-0.005167283968,0.03875544259
2.55,-0.00364573811,0.03884254935
2.56,-0.002117617446,0.03885805053
2.57,-0.0005868227394,0.03880109656
2.58,0.0009426543285,0.03867107131
2.59,0.00246674596,0.03846760059
2.6,0.00398132377,0.03819055968
2.61,0.005482214989,0.03784007975
2.62,0.006965219251,0.03741655334
2.63,0.008426125914,0.03692063851
2.64,0.009860731811,0.03635326196
2.65,0.01126485936,0.03571562084
2.66,0.01263437495,0.03500918329
2.67,0.0139652075,0.03423568779
2.68,0.01525336709,0.03339714106
2.69,0.01649496364,0.03249581472
2.7,0.01768622541,0.03153424063
2.71,0.01882351739,0.03051520487
2.72,0.01990335928,0.02944174037
2.73,0.02092244321,0.02831711828
2.74,0.02187765087,0.02714483804
2.75,0.0227660701,0.02592861611
2.76,0.0235850108,0.02467237365
2.77,0.02433202003,0.02338022278
2.78,0.02500489637,0.02205645192
2.79,0.02560170315,0.02070550992
2.8,0.02612078085,0.01933198919
2.81,0.02656075827,0.01794060794
2.82,0.02692056254,0.01653619147
2.83,0.02719942796,0.01512365271
2.84,0.02739690344,0.013707972
2.85,0.02751285868,0.01229417634
2.86,0.0275474888,0.010887318
2.87,0.02750131768,0.009492452775
2.88,0.02737519966,0.008114617855
2.89,0.02717031982,0.00675880954
2.9,0.02688819266,0.005429960771
2.91,0.02653065925,0.004132918681
2.92,0.0260998828,0.002872422245
2.93,0.02559834267,0.001653080133
2.94,0.02502882685,0.0004793488908
2.95,0.02439442283,-0.0006444884467
2.96,0.02369850705,-0.001714343202
2.97,0.02294473283,-0.002726341251
2.98,0.02213701682,-0.003676842455
2.99,0.02127952414,-0.004562459243
3,0.02037665211,-0.005380074221
3.01,0.01943301277,-0.006126856734
3.02,0.01845341417,-0.006800278266
3.03,0.01744284052,-0.007398126612
3.04,0.01640643134,-0.007918518721
3.05,0.01534945965,-0.00835991215
3.06,0.01427730924,-0.008721115044
3.07,0.01319545132,-0.009001294586
3.08,0.0121094204,-0.009199983858
3.09,0.01102478965,-0.009317087071
3.1,0.009947145918,-0.009352883103
3.11,0.008882064316,-0.009308027336
3.12,0.007835082712,-0.009183551747
3.13,0.006811676104,-0.008980863244
3.14,0.005817231059,-0.008701740238
3.15,0.004857020325,-0.008348327453
3.16,0.003936177746,-0.007923128971
3.17,0.003059673596,-0.007428999547
3.18,0.00223229046,-0.006869134205
3.19,0.001458599776,-0.006247056162
3.2,0.0007429391626,-0.00556660311
3.21,8.939064552E-05,-0.004831911921
3.22,-0.0004982401103,-0.004047401823
3.23,-0.001016443448,-0.003217756127
3.24,-0.001462024148,-0.002347902568
3.25,-0.001832118536,-0.001442992357
3.26,-0.002124210187,-0.0005083780106
3.27,-0.002336144129,0.0004504099101
3.28,-0.002466139471,0.001427687087
3.29,-0.002512800388,0.002417640621
3.3,-0.002475125397,0.003414355003
3.31,-0.002352514853,0.004411838748
3.32,-0.002144776648,0.00540405158
3.33,-0.001852130036,0.006384932039
3.34,-0.001475207586,0.007348425378
3.35,-0.001015055215,0.008288511625
3.36,-0.0004731303105,0.009199233679
3.37,0.0001487020825,0.0100747253
3.38,0.0008481749846,0.01090923885
3.39,0.001622627115,0.01169717271
3.4,0.002469012399,0.01243309815
3.41,0.003383911328,0.01311178554
3.42,0.004363544114,0.01372822995
3.43,0.005403785602,0.01427767563
3.44,0.006500181869,0.01475563973
3.45,0.007647968448,0.01515793471
3.46,0.008842090088,0.01548068962
3.47,0.01007722199,0.01572037001
3.48,0.01134779237,0.01587379635
3.49,0.01264800638,0.015938161
3.5,0.01397187103,0.01591104352
3.51,0.01531322135,0.0157904242
3.52,0.01666574733,0.01557469594
3.53,0.01802302173,0.0152626742
3.54,0.0193785286,0.01485360511
3.55,0.02072569227,0.01434717155
3.56,0.02205790683,0.01374349735
3.57,0.02336856584,0.01304314947
3.58,0.02465109219,0.01224713803
3.59,0.02589896801,0.01135691451
3.6,0.02710576435,0.01037436772
3.61,0.02826517064,0.009301817877
3.62,0.02937102374,0.00814200863
3.63,0.03041733637,0.006898097112
3.64,0.03139832492,0.005573642078
3.65,0.0323084364,0.004172590144
3.66,0.0331423744,0.002699260214
3.67,0.03389512407,0.001158326146
3.68,0.03456197579,-0.0004452022629
3.69,0.03513854761,-0.002105999884
3.7,0.03562080623,-0.003818448374
3.71,0.03600508644,-0.005576659686
3.72,0.03628810902,-0.007374500895
3.73,0.03646699683,-0.009205620186
3.74,0.03653928919,-0.01106347393
3.75,0.0365029544,-0.01294135469
3.76,0.03635640029,-0.01483242003
3.77,0.03609848287,-0.01672972204
3.78,0.03572851291,-0.01862623735
3.79,0.03524626052,-0.0205148976
3.8,0.0346519576,-0.02238862013
3.81,0.03394629828,-0.02424033883
3.82,0.03313043719,-0.02606303494
3.83,0.03220598569,-0.02784976768
3.84,0.03117500603,-0.02959370457
3.85,0.03004000348,-0.03128815134
3.86,0.02880391637,-0.03292658116
3.87,0.02747010427,-0.03450266326
3.88,0.02604233419,-0.03601029056
3.89,0.024524765,-0.03744360642
3.9,0.02292192997,-0.03879703018
3.91,0.02123871771,-0.04006528157
3.92,0.01948035149,-0.04124340366
3.93,0.01765236702,-0.04232678442
3.94,0.01576058882,-0.04331117673
3.95,0.01381110536,-0.04419271672
3.96,0.01181024295,-0.04496794036
3.97,0.009764538605,-0.04563379826
3.98,0.007680711994,-0.04618766865
3.99,0.005565636566,-0.04662736829
4,0.00342631003,-0.04695116155
4.01,0.001269824307,-0.04715776734
4.02,-0.0008966649019,-0.04724636407
4.03,-0.003065968787,-0.04721659249
4.04,-0.005230896198,-0.04706855646
4.05,-0.007384284375,-0.04680282163
4.06,-0.009519029476,-0.04642041208
4.07,-0.01162811679,-0.04592280484
4.08,-0.01370465045,-0.04531192244
4.09,-0.01574188262,-0.04459012343
4.1,-0.01773324178,-0.04376019104
4.11,-0.01967236033,-0.04282531982
4.12,-0.02155310104,-0.04178910064
4.13,-0.0233695825,-0.04065550378
4.14,-0.0251162032,-0.03942886053
4.15,-0.02678766439,-0.03811384307
4.16,-0.02837899144,-0.03671544302
4.17,-0.02988555366,-0.0352389485
4.18,-0.03130308247,-0.03368992009
4.19,-0.03262768788,-0.03207416549
4.2,-0.03385587323,-0.03039771334
4.21,-0.03498454801,-0.02866678599
4.22,-0.03601103882,-0.02688777167
4.23,-0.03693309842,-0.02506719592
4.24,-0.03774891275,-0.02321169262
4.25,-0.03845710598,-0.02132797462
4.26,-0.03905674356,-0.01942280419
4.27,-0.03954733321,-0.01750296341
4.28,-0.03992882395,-0.0155752246
4.29,-0.04020160306,-0.01364632099
4.3,-0.04036649113,-0.01172291775
4.31,-0.04042473512,-0.009811583433
4.32,-0.04037799956,-0.007918762145
4.33,-0.04022835582,-0.006050746344
4.34,-0.03997826972,-0.004213650581
4.35,-0.03963058727,-0.002413386192
4.36,-0.0391885189,-0.000655637103
4.37,-0.03865562201,0.001054163164
4.38,-0.03803578216,0.002710853172
4.39,-0.0373331928,0.004309563847
4.4,-0.0365523338,0.005845737265
4.41,-0.03569794875,0.00731514387
4.42,-0.03477502128,0.008713898047
4.43,-0.03378875045,0.01003847199
4.44,-0.0327445253,0.01128570779
4.45,-0.03164789873,0.01245282779
4.46,-0.03050456089,0.01353744296
4.47,-0.02932031209,0.01453755956
4.48,-0.02810103547,0.0154515838
4.49,-0.02685266946,0.01627832463
4.5,-0.02558118032,0.0170169947
4.51,-0.02429253466,0.01766720929
4.52,-0.02299267236,0.01822898354
4.53,-0.02168747968,0.01870272771
4.54,-0.02038276305,0.0190892407
4.55,-0.01908422334,0.01938970179
4.56,-0.01779743092,0.0196056607
4.57,-0.01652780156,0.01973902596
4.58,-0.01528057335,0.01979205176
4.59,-0.01406078453,0.01976732325
4.6,-0.01287325268,0.0196677405
4.61,-0.01172255497,0.01949650106
4.62,-0.01061300988,0.01925708132
4.63,-0.009548660273,0.01895321678
4.64,-0.008533257946,0.01858888121
4.65,-0.007570249736,0.01816826503
4.66,-0.00666276522,0.01769575274
4.67,-0.005813606044,0.01717589979
4.68,-0.005025236941,0.01661340883
4.69,-0.004299778435,0.01601310556
4.7,-0.003639001283,0.01537991417
4.71,-0.003044322637,0.0147188327
4.72,-0.002516803944,0.01403490824
4.73,-0.002057150569,0.01333321224
4.74,-0.001665713136,0.01261881591
4.75,-0.00134249054,0.011896766
4.76,-0.001087134626,0.01117206089
4.77,-0.0008989564758,0.01044962727
4.78,-0.0007769342526,0.009734297392
4.79,-0.0007197225658,0.009030787073
4.8,-0.0007256632738,0.008343674538
4.81,-0.0007927976656,0.007677380161
4.82,-0.0009188799437,0.007036147237
4.83,-0.001101391926,0.006424023845
4.84,-0.00133755888,0.005844845887
4.85,-0.001624366398,0.005302221374
4.86,-0.001958578218,0.004799516012
4.87,-0.002336754888,0.004339840161
4.88,-0.002755273172,0.003926037202
4.89,-0.003210346094,0.003560673349
4.9,-0.00369804351,0.003246028964
4.91,-0.004214313094,0.002984091363
4.92,-0.00475500164,0.002776549162
4.93,-0.005315876556,0.002624788151
4.94,-0.005892647449,0.002529888711
4.95,-0.006480987682,0.002492624752
4.96,-0.007076555809,0.002513464172
4.97,-0.007675016767,0.002592570804
4.98,-0.008272062728,0.002729807822
4.99,-0.008863433511,0.002924742578
5,-0.009444936457,0.003176652807
5.01,-0.01001246567,0.003484534172
5.02,-0.01056202053,0.003847109068
5.03,-0.01108972342,0.004262836647
5.04,-0.01159183656,0.004729923968
5.05,-0.01206477788,0.005246338222
5.06,-0.01250513585,0.005809819935
5.07,-0.01290968331,0.006417897082
5.08,-0.01327539003,0.007067900013
5.09,-0.01359943421,0.007756977104
5.1,-0.01387921269,0.008482111051
5.11,-0.0141123499,0.009240135692
5.12,-0.01429670553,0.01002775329
5.13,-0.01443038093,0.01084155213
5.14,-0.01451172417,0.01167802443
5.15,-0.01453933373,0.0125335843
5.16,-0.01451206098,0.01340458589
5.17,-0.01442901125,0.01428734135
5.18,-0.01428954367,0.01517813878
5.19,-0.01409326975,0.01607325987
5.2,-0.01384005065,0.01696899727
5.21,-0.01352999335,0.01786167151
5.22,-0.01316344557,0.0187476475
5.23,-0.01274098968,0.01962335036
5.24,-0.01226343545,0.02048528075
5.25,-0.01173181191,0.02133002932
5.26,-0.01114735816,0.02215429056
5.27,-0.01051151345,0.02295487564
5.28,-0.009825906363,0.02372872453
5.29,-0.009092343314,0.02447291701
5.3,-0.008312796433,0.02518468288
5.31,-0.007489390861,0.02586141097
5.32,-0.006624391575,0.02650065725
5.33,-0.005720189832,0.02710015181
5.34,-0.004779289289,0.02765780474
5.35,-0.003804291909,0.02817171095
5.36,-0.002797883725,0.02864015388
5.37,-0.001762820554,0.02906160811
5.38,-0.0007019137302,0.02943474088
5.39,0.0003819840376,0.02975841255
5.4,0.001485992632,0.03003167602
5.41,0.002607218214,0.03025377511
5.42,0.003742766579,0.03042414195
5.43,0.004889756088,0.03054239347
5.44,0.00604533013,0.03060832692
5.45,0.007206669035,0.03062191457
5.46,0.008371001384,0.03058329761
5.47,0.009535614662,0.03049277929
5.48,0.01069786522,0.03035081739
5.49,0.01185518744,0.03015801605
5.5,0.0130051022,0.02991511706
5.51,0.01414522441,0.02962299066
5.52,0.01527326978,0.02928262594
5.53,0.01638706069,0.02889512087
5.54,0.01748453115,0.0284616721
5.55,0.01856373091,0.02798356451
5.56,0.01962282864,0.0274621607
5.57,0.02066011421,0.02689889041
5.58,0.02167400011,0.02629523996
5.59,0.02266302196,0.02565274177
5.6,0.0236258382,0.02497296412
5.61,0.02456122888,0.02425750105
5.62,0.02546809374,0.02350796265
5.63,0.02634544948,0.02272596564
5.64,0.02719242627,0.0219131244
5.65,0.02800826363,0.02107104251
5.66,0.02879230565,0.02020130477
5.67,0.02954399564,0.0193054698
5.68,0.03026287022,0.01838506327
5.69,0.03094855297,0.01744157181
5.7,0.03160074768,0.01647643754
5.71,0.03221923121,0.01549105337
5.72,0.03280384611,0.01448675901
5.73,0.03335449302,0.01346483773
5.74,0.03387112287,0.01242651391
5.75,0.03435372908,0.0113729513
5.76,0.03480233968,0.01030525211
5.77,0.0352170095,0.00922445681
5.78,0.03559781251,0.008131544731
5.79,0.03594483427,0.007027435328
5.8,0.03625816473,0.005912990225
5.81,0.03653789122,0.004789015895
5.82,0.03678409188,0.003656267017
5.83,0.0369968295,0.002515450434
5.84,0.03717614579,0.001367229693
5.85,0.03732205622,0.0002122301048
5.86,0.0374345454,-0.0009489557053
5.87,0.03751356303,-0.002115761829
5.88,0.03755902055,-0.00328764273
5.89,0.03757078839,-0.004464066586
5.9,0.037548694,-0.005644508379
5.91,0.03749252049,-0.006828442793
5.92,0.03740200608,-0.008015336987
5.93,0.03727684425,-0.009204643305
5.94,0.03711668464,-0.01039579199
5.95,0.03692113472,-0.01158818398
5.96,0.03668976214,-0.0127811838
5.97,0.03642209785,-0.01397411273
5.98,0.03611763988,-0.01516624215
5.99,0.03577585791,-0.01635678727
6,0.03539619832,-0.01754490126
