"Freq [GHz]","re(S(Tx_p1,Tx_p1)) []","im(S(Tx_p1,Tx_p1)) []"
1,-0.01523651184,-0.0680109254
1.01,-0.01700130212,-0.06607761261
1.02,-0.01865432562,-0.06410418853
1.03,-0.02019406289,-0.0620965707
1.04,-0.0216193688,-0.06006078188
1.05,-0.0229294772,-0.05800292319
1.06,-0.02412400385,-0.05592914713
1.07,-0.02520294756,-0.05384563089
1.08,-0.02616668965,-0.0517585499
1.09,-0.02701599162,-0.04967405172
1.1,-0.02775199131,-0.0475982304
1.11,-0.02837619725,-0.04553710139
1.12,-0.02889048168,-0.04349657709
1.13,-0.02929707186,-0.04148244308
1.14,-0.02959854002,-0.03950033521
1.15,-0.02979779195,-0.03755571753
1.16,-0.02989805421,-0.03565386119
1.17,-0.0299028601,-0.03379982434
1.18,-0.02981603451,-0.03199843315
1.19,-0.02964167761,-0.03025426396
1.2,-0.02938414752,-0.02857162666
1.21,-0.02904804214,-0.02695454927
1.22,-0.02863818003,-0.02540676389
1.23,-0.02815958058,-0.02393169393
1.24,-0.02761744352,-0.02253244276
1.25,-0.02701712783,-0.02121178376
1.26,-0.02636413018,-0.01997215174
1.27,-0.02566406302,-0.01881563588
1.28,-0.02492263228,-0.01774397409
1.29,-0.02414561496,-0.01675854881
1.3,-0.02333883658,-0.01586038431
1.31,-0.02250814858,-0.01505014541
1.32,-0.02165940585,-0.01432813767
1.33,-0.02079844438,-0.01369430898
1.34,-0.01993105923,-0.01314825259
1.35,-0.01906298272,-0.01268921147
1.36,-0.01819986315,-0.01231608403
1.37,-0.01734724403,-0.01202743118
1.38,-0.01651054376,-0.01182148457
1.39,-0.01569503615,-0.01169615617
1.4,-0.01490583149,-0.01164904885
1.41,-0.01414785857,-0.01167746826
1.42,-0.01342584744,-0.01177843555
1.43,-0.01274431314,-0.01194870129
1.44,-0.01210754043,-0.01218476014
1.45,-0.01151956946,-0.01248286648
1.46,-0.01098418257,-0.01283905074
1.47,-0.0105048922,-0.01324913655
1.48,-0.01008492991,-0.01370875839
1.49,-0.009727236579,-0.01421337988
1.5,-0.009434453838,-0.01475831257
1.51,-0.009208916678,-0.01533873505
1.52,-0.009052647323,-0.01594971241
1.53,-0.008967350332,-0.016586216
1.54,-0.008954408957,-0.01724314324
1.55,-0.009014882752,-0.01791533761
1.56,-0.009149506419,-0.01859760858
1.57,-0.009358689891,-0.01928475149
1.58,-0.009642519638,-0.01997156727
1.59,-0.01000076117,-0.02065288193
1.6,-0.01043286269,-0.02132356574
1.61,-0.01093795996,-0.02197855206
1.62,-0.01151488218,-0.02261285573
1.63,-0.01216215904,-0.02322159091
1.64,-0.01287802875,-0.0237999884
1.65,-0.01366044705,-0.02434341233
1.66,-0.01450709723,-0.02484737613
1.67,-0.01541540096,-0.02530755778
1.68,-0.01638253001,-0.02571981431
1.69,-0.01740541874,-0.0260801954
1.7,-0.01848077729,-0.02638495615
1.71,-0.01960510547,-0.02663056898
1.72,-0.02077470721,-0.02681373447
1.73,-0.02198570557,-0.02693139138
1.74,-0.02323405821,-0.02698072553
1.75,-0.02451557324,-0.0269591778
1.76,-0.02582592548,-0.02686445101
1.77,-0.02716067289,-0.02669451577
1.78,-0.02851527326,-0.02644761533
1.79,-0.02988510102,-0.02612226935
1.8,-0.03126546416,-0.02571727663
1.81,-0.03265162106,-0.02523171679
1.82,-0.03403879733,-0.02466495092
1.83,-0.03542220252,-0.02401662126
1.84,-0.03679704662,-0.02328664983
1.85,-0.03815855631,-0.02247523611
1.86,-0.03950199097,-0.02158285375
1.87,-0.04082265819,-0.02061024642
1.88,-0.04211592905,-0.01955842272
1.89,-0.04337725278,-0.01842865022
1.9,-0.044602171,-0.0172224488
1.91,-0.0457863314,-0.01594158304
1.92,-0.04692550073,-0.01458805408
1.93,-0.04801557733,-0.01316409063
1.94,-0.04905260279,-0.01167213948
1.95,-0.05003277308,-0.0101148553
1.96,-0.05095244886,-0.008495090015
1.97,-0.05180816504,-0.006815881613
1.98,-0.05259663962,-0.005080442589
1.99,-0.05331478168,-0.003292147962
2,-0.05395969862,-0.001454522999
2.01,-0.05452870254,0.0004287693457
2.02,-0.05501931585,0.002353941198
2.03,-0.05542927602,0.004317092694
2.04,-0.05575653952,0.006314225022
2.05,-0.055999285,0.008341253513
2.06,-0.05615591555,0.01039402074
2.07,-0.05622506029,0.01246830958
2.08,-0.05620557509,0.01455985614
2.09,-0.05609654258,0.01666436263
2.1,-0.0558972714,0.01877750993
2.11,-0.05560729472,0.02089497002
2.12,-0.05522636808,0.02301241811
2.13,-0.05475446656,0.02512554441
2.14,-0.05419178132,0.02723006568
2.15,-0.05353871554,0.0293217362
2.16,-0.05279587978,0.03139635856
2.17,-0.0519640868,0.03344979378
2.18,-0.05104434592,0.03547797115
2.19,-0.05003785686,0.03747689747
2.2,-0.04894600325,0.03944266578
2.21,-0.04777034565,0.04137146366
2.22,-0.04651261434,0.04325958083
2.23,-0.04517470173,0.04510341635
2.24,-0.04375865457,0.04689948517
2.25,-0.04226666588,0.04864442414
2.26,-0.04070106681,0.05033499742
2.27,-0.03906431822,0.05196810138
2.28,-0.03735900229,0.05354076888
2.29,-0.03558781401,0.055050173
2.3,-0.03375355267,0.05649363025
2.31,-0.03185911332,0.05786860321
2.32,-0.02990747839,0.05917270264
2.33,-0.02790170924,0.06040368907
2.34,-0.02584493796,0.06155947394
2.35,-0.02374035925,0.06263812023
2.36,-0.02159122244,0.06363784262
2.37,-0.01940082384,0.06455700725
2.38,-0.01717249912,0.06539413108
2.39,-0.01490961611,0.06614788081
2.4,-0.01261556776,0.06681707153
2.41,-0.01029376539,0.06740066495
2.42,-0.007947632278,0.06789776743
2.43,-0.005580597526,0.06830762765
2.44,-0.003196090215,0.06862963409
2.45,-0.0007975339291,0.06886331229
2.46,0.001611658421,0.06900832192
2.47,0.004028089437,0.0690644537
2.48,0.006448381742,0.0690316262
2.49,0.008869182162,0.06890988254
2.5,0.01128716559,0.06869938699
2.51,0.0136990385,0.06840042164
2.52,0.01610154223,0.06801338289
2.53,0.01849145587,0.06753877809
2.54,0.02086559892,0.0669772221
2.55,0.02322083367,0.06632943403
2.56,0.02555406732,0.06559623393
2.57,0.02786225383,0.06477853965
2.58,0.03014239562,0.06387736375
2.59,0.03239154497,0.06289381064
2.6,0.03460680533,0.06182907371
2.61,0.03678533238,0.06068443273
2.62,0.03892433505,0.05946125137
2.63,0.04102107631,0.05816097485
2.64,0.04307287397,0.0567851278
2.65,0.04507710131,0.05533531231
2.66,0.04703118775,0.0538132061
2.67,0.04893261942,0.05222056089
2.68,0.05077893978,0.05055920094
2.69,0.05256775019,0.04883102179
2.7,0.05429671057,0.04703798907
2.71,0.05596354013,0.04518213755
2.72,0.0575660181,0.04326557027
2.73,0.05910198464,0.0412904578
2.74,0.06056934176,0.03925903769
2.75,0.06196605451,0.03717361384
2.76,0.06329015213,0.03503655618
2.77,0.06453972952,0.03285030017
2.78,0.06571294875,0.03061734658
2.79,0.0668080408,0.02834026105
2.8,0.06782330746,0.02602167387
2.81,0.06875712342,0.02366427956
2.82,0.06960793855,0.02127083654
2.83,0.07037428032,0.01884416662
2.84,0.07105475646,0.01638715448
2.85,0.07164805781,0.01390274702
2.86,0.07215296125,0.01139395253
2.87,0.07256833293,0.008863839737
2.88,0.07289313155,0.00631553669
2.89,0.07312641184,0.003752229387
2.9,0.07326732817,0.001177160221
2.91,0.07331513828,-0.001406373834
2.92,0.07326920706,-0.003995023294
2.93,0.07312901051,-0.006585388516
2.94,0.07289413966,-0.00917402235
2.95,0.07256430458,-0.01175743309
2.96,0.0721393384,-0.01433208775
2.97,0.07161920134,-0.0168944157
2.98,0.07100398464,-0.01944081257
2.99,0.07029391446,-0.02196764462
3,0.06948935576,-0.02447125331
3.01,0.0685908159,-0.02694796042
3.02,0.06759894823,-0.02939407331
3.03,0.06651455545,-0.03180589072
3.04,0.06533859273,-0.03417970882
3.05,0.06407217065,-0.03651182761
3.06,0.06271655778,-0.0387985577
3.07,0.06127318308,-0.04103622738
3.08,0.05974363782,-0.04322118999
3.09,0.05812967729,-0.04534983162
3.1,0.05643322203,-0.04741857903
3.11,0.05465635863,-0.0494239079
3.12,0.05280134019,-0.05136235122
3.13,0.05087058621,-0.05323050797
3.14,0.04886668205,-0.05502505193
3.15,0.04679237786,-0.0567427406
3.16,0.044650587,-0.05838042437
3.17,0.04244438392,-0.0599350556
3.18,0.04017700144,-0.0614036979
3.19,0.03785182749,-0.06278353532
3.2,0.03547240129,-0.06407188159
3.21,0.03304240889,-0.06526618922
3.22,0.03056567817,-0.06636405858
3.23,0.02804617316,-0.0673632468
3.24,0.02548798786,-0.06826167644
3.25,0.02289533943,-0.06905744403
3.26,0.02027256074,-0.06974882829
3.27,0.01762409244,-0.070334298
3.28,0.01495447437,-0.07081251965
3.29,0.01226833647,-0.07118236455
3.3,0.009570389179,-0.07144291562
3.31,0.006865413229,-0.07159347366
3.32,0.004158249058,-0.07163356313
3.33,0.001453785692,-0.07156293735
3.34,-0.001243050791,-0.07138158322
3.35,-0.003927309186,-0.07108972518
3.36,-0.00659402547,-0.07068782863
3.37,-0.009238235433,-0.07017660266
3.38,-0.0118549876,-0.06955700203
3.39,-0.0144393564,-0.06883022845
3.4,-0.01698645556,-0.06799773111
3.41,-0.01949145162,-0.06706120644
3.42,-0.02194957764,-0.06602259704
3.43,-0.02435614686,-0.06488408987
3.44,-0.02670656645,-0.06364811354
3.45,-0.02899635126,-0.06231733483
3.46,-0.03122113736,-0.06089465441
3.47,-0.03337669558,-0.05938320161
3.48,-0.03545894473,-0.05778632849
3.49,-0.03746396468,-0.056107603
3.5,-0.03938800906,-0.05435080136
3.51,-0.04122751765,-0.05251989961
3.52,-0.04297912837,-0.05061906442
3.53,-0.04463968875,-0.04865264307
3.54,-0.04620626696,-0.04662515269
3.55,-0.04767616226,-0.04454126887
3.56,-0.04904691482,-0.04240581344
3.57,-0.05031631489,-0.0402237417
3.58,-0.0514824113,-0.038000129
3.59,-0.05254351917,-0.03574015671
3.6,-0.05349822688,-0.03344909768
3.61,-0.05434540217,-0.03113230123
3.62,-0.05508419743,-0.02879517761
3.63,-0.05571405405,-0.02644318218
3.64,-0.05623470591,-0.02408179918
3.65,-0.05664618184,-0.02171652518
3.66,-0.0569488072,-0.0193528524
3.67,-0.05714320439,-0.01699625179
3.68,-0.0572302924,-0.01465215601
3.69,-0.05721128538,-0.01232594237
3.7,-0.05708769004,-0.01002291581
3.71,-0.05686130223,-0.007748291901
3.72,-0.05653420228,-0.005507180035
3.73,-0.0561087495,-0.003304566826
3.74,-0.05558757551,-0.00114529975
3.75,-0.05497357666,0.0009659288545
3.76,-0.05426990544,0.00302459739
3.77,-0.0534799609,0.005026370146
3.78,-0.05260737815,0.006967111915
3.79,-0.05165601696,0.008842902021
3.8,-0.0506299494,0.01065004771
3.81,-0.04953344677,0.01238509683
3.82,-0.04837096558,0.01404484978
3.83,-0.04714713288,0.01562637058
3.84,-0.04586673082,0.0171269972
3.85,-0.04453468056,0.01854435084
3.86,-0.0431560256,0.0198763444
3.87,-0.04173591449,0.02112118983
3.88,-0.04027958313,0.02227740455
3.89,-0.03879233659,0.02334381677
3.9,-0.03727953057,0.02431956968
3.91,-0.03574655259,0.02520412461
3.92,-0.03419880294,0.02599726293
3.93,-0.03264167541,0.02669908693
3.94,-0.03108053806,0.02731001941
3.95,-0.02952071385,0.02783080217
3.96,-0.02796746138,0.02826249324
3.97,-0.02642595581,0.02860646302
3.98,-0.02490126987,0.0288643892
3.99,-0.02339835527,0.02903825043
4,-0.02192202438,0.02913031902
4.01,-0.02047693237,0.02914315232
4.02,-0.01906755987,0.0290795831
4.03,-0.0176981961,0.0289427088
4.04,-0.01637292278,0.0287358798
4.05,-0.01509559863,0.02846268655
4.06,-0.01386984465,0.02812694587
4.07,-0.01269903031,0.02773268623
4.08,-0.0115862605,0.0272841322
4.09,-0.01053436354,0.02678568806
4.1,-0.009545880105,0.02624192066
4.11,-0.008623053258,0.02565754158
4.12,-0.007767819523,0.0250373886
4.13,-0.006981801118,0.02438640671
4.14,-0.006266299355,0.02370962846
4.15,-0.005622289244,0.02301215402
4.16,-0.005050415324,0.02229913082
4.17,-0.004550988757,0.02157573291
4.18,-0.004123985698,0.02084714012
4.19,-0.003769046954,0.02011851712
4.2,-0.003485478942,0.01939499237
4.21,-0.003272255956,0.01868163722
4.22,-0.003128023737,0.01798344505
4.23,-0.003051104341,0.01730531056
4.24,-0.003039502298,0.01665200952
4.25,-0.003090912039,0.01602817865
4.26,-0.003202726578,0.01543829617
4.27,-0.003372047419,0.01488666269
4.28,-0.003595695657,0.01437738281
4.29,-0.003870224237,0.01391434731
4.3,-0.004191931333,0.01350121621
4.31,-0.0045568748,0.01314140246
4.32,-0.004960887645,0.01283805673
4.33,-0.005399594474,0.01259405294
4.34,-0.005868428847,0.01241197498
4.35,-0.006362651479,0.01229410438
4.36,-0.006877369235,0.01224240912
4.37,-0.007407554826,0.01225853369
4.38,-0.007948067159,0.01234379026
4.39,-0.008493672246,0.01249915118
4.4,-0.009039064609,0.01272524277
4.41,-0.009578889088,0.01302234038
4.42,-0.01010776298,0.01339036489
4.43,-0.01062029842,0.01382888052
4.44,-0.01111112491,0.01433709405
4.45,-0.01157491196,0.01491385546
4.46,-0.01200639162,0.01555765995
4.47,-0.01240038105,0.0162666514
4.48,-0.01275180473,0.01703862717
4.49,-0.01305571656,0.01787104442
4.5,-0.01330732146,0.01876102764
4.51,-0.0135019966,0.01970537765
4.52,-0.01363531204,0.02070058192
4.53,-0.01370305083,0.0217428261
4.54,-0.0137012283,0.02282800694
4.55,-0.01362611066,0.02395174627
4.56,-0.01347423273,0.02510940631
4.57,-0.01324241473,0.02629610593
4.58,-0.01292777804,0.02750673813
4.59,-0.01252775997,0.02873598836
4.6,-0.01204012739,0.02997835394
4.61,-0.01146298909,0.03122816414
4.62,-0.01079480704,0.03247960127
4.63,-0.01003440624,0.0337267223
4.64,-0.009180983329,0.03496348121
4.65,-0.008234113785,0.0361837519
4.66,-0.007193757697,0.03738135148
4.67,-0.00606026415,0.03855006406
4.68,-0.00483437412,0.0396836647
4.69,-0.003517221899,0.04077594373
4.7,-0.002110335037,0.04182073097
4.71,-0.0006156327696,0.04281192018
4.72,0.0009645770353,0.04374349328
4.73,0.002627602439,0.0446095445
4.74,0.004370373471,0.04540430419
4.75,0.006189449644,0.0461221624
4.76,0.008081028911,0.04675769185
4.77,0.01004095805,0.04730567055
4.78,0.01206474443,0.04776110368
4.79,0.01414756912,0.0481192448
4.8,0.01628430137,0.04837561629
4.81,0.01846951423,0.04852602893
4.82,0.02069750148,0.0485666005
4.83,0.02296229569,0.04849377339
4.84,0.02525768732,0.04830433111
4.85,0.02757724489,0.04799541367
4.86,0.02991433606,0.04756453169
4.87,0.03226214961,0.04700957929
4.88,0.03461371822,0.04632884565
4.89,0.03696194192,0.04552102512
4.9,0.03929961222,0.044585226
4.91,0.04161943676,0.04352097785
4.92,0.0439140644,0.0423282372
4.93,0.04617611071,0.04100739193
4.94,0.04839818365,0.03955926392
4.95,0.05057290956,0.03798511028
4.96,0.05269295908,0.03628662297
4.97,0.05475107313,0.03446592679
4.98,0.0567400888,0.03252557593
4.99,0.05865296498,0.03046854885
5,0.06048280769,0.02829824166
5.01,0.06222289507,0.02601845996
5.02,0.06386670182,0.02363340919
5.03,0.06540792308,0.02114768352
5.04,0.06684049767,0.01856625324
5.05,0.06815863049,0.01589445088
5.06,0.06935681421,0.01313795583
5.07,0.07042984989,0.01030277781
5.08,0.07137286674,0.007395239002
5.09,0.0721813407,0.004421955078
5.1,0.07285111196,0.001389815061
5.11,0.07337840118,-0.001694039807
5.12,0.07375982453,-0.004822238184
5.13,0.07399240734,-0.007987201618
5.14,0.0740735964,-0.01118116836
5.15,0.07400127085,-0.01439621786
5.16,0.07377375151,-0.01762429594
5.17,0.07338980885,-0.02085724048
5.18,0.07284866928,-0.02408680756
5.19,0.07215001998,-0.02730469796
5.2,0.07129401211,-0.0305025839
5.21,0.07028126243,-0.033672136
5.22,0.0691128533,-0.03680505026
5.23,0.06779033113,-0.03989307504
5.24,0.06631570317,-0.04292803786
5.25,0.06469143275,-0.04590187209
5.26,0.06292043294,-0.04880664319
5.27,0.06100605866,-0.05163457467
5.28,0.05895209725,-0.05437807344
5.29,0.05676275756,-0.0570297546
5.3,0.05444265763,-0.05958246562
5.31,0.05199681087,-0.06202930961
5.32,0.049430611,-0.06436366787
5.33,0.04674981555,-0.06657922144
5.34,0.04396052828,-0.06866997163
5.35,0.04106918024,-0.07063025955
5.36,0.03808250986,-0.07245478436
5.37,0.03500754192,-0.07413862047
5.38,0.03185156558,-0.07567723328
5.39,0.0286221115,-0.07706649377
5.4,0.02532692822,-0.07830269157
5.41,0.02197395772,-0.07938254669
5.42,0.01857131041,-0.08030321977
5.43,0.01512723958,-0.08106232078
5.44,0.01165011538,-0.08165791627
5.45,0.008148398423,-0.08208853504
5.46,0.004630613159,-0.08235317219
5.47,0.001105321061,-0.08245129169
5.48,-0.002418906266,-0.08238282728
5.49,-0.005933513954,-0.08214818184
5.5,-0.00942999062,-0.08174822515
5.51,-0.01289989491,-0.08118429008
5.52,-0.01633488174,-0.08045816728
5.53,-0.01972672813,-0.07957209829
5.54,-0.02306735859,-0.07852876714
5.55,-0.02634886987,-0.07733129057
5.56,-0.02956355509,-0.07598320675
5.57,-0.03270392716,-0.07448846265
5.58,-0.03576274129,-0.07285140003
5.59,-0.03873301668,-0.07107674026
5.6,-0.04160805719,-0.06916956781
5.61,-0.044381471,-0.06713531267
5.62,-0.04704718911,-0.0649797316
5.63,-0.04959948273,-0.06270888844
5.64,-0.05203297943,-0.06032913342
5.65,-0.05434267796,-0.05784708162
5.66,-0.05652396181,-0.05526959069
5.67,-0.05857261137,-0.05260373775
5.68,-0.06048481468,-0.04985679583
5.69,-0.06225717677,-0.0470362096
5.7,-0.06388672752,-0.04414957081
5.71,-0.06537092802,-0.04120459331
5.72,-0.06670767548,-0.03820908775
5.73,-0.06789530659,-0.03517093622
5.74,-0.06893259939,-0.03209806675
5.75,-0.06981877361,-0.02899842779
5.76,-0.07055348955,-0.02587996282
5.77,-0.0711368454,-0.0227505852
5.78,-0.07156937318,-0.01961815318
5.79,-0.07185203314,-0.01649044539
5.8,-0.0719862068,-0.01337513672
5.81,-0.07197368859,-0.01027977475
5.82,-0.07181667615,-0.007211756759
5.83,-0.07151775927,-0.004178307522
5.84,-0.07107990769,-0.001186457758
5.85,-0.07050645755,0.001756976509
5.86,-0.06980109685,0.004645413703
5.87,-0.06896784968,0.007472525478
5.88,-0.06801105949,0.01023225447
5.89,-0.06693537147,0.01291883094
5.9,-0.06574571389,0.01552678831
5.91,-0.0644472788,0.01805097749
5.92,-0.06304550185,0.02048657997
5.93,-0.06154604153,0.02282911965
5.94,-0.05995475784,0.02507447339
5.95,-0.05827769043,0.02721888017
5.96,-0.0565210363,0.02925894898
5.97,-0.05469112724,0.03119166529
5.98,-0.05279440702,0.03301439613
5.99,-0.0508374083,0.0347248938
6,-0.04882672965,0.03632129821
