"Freq [GHz]","re(S(Tx_p1,Tx_p1)) []","im(S(Tx_p1,Tx_p1)) []"
1,-0.003230425501,-0.1217275606
1.01,-0.006860500678,-0.1193361522
1.02,-0.01035589925,-0.1168297575
1.03,-0.01371066214,-0.1142143938
1.04,-0.0169191759,-0.1114964999
1.05,-0.01997619768,-0.1086829103
1.06,-0.02287687855,-0.1057808286
1.07,-0.02561678511,-0.1027977995
1.08,-0.0281919193,-0.09974167996
1.09,-0.03059873641,-0.09662060973
1.1,-0.03283416137,-0.09344298116
1.11,-0.03489560309,-0.0902174083
1.12,-0.03678096695,-0.08695269547
1.13,-0.03848866552,-0.08365780547
1.14,-0.04001762721,-0.08034182737
1.15,-0.04136730319,-0.07701394404
1.16,-0.0425376723,-0.07368339961
1.17,-0.04352924408,-0.07035946677
1.18,-0.04434305994,-0.06705141412
1.19,-0.04498069242,-0.06376847373
1.2,-0.04544424255,-0.06051980883
1.21,-0.04573633543,-0.05731448186
1.22,-0.04586011393,-0.05416142299
1.23,-0.04581923064,-0.05106939902
1.24,-0.04561783799,-0.04804698307
1.25,-0.04526057678,-0.04510252476
1.26,-0.04475256289,-0.04224412135
1.27,-0.04409937249,-0.03947958964
1.28,-0.04330702557,-0.03681643889
1.29,-0.0423819681,-0.03426184467
1.3,-0.04133105254,-0.031822624
1.31,-0.0401615172,-0.02950521146
1.32,-0.03888096407,-0.02731563675
1.33,-0.03749733555,-0.02525950347
1.34,-0.03601888994,-0.02334196928
1.35,-0.0344541759,-0.02156772758
1.36,-0.03281200588,-0.01994099061
1.37,-0.03110142861,-0.01846547418
1.38,-0.02933170079,-0.01714438393
1.39,-0.02751225806,-0.01598040326
1.4,-0.02565268531,-0.01497568296
1.41,-0.02376268641,-0.01413183248
1.42,-0.0218520535,-0.013449913
1.43,-0.01993063599,-0.0129304322
1.44,-0.01800830917,-0.01257334083
1.45,-0.0160949428,-0.01237803105
1.46,-0.01420036951,-0.01234333654
1.47,-0.01233435334,-0.01246753441
1.48,-0.01050655833,-0.01274834887
1.49,-0.008726517425,-0.01318295669
1.5,-0.007003601644,-0.01376799435
1.51,-0.005346989704,-0.01449956701
1.52,-0.003765638166,-0.01537325908
1.53,-0.002268252192,-0.01638414653
1.54,-0.0008632570061,-0.01752681082
1.55,0.0004412298443,-0.01879535434
1.56,0.00163742535,-0.02018341753
1.57,0.002717906934,-0.02168419737
1.58,0.003675637297,-0.02329046737
1.59,0.004503988143,-0.02499459891
1.6,0.005196762703,-0.02678858389
1.61,0.005748216989,-0.02866405865
1.62,0.006153079714,-0.030612329
1.63,0.006406570809,-0.03262439643
1.64,0.006504418489,-0.03469098527
1.65,0.0064428748,-0.03680257082
1.66,0.006218729608,-0.03894940829
1.67,0.005829322982,-0.04112156254
1.68,0.00527255593,-0.04330893853
1.69,0.004546899452,-0.04550131224
1.7,0.003651401879,-0.04768836219
1.71,0.002585694486,-0.04985970129
1.72,0.001349995332,-0.05200490903
1.73,-5.488865573E-05,-0.05411356385
1.74,-0.001627561389,-0.05617527561
1.75,-0.003366039104,-0.05817971807
1.76,-0.005267753629,-0.06011666128
1.77,-0.007329557433,-0.06197600383
1.78,-0.009547730434,-0.06374780472
1.79,-0.01191798856,-0.0654223149
1.8,-0.014435494,-0.06699000836
1.81,-0.01709486724,-0.06844161262
1.82,-0.01989020064,-0.06976813852
1.83,-0.02281507373,-0.07096090933
1.84,-0.02586257004,-0.07201158897
1.85,-0.02902529552,-0.07291220932
1.86,-0.03229539834,-0.07365519651
1.87,-0.03566459026,-0.07423339615
1.88,-0.03912416923,-0.07464009733
1.89,-0.04266504337,-0.07486905545
1.9,-0.04627775618,-0.07491451373
1.91,-0.04995251288,-0.07477122327
1.92,-0.05367920782,-0.0744344618
1.93,-0.057447453,-0.0739000508
1.94,-0.06124660736,-0.07316437119
1.95,-0.06506580703,-0.07222437734
1.96,-0.06889399627,-0.07107760947
1.97,-0.07271995912,-0.06972220439
1.98,-0.07653235152,-0.0681569045
1.99,-0.08031973408,-0.06638106504
2,-0.08407060503,-0.06439465958
2.01,-0.08777343361,-0.06219828375
2.02,-0.09141669356,-0.05979315716
2.03,-0.09498889676,-0.05718112344
2.04,-0.09847862681,-0.05436464858
2.05,-0.1018745726,-0.05134681738
2.06,-0.1051655614,-0.04813132813
2.07,-0.1083405921,-0.0447224855
2.08,-0.1113888678,-0.04112519162
2.09,-0.1142998278,-0.0373449355
2.1,-0.117063179,-0.03338778059
2.11,-0.1196689271,-0.02926035081
2.12,-0.1221074064,-0.02496981479
2.13,-0.1243693091,-0.02052386863
2.14,-0.1264457136,-0.01593071697
2.15,-0.1283281118,-0.01119905265
2.16,-0.1300084352,-0.006338034933
2.17,-0.1314790798,-0.001357266218
2.18,-0.13273293,0.003733232431
2.19,-0.1337633806,0.008923047098
2.2,-0.1345643584,0.01420139797
2.21,-0.1351303413,0.01955716744
2.22,-0.1354563763,0.02497892916
2.23,-0.1355380964,0.03045497814
2.24,-0.135371735,0.03597336162
2.25,-0.1349541393,0.04152191079
2.26,-0.1342827818,0.04708827309
2.27,-0.1333557701,0.05265994522
2.28,-0.1321718547,0.05822430658
2.29,-0.1307304356,0.06376865309
2.3,-0.1290315663,0.06928023139
2.31,-0.1270759568,0.07474627318
2.32,-0.124864974,0.0801540297
2.33,-0.1224006407,0.08549080626
2.34,-0.1196856331,0.09074399659
2.35,-0.1167232754,0.09590111711
2.36,-0.1135175341,0.1009498408
2.37,-0.1100730087,0.105878031
2.38,-0.1063949225,0.1106737741
2.39,-0.1024891101,0.1153254124
2.4,-0.09836200432,0.1198215759
2.41,-0.09402062057,0.1241512133
2.42,-0.08947254025,0.1283036226
2.43,-0.08472589216,0.1322684799
2.44,-0.07978933257,0.1360358685
2.45,-0.07467202377,0.1395963052
2.46,-0.0693836111,0.1429407676
2.47,-0.06393419882,0.1460607177
2.48,-0.0583343245,0.1489481263
2.49,-0.05259493235,0.1515954951
2.5,-0.04672734527,0.1539958769
2.51,-0.040743236,0.1561428953
2.52,-0.03465459712,0.1580307624
2.53,-0.02847371029,0.1596542945
2.54,-0.02221311465,0.161008927
2.55,-0.01588557441,0.1620907266
2.56,-0.009504045954,0.1628964028
2.57,-0.003081644322,0.1634233171
2.58,0.003368390742,0.1636694901
2.59,0.009832729058,0.1636336076
2.6,0.01629798455,0.1633150243
2.61,0.02275074992,0.1627137658
2.62,0.0291776314,0.1618305289
2.63,0.03556528342,0.16066668
2.64,0.04190044317,0.1592242513
2.65,0.04816996492,0.1575059363
2.66,0.05436085399,0.1555150818
2.67,0.06046030028,0.1532556798
2.68,0.0664557113,0.1507323566
2.69,0.0723347446,0.1479503603
2.7,0.07808533943,0.1449155474
2.71,0.08369574766,0.1416343664
2.72,0.08915456381,0.1381138412
2.73,0.09445075407,0.1343615519
2.74,0.09957368437,0.1303856148
2.75,0.1045131472,0.1261946604
2.76,0.1092593873,0.1217978105
2.77,0.1138031263,0.117204654
2.78,0.1181355852,0.1124252206
2.79,0.1222485069,0.1074699548
2.8,0.1261341759,0.1023496874
2.81,0.1297854368,0.09707560698
2.82,0.1331957121,0.09165922992
2.83,0.1363590173,0.0861123698
2.84,0.1392699749,0.08044710601
2.85,0.1419238265,0.07467575164
2.86,0.1443164434,0.06881082088
2.87,0.1464443355,0.06286499591
2.88,0.1483046578,0.05685109342
2.89,0.1498952161,0.05078203079
2.9,0.15121447,0.04467079216
2.91,0.1522615347,0.03853039434
2.92,0.1530361809,0.03237385278
2.93,0.1535388323,0.02621414753
2.94,0.1537705623,0.02006418956
2.95,0.1537330882,0.01393678718
2.96,0.1534287641,0.007844612999
2.97,0.1528605713,0.001800171276
2.98,0.152032108,-0.004184234155
2.99,0.1509475769,-0.01009653128
3,0.1496117708,-0.01592491057
3.01,0.1480300571,-0.02165785483
3.02,0.1462083607,-0.02728416809
3.03,0.1441531453,-0.03279300357
3.04,0.1418713932,-0.03817389051
3.05,0.1393705839,-0.04341675994
3.06,0.1366586713,-0.04851196911
3.07,0.1337440598,-0.0534503248
3.08,0.1306355789,-0.05822310512
3.09,0.1273424572,-0.06282208007
3.1,0.1238742951,-0.06723953049
3.11,0.1202410364,-0.07146826565
3.12,0.1164529394,-0.07550163914
3.13,0.1125205471,-0.0793335633
3.14,0.1084546567,-0.08295852192
3.15,0.1042662885,-0.08637158132
3.16,0.09996665437,-0.08956839973
3.17,0.09556712589,-0.092545235
3.18,0.09107920189,-0.09529895045
3.19,0.08651447607,-0.09782701915
3.2,0.08188460441,-0.1001275263
3.21,0.0772012725,-0.1021991701
3.22,0.07247616299,-0.1040412603
3.23,0.06772092322,-0.1056537158
3.24,0.06294713302,-0.1070370601
3.25,0.05816627293,-0.1081924148
3.26,0.05338969288,-0.109121492
3.27,0.04862858129,-0.1098265844
3.28,0.04389393491,-0.1103105543
3.29,0.03919652929,-0.1105768211
3.3,0.03454689003,-0.1106293464
3.31,0.02995526496,-0.1104726184
3.32,0.02543159719,-0.1101116349
3.33,0.02098549922,-0.1095518843
3.34,0.01662622816,-0.1087993258
3.35,0.01236266207,-0.1078603679
3.36,0.008203277582,-0.1067418462
3.37,0.004156128731,-0.1054509998
3.38,0.0002288272296,-0.1039954463
3.39,-0.003571475922,-0.1023831564
3.4,-0.007238107347,-0.1006224273
3.41,-0.01076488672,-0.09872185539
3.42,-0.01414614063,-0.09669030796
3.43,-0.01737671492,-0.09453689452
3.44,-0.02045198538,-0.09227093737
3.45,-0.02336786678,-0.08990194183
3.46,-0.02612082036,-0.08743956598
3.47,-0.02870785953,-0.0848935901
3.48,-0.03112655393,-0.08227388597
3.49,-0.03337503185,-0.07959038598
3.5,-0.03545198086,-0.07685305227
3.51,-0.03735664688,-0.07407184589
3.52,-0.03908883142,-0.07125669614
3.53,-0.04064888728,-0.06841747018
3.54,-0.04203771256,-0.06556394294
3.55,-0.043256743,-0.06270576748
3.56,-0.04430794279,-0.05985244586
3.57,-0.04519379378,-0.05701330064
3.58,-0.04591728316,-0.054197447
3.59,-0.04648188964,-0.05141376569
3.6,-0.04689156827,-0.04867087682
3.61,-0.04715073372,-0.04597711451
3.62,-0.04726424236,-0.04334050261
3.63,-0.04723737302,-0.04076873147
3.64,-0.04707580648,-0.03826913582
3.65,-0.04678560385,-0.03584867384
3.66,-0.04637318389,-0.03351390754
3.67,-0.0458452993,-0.03127098441
3.68,-0.04520901199,-0.02912562044
3.69,-0.04447166764,-0.02708308456
3.7,-0.04364086935,-0.02514818455
3.71,-0.04272445065,-0.02332525443
3.72,-0.04173044788,-0.0216181434
3.73,-0.04066707205,-0.02003020628
3.74,-0.03954268022,-0.01856429563
3.75,-0.03836574659,-0.01722275544
3.76,-0.03714483323,-0.01600741637
3.77,-0.03588856075,-0.01491959275
3.78,-0.03460557875,-0.01396008113
3.79,-0.03330453641,-0.01312916049
3.8,-0.03199405302,-0.0124265941
3.81,-0.03068268888,-0.011851633
3.82,-0.02937891628,-0.0114030211
3.83,-0.02809109096,-0.01107900183
3.84,-0.02682742401,-0.01087732645
3.85,-0.02559595422,-0.0107952638
3.86,-0.02440452115,-0.01082961166
3.87,-0.02326073881,-0.01097670948
3.88,-0.0221719702,-0.01123245266
3.89,-0.02114530258,-0.01159230809
3.9,-0.02018752384,-0.01205133113
3.91,-0.0193050997,-0.0126041838
3.92,-0.01850415208,-0.01324515426
3.93,-0.01779043856,-0.01396817738
3.94,-0.01716933306,-0.01476685647
3.95,-0.01664580777,-0.01563448599
3.96,-0.01622441635,-0.01656407528
3.97,-0.01590927851,-0.0175483731
3.98,-0.01570406602,-0.01857989306
3.99,-0.01561199012,-0.01965093969
4,-0.01563579043,-0.02075363525
4.01,-0.01577772537,-0.02187994705
4.02,-0.01603956415,-0.02302171525
4.03,-0.01642258025,-0.02417068111
4.04,-0.01692754659,-0.02531851545
4.05,-0.01755473221,-0.02645684747
4.06,-0.01830390058,-0.02757729355
4.07,-0.01917430957,-0.02867148624
4.08,-0.02016471299,-0.02973110308
4.09,-0.02127336371,-0.03074789536
4.1,-0.02249801841,-0.03171371667
4.11,-0.02383594396,-0.03262055107
4.12,-0.02528392523,-0.03346054093
4.13,-0.02683827458,-0.03422601427
4.14,-0.02849484275,-0.03490951153
4.15,-0.0302490313,-0.03550381169
4.16,-0.03209580642,-0.0360019577
4.17,-0.0340297142,-0.03639728104
4.18,-0.03604489718,-0.03668342549
4.19,-0.03813511226,-0.03685436984
4.2,-0.04029374979,-0.03690444969
4.21,-0.0425138539,-0.0368283781
4.22,-0.04478814395,-0.03662126508
4.23,-0.04710903695,-0.03627863593
4.24,-0.0494686711,-0.03579644821
4.25,-0.05185893016,-0.03517110754
4.26,-0.0542714687,-0.03439948187
4.27,-0.05669773807,-0.03347891445
4.28,-0.05912901317,-0.03240723534
4.29,-0.06155641968,-0.03118277134
4.3,-0.06397096193,-0.02980435453
4.31,-0.06636355121,-0.02827132919
4.32,-0.06872503432,-0.02658355714
4.33,-0.07104622255,-0.02474142155
4.34,-0.07331792073,-0.02274582912
4.35,-0.07553095645,-0.02059821064
4.36,-0.07767620919,-0.01830051999
4.37,-0.07974463952,-0.01585523151
4.38,-0.08172731797,-0.01326533574
4.39,-0.08361545375,-0.01053433362
4.4,-0.08540042312,-0.007666229104
4.41,-0.0870737973,-0.004665520199
4.42,-0.08862736986,-0.001537188515
4.43,-0.0900531836,0.001713312704
4.44,-0.09134355662,0.005080072006
4.45,-0.09249110779,0.008556734571
4.46,-0.09348878126,0.01213651844
4.47,-0.09432987018,0.01581223208
4.48,-0.0950080393,0.0195762932
4.49,-0.09551734672,0.02342074884
4.5,-0.09585226434,0.0273372966
4.51,-0.09600769728,0.03131730695
4.52,-0.095979002,0.03535184666
4.53,-0.09576200314,0.03943170311
4.54,-0.09535300904,0.04354740956
4.55,-0.09474882592,0.04768927123
4.56,-0.09394677051,0.05184739214
4.57,-0.09294468136,0.05601170259
4.58,-0.09174092857,0.06017198731
4.59,-0.09033442199,0.06431791399
4.6,-0.08872461789,0.0684390624
4.61,-0.08691152405,0.07252495369
4.62,-0.08489570327,0.0765650801
4.63,-0.08267827521,0.0805489347
4.64,-0.08026091673,0.08446604129
4.65,-0.07764586052,0.0883059843
4.66,-0.07483589214,0.09205843855
4.67,-0.07183434551,0.0957131989
4.68,-0.06864509677,0.09926020951
4.69,-0.06527255653,0.1026895929
4.7,-0.06172166061,0.1059916786
4.71,-0.05799785927,0.1091570309
4.72,-0.05410710489,0.1121764764
4.73,-0.05005583824,0.1150411311
4.74,-0.04585097327,0.1177424259
4.75,-0.04149988054,0.120272132
4.76,-0.03701036937,0.122622385
4.77,-0.03239066863,0.1247857086
4.78,-0.02764940631,0.126755036
4.79,-0.02279558799,0.1285237321
4.8,-0.01783857412,0.1300856124
4.81,-0.0127880563,0.1314349623
4.82,-0.007654032557,0.1325665545
4.83,-0.002446781765,0.1334756649
4.84,0.002823162832,0.1341580873
4.85,0.008145040807,0.1346101468
4.86,0.01350789243,0.1348287118
4.87,0.01890058716,0.1348112038
4.88,0.02431185261,0.1345556067
4.89,0.02973030403,0.1340604738
4.9,0.03514447405,0.1333249335
4.91,0.04054284273,0.1323486935
4.92,0.04591386782,0.1311320431
4.93,0.05124601506,0.1296758541
4.94,0.05652778852,0.1279815804
4.95,0.06174776085,0.1260512551
4.96,0.06689460336,0.1238874869
4.97,0.07195711589,0.1214934548
4.98,0.07692425629,0.1188729003
4.99,0.08178516951,0.1160301195
5,0.08652921617,0.1129699524
5.01,0.09114600062,0.1096977714
5.02,0.09562539823,0.1062194683
5.03,0.09995758202,0.1025414395
5.04,0.1041330485,0.09867057007
5.05,0.1081426424,0.09461421678
5.06,0.1119775809,0.09038018911
5.07,0.1156294765,0.08597672971
5.08,0.1190903586,0.0814124933
5.09,0.1223526946,0.07669652467
5.1,0.1254094092,0.07183823546
5.11,0.1282539025,0.06684738004
5.12,0.1308800674,0.06173403049
5.13,0.1332823046,0.05650855066
5.14,0.1354555375,0.05118156955
5.15,0.1373952242,0.04576395392
5.16,0.1390973694,0.04026678032
5.17,0.1405585338,0.03470130656
5.18,0.1417758428,0.02907894277
5.19,0.1427469928,0.02341122202
5.2,0.1434702567,0.01770977072
5.21,0.1439444872,0.01198627871
5.22,0.1441691192,0.006252469388
5.23,0.14414417,0.0005200696166
5.24,0.1438702383,-0.005199220186
5.25,0.1433485012,-0.0108937559
5.26,0.1425807105,-0.01655197929
5.27,0.1415691863,-0.02216244739
5.28,0.14031681,-0.02771386135
5.29,0.1388270154,-0.033195095
5.3,0.1371037783,-0.03859522278
5.31,0.1351516047,-0.04390354702
5.32,0.132975518,-0.04910962467
5.33,0.130581044,-0.05420329307
5.34,0.1279741952,-0.0591746951
5.35,0.1251614538,-0.06401430324
5.36,0.1221497531,-0.06871294279
5.37,0.1189464583,-0.07326181399
5.38,0.1155593457,-0.07765251309
5.39,0.1119965809,-0.08187705224
5.4,0.1082666964,-0.0859278782
5.41,0.1043785678,-0.08979788981
5.42,0.1003413895,-0.09348045414
5.43,0.09616464935,-0.09696942136
5.44,0.09185810309,-0.1002591381
5.45,0.08743174741,-0.1033444597
5.46,0.08289579305,-0.1062207606
5.47,0.07826063725,-0.1088839436
5.48,0.07353683577,-0.1113304476
5.49,0.06873507461,-0.1135572536
5.5,0.06386614154,-0.1155618896
5.51,0.05894089742,-0.1173424334
5.52,0.05397024751,-0.1188975148
5.53,0.04896511271,-0.1202263151
5.54,0.04393640103,-0.1213285659
5.55,0.03889497904,-0.1222045462
5.56,0.03385164378,-0.1228550784
5.57,0.02881709485,-0.1232815214
5.58,0.02380190695,-0.1234857645
5.59,0.01881650298,-0.1234702175
5.6,0.01387112758,-0.1232378014
5.61,0.008975821413,-0.1227919364
5.62,0.004140396062,-0.1221365293
5.63,-0.0006255902191,-0.1212759592
5.64,-0.005312855976,-0.1202150624
5.65,-0.00991241909,-0.1189591155
5.66,-0.01441561836,-0.1175138182
5.67,-0.01881413408,-0.115885274
5.68,-0.02310000751,-0.1140799709
5.69,-0.02726565922,-0.1121047606
5.7,-0.03130390634,-0.1099668365
5.71,-0.03520797847,-0.1076737117
5.72,-0.03897153241,-0.1052331957
5.73,-0.04258866561,-0.1026533704
5.74,-0.04605392822,-0.09994256533
5.75,-0.04936233385,-0.09710933324
5.76,-0.05250936895,-0.09416242401
5.77,-0.05549100071,-0.09111075891
5.78,-0.05830368366,-0.08796340437
5.79,-0.06094436475,-0.08472954545
5.8,-0.06341048701,-0.08141845918
5.81,-0.06569999184,-0.07803948788
5.82,-0.06781131974,-0.07460201236
5.83,-0.06974340973,-0.07111542525
5.84,-0.07149569723,-0.0675891045
5.85,-0.0730681106,-0.06403238703
5.86,-0.07446106628,-0.06045454276
5.87,-0.07567546249,-0.05686474897
5.88,-0.07671267168,-0.05327206508
5.89,-0.07757453157,-0.04968540801
5.9,-0.07826333496,-0.04611352807
5.91,-0.07878181823,-0.04256498553
5.92,-0.07913314868,-0.03904812794
5.93,-0.07932091071,-0.03557106813
5.94,-0.07934909078,-0.03214166318
5.95,-0.07922206143,-0.02876749419
5.96,-0.07894456417,-0.02545584706
5.97,-0.07852169147,-0.02221369426
5.98,-0.07795886782,-0.01904767764
5.99,-0.07726182993,-0.01596409237
6,-0.07643660615,-0.012968872
