"Freq [GHz]","re(S(Tx_p1,Tx_p1)) []","im(S(Tx_p1,Tx_p1)) []"
1,-0.02214079888,-0.03963209321
1.01,-0.02310272433,-0.03771122369
1.02,-0.02395506316,-0.03577245092
1.03,-0.024697247,-0.03382174443
1.04,-0.02532907669,-0.03186511575
1.05,-0.02585072337,-0.02990859327
1.06,-0.02626272794,-0.02795819728
1.07,-0.02656599894,-0.02601991535
1.08,-0.02676180882,-0.02409967805
1.09,-0.02685178878,-0.02220333515
1.1,-0.02683792204,-0.02033663241
1.11,-0.02672253569,-0.01850518899
1.12,-0.02650829125,-0.01671447554
1.13,-0.02619817376,-0.01496979317
1.14,-0.02579547969,-0.01327625324
1.15,-0.02530380368,-0.01163875806
1.16,-0.02472702406,-0.01006198267
1.17,-0.02406928737,-0.008550357618
1.18,-0.02333499188,-0.007108052902
1.19,-0.02252877019,-0.005738963055
1.2,-0.02165547102,-0.004446693458
1.21,-0.02072014023,-0.003234547915
1.22,-0.01972800123,-0.002105517514
1.23,-0.01868443473,-0.001062270816
1.24,-0.01759495809,-0.00010714539
1.25,-0.01646520423,0.0007578592801
1.26,-0.01530090021,0.001531087513
1.27,-0.01410784563,0.002211231754
1.28,-0.01289189089,0.002797335509
1.29,-0.01165891534,0.003288794886
1.3,-0.01041480561,0.003685358762
1.31,-0.009165433892,0.003987127577
1.32,-0.007916636606,0.004194550784
1.33,-0.006674193244,0.004308422972
1.34,-0.005443805645,0.004329878695
1.35,-0.004231077717,0.004260386045
1.36,-0.003041495682,0.004101738991
1.37,-0.001880408932,0.003856048553
1.38,-0.0007530115593,0.003525732831
1.39,0.0003356753803,0.003113505963
1.4,0.001380820798,0.002622366046
1.41,0.002377799643,0.0020555821
1.42,0.003322208069,0.001416680118
1.43,0.004209877621,0.0007094282764
1.44,0.005036888435,-6.21786294E-05
1.45,0.005799581369,-0.0008939354571
1.46,0.006494569068,-0.001781443622
1.47,0.007118745895,-0.002720128564
1.48,0.007669296736,-0.003705257702
1.49,0.008143704633,-0.0047319588
1.5,0.00853975724,-0.005795238668
1.51,0.008855552089,-0.006890002127
1.52,0.009089500656,-0.008011071146
1.53,0.00924033123,-0.0091532041
1.54,0.00930709059,-0.01031111505
1.55,0.009289144485,-0.01147949296
1.56,0.009186176952,-0.01265302086
1.57,0.008998188463,-0.01382639472
1.58,0.008725492948,-0.01499434218
1.59,0.008368713704,-0.01615164083
1.6,0.00792877822,-0.01729313617
1.61,0.007406911966,-0.01841375914
1.62,0.006804631168,-0.019508543
1.63,0.006123734619,-0.02057263979
1.64,0.005366294568,-0.02160133605
1.65,0.00453464674,-0.02259006789
1.66,0.003631379523,-0.02353443532
1.67,0.002659322399,-0.02443021582
1.68,0.001621533651,-0.02527337707
1.69,0.000521287416,-0.02606008885
1.7,-0.0006379398561,-0.02678673401
1.71,-0.001852483484,-0.02744991859
1.72,-0.003118505105,-0.02804648094
1.73,-0.004432007645,-0.02857349993
1.74,-0.005788850623,-0.02902830212
1.75,-0.007184765752,-0.02940846804
1.76,-0.008615372747,-0.02971183735
1.77,-0.0100761953,-0.02993651313
1.78,-0.01156267714,-0.0300808651
1.79,-0.0130701981,-0.03014353184
1.8,-0.01459409022,-0.03012342207
1.81,-0.01612965367,-0.03001971494
1.82,-0.01767217255,-0.02983185936
1.83,-0.01921693053,-0.02955957241
1.84,-0.02075922616,-0.02920283683
1.85,-0.02229438788,-0.02876189763
1.86,-0.02381778866,-0.02823725787
1.87,-0.02532486024,-0.02762967356
1.88,-0.02681110689,-0.02694014785
1.89,-0.02827211865,-0.02616992444
1.9,-0.02970358403,-0.02532048027
1.91,-0.03110130214,-0.02439351756
1.92,-0.03246119421,-0.02339095529
1.93,-0.03377931441,-0.02231491997
1.94,-0.03505186004,-0.02116773606
1.95,-0.03627518103,-0.01995191577
1.96,-0.03744578864,-0.01867014855
1.97,-0.03856036357,-0.01732529009
1.98,-0.03961576314,-0.01592035111
1.99,-0.04060902788,-0.0144584858
2,-0.04153738724,-0.0129429801
2.01,-0.04239826457,-0.01137723974
2.02,-0.04318928136,-0.009764778217
2.03,-0.04390826065,-0.008109204689
2.04,-0.04455322979,-0.006414211837
2.05,-0.04512242231,-0.004683563765
2.06,-0.0456142792,-0.002921083967
2.07,-0.04602744938,-0.001130643413
2.08,-0.04636078951,0.0006838511997
2.09,-0.04661336312,0.002518469001
2.1,-0.04678443906,0.004369266254
2.11,-0.04687348941,0.006232297386
2.12,-0.04688018664,0.008103625708
2.13,-0.04680440038,0.009979333787
2.14,-0.04664619351,0.01185553344
2.15,-0.04640581784,0.01372837534
2.16,-0.04608370925,0.01559405818
2.17,-0.04568048248,0.01744883738
2.18,-0.04519692545,0.01928903337
2.19,-0.04463399323,0.02111103934
2.2,-0.04399280179,0.02291132853
2.21,-0.04327462129,0.02468646098
2.22,-0.04248086931,0.02643308977
2.23,-0.04161310374,0.02814796682
2.24,-0.04067301559,0.02982794802
2.25,-0.0396624216,0.03146999796
2.26,-0.0385832568,0.03307119409
2.27,-0.03743756704,0.0346287304
2.28,-0.03622750141,0.03613992055
2.29,-0.03495530473,0.03760220051
2.3,-0.03362331012,0.0390131308
2.31,-0.03223393155,0.04037039815
2.32,-0.03078965655,0.04167181676
2.33,-0.02929303906,0.04291532917
2.34,-0.02774669243,0.04409900662
2.35,-0.02615328253,0.04522104912
2.36,-0.0245155212,0.0462797851
2.37,-0.02283615979,0.04727367069
2.38,-0.02111798299,0.04820128876
2.39,-0.01936380295,0.04906134762
2.4,-0.01757645359,0.04985267942
2.41,-0.01575878526,0.05057423841
2.42,-0.01391365962,0.05122509886
2.43,-0.01204394488,0.05180445292
2.44,-0.01015251125,0.05231160823
2.45,-0.008242226808,0.05274598548
2.46,-0.006315953507,0.05310711577
2.47,-0.004376543624,0.05339463798
2.48,-0.002426836402,0.05360829606
2.49,-0.0004696550184,0.05374793628
2.5,0.001492196193,0.05381350448
2.51,0.003455934249,0.05380504336
2.52,0.005418799773,0.05372268978
2.53,0.007378059018,0.05356667215
2.54,0.009331005665,0.05333730787
2.55,0.01127496242,0.0530350009
2.56,0.0132072824,0.05266023938
2.57,0.0151253504,0.05221359346
2.58,0.01702658396,0.05169571317
2.59,0.01890843431,0.05110732651
2.6,0.02076838725,0.05044923764
2.61,0.02260396384,0.04972232524
2.62,0.02441272119,0.04892754108
2.63,0.02619225301,0.04806590865
2.64,0.02794019028,0.04713852205
2.65,0.02965420185,0.04614654498
2.66,0.03133199507,0.0450912099
2.67,0.03297131648,0.04397381735
2.68,0.03456995249,0.04279573541
2.69,0.03612573023,0.04155839926
2.7,0.03763651841,0.04026331091
2.71,0.03910022833,0.03891203898
2.72,0.04051481498,0.03750621862
2.73,0.04187827833,0.0360475515
2.74,0.04318866472,0.03453780582
2.75,0.04444406842,0.0329788164
2.76,0.04564263338,0.03137248481
2.77,0.04678255511,0.02972077942
2.78,0.0478620828,0.02802573554
2.79,0.04887952159,0.02628945544
2.8,0.04983323498,0.02451410833
2.81,0.05072164754,0.02270193029
2.82,0.0515432477,0.02085522402
2.83,0.05229659073,0.01897635857
2.84,0.05298030197,0.01706776881
2.85,0.05359308011,0.01513195482
2.86,0.0541337007,0.01317148101
2.87,0.0546010198,0.01118897511
2.88,0.0549939777,0.009187126863
2.89,0.0553116028,0.007168686496
2.9,0.05555301558,0.00513646294
2.91,0.05571743258,0.003093321742
2.92,0.05580417057,0.001042182695
2.93,0.05581265059,-0.001013982841
2.94,0.05574240207,-0.003072154939
2.95,0.055593067,-0.005129268435
2.96,0.05536440391,-0.007182216594
2.97,0.0550562919,-0.009227855112
2.98,0.05466873454,-0.01126300647
2.99,0.05420186358,-0.01328446464
3,0.05365594262,-0.01528900012
3.01,0.05303137051,-0.01727336531
3.02,0.05232868457,-0.01923430026
3.03,0.05154856354,-0.02116853871
3.04,0.05069183033,-0.02307281445
3.05,0.0497594544,-0.02494386802
3.06,0.04875255382,-0.02677845366
3.07,0.04767239707,-0.02857334659
3.08,0.0465204043,-0.03032535048
3.09,0.04529814836,-0.03203130519
3.1,0.04400735528,-0.03368809476
3.11,0.04264990434,-0.03529265551
3.12,0.04122782773,-0.03684198435
3.13,0.0397433096,-0.03833314724
3.14,0.0381986847,-0.03976328768
3.15,0.0365964365,-0.04112963534
3.16,0.03493919471,-0.04242951468
3.17,0.03322973233,-0.04366035361
3.18,0.0314709621,-0.04481969207
3.19,0.02966593241,-0.04590519055
3.2,0.02781782267,-0.04691463857
3.21,0.02592993807,-0.04784596286
3.22,0.02400570383,-0.04869723552
3.23,0.02204865886,-0.04946668186
3.24,0.02006244893,-0.05015268794
3.25,0.0180508192,-0.05075380795
3.26,0.01601760633,-0.05126877109
3.27,0.01396673005,-0.05169648816
3.28,0.01190218421,-0.05203605769
3.29,0.00982802738,-0.05228677168
3.3,0.007748373055,-0.05244812075
3.31,0.005667379351,-0.05251979885
3.32,0.00358923839,-0.0525017074
3.33,0.00151816529,-0.05239395881
3.34,-0.0005416131519,-0.0521968794
3.35,-0.002585870072,-0.05191101169
3.36,-0.004610390395,-0.05153711605
3.37,-0.006610982902,-0.05107617158
3.38,-0.008583492463,-0.05052937633
3.39,-0.01052381239,-0.04989814684
3.4,-0.01242789686,-0.04918411686
3.41,-0.01429177341,-0.04838913535
3.42,-0.01611155536,-0.04751526376
3.43,-0.01788345419,-0.04656477246
3.44,-0.01960379184,-0.04554013647
3.45,-0.0212690128,-0.04444403044
3.46,-0.02287569602,-0.04327932277
3.47,-0.02442056652,-0.0420490691
3.48,-0.02590050674,-0.04075650494
3.49,-0.02731256751,-0.03940503769
3.5,-0.02865397856,-0.03799823784
3.51,-0.02992215865,-0.03653982952
3.52,-0.03111472517,-0.03503368043
3.53,-0.03222950315,-0.03348379107
3.54,-0.03326453375,-0.03189428336
3.55,-0.03421808205,-0.03026938873
3.56,-0.03508864418,-0.02861343566
3.57,-0.0358749538,-0.02693083667
3.58,-0.03657598771,-0.02522607493
3.59,-0.03719097081,-0.02350369038
3.6,-0.03771938014,-0.02176826555
3.61,-0.03816094817,-0.02002441102
3.62,-0.03851566511,-0.01827675064
3.63,-0.03878378051,-0.01652990649
3.64,-0.03896580374,-0.01478848377
3.65,-0.03906250377,-0.01305705547
3.66,-0.03907490784,-0.01134014711
3.67,-0.03900429929,-0.009642221401
3.68,-0.03885221447,-0.007967663033
3.69,-0.0386204386,-0.006320763569
3.7,-0.03831100082,-0.004705706535
3.71,-0.03792616825,-0.00312655276
3.72,-0.03746843912,-0.001587226024
3.73,-0.03694053501,-9.149907182E-05
3.74,-0.03634539227,0.001357019942
3.75,-0.03568615248,0.002754900531
3.76,-0.03496615216,0.004098902417
3.77,-0.03418891161,0.005385987469
3.78,-0.03335812308,0.006613331009
3.79,-0.0324776381,0.007778332413
3.8,-0.03155145421,0.008878624974
3.81,-0.03058370098,0.009912084969
3.82,-0.02957862552,0.0108768399
3.83,-0.02854057732,0.01177127588
3.84,-0.02747399271,0.01259404403
3.85,-0.02638337886,0.01334406607
3.86,-0.02527329733,0.01402053881
3.87,-0.02414834738,0.01462293768
3.88,-0.02301314898,0.01515101929
3.89,-0.02187232567,0.01560482285
3.9,-0.02073048722,0.01598467064
3.91,-0.0195922123,0.01629116728
3.92,-0.01846203109,0.01652519808
3.93,-0.01734440801,0.01668792617
3.94,-0.01624372458,0.01678078864
3.95,-0.01516426246,0.01680549157
3.96,-0.01411018679,0.01676400405
3.97,-0.01308552986,0.01665855104
3.98,-0.0120941752,0.01649160537
3.99,-0.01113984213,0.01626587856
4,-0.01022607088,0.01598431084
4.01,-0.009356208229,0.01565006004
4.02,-0.008533393931,0.01526648975
4.03,-0.00776054774,0.01483715648
4.04,-0.007040357285,0.01436579604
4.05,-0.006375266743,0.01385630918
4.06,-0.005767466401,0.01331274645
4.07,-0.005218883139,0.01273929236
4.08,-0.004731171895,0.01214024903
4.09,-0.004305708126,0.01152001918
4.1,-0.00394358133,0.01088308864
4.11,-0.003645589645,0.0102340085
4.12,-0.003412235555,0.00957737681
4.13,-0.003243722734,0.008917820041
4.14,-0.003139954048,0.008259974294
4.15,-0.003100530722,0.007608466376
4.16,-0.003124752691,0.006967894789
4.17,-0.003211620144,0.006342810719
4.18,-0.003359836256,0.005737699091
4.19,-0.003567811105,0.005156959777
4.2,-0.003833666777,0.004604889018
4.21,-0.004155243636,0.004085661146
4.22,-0.004530107744,0.003603310669
4.23,-0.004955559414,0.003161714806
4.24,-0.00542864287,0.002764576523
4.25,-0.005946156971,0.002415408165
4.26,-0.006504666984,0.002117515731
4.27,-0.007100517346,0.001873983863
4.28,-0.007729845389,0.001687661625
4.29,-0.008388595967,0.001561149118
4.3,-0.009072536939,0.001496784987
4.31,-0.009777275454,0.001496634895
4.32,-0.01049827497,0.001562480993
4.33,-0.01123087298,0.001695812441
4.34,-0.01197029929,0.00189781703
4.35,-0.01271169491,0.002169373937
4.36,-0.0134501314,0.002511047649
4.37,-0.01418063059,0.002923083092
4.38,-0.01489818465,0.003405401983
4.39,-0.01559777642,0.003957600435
4.4,-0.01627439989,0.004578947828
4.41,-0.01692308082,0.005268386956
4.42,-0.0175388973,0.006024535461
4.43,-0.01811700028,0.006845688551
4.44,-0.01865263401,0.007729823009
4.45,-0.01914115616,0.008674602466
4.46,-0.01957805767,0.009677383947
4.47,-0.01995898226,0.01073522565
4.48,-0.02027974539,0.01184489598
4.49,-0.02053635274,0.01300288369
4.5,-0.02072501809,0.01420540932
4.51,-0.02084218042,0.0154484376
4.52,-0.02088452038,0.01672769106
4.53,-0.02084897583,0.01803866462
4.54,-0.02073275653,0.01937664116
4.55,-0.0205333579,0.020736708
4.56,-0.02024857372,0.02211377431
4.57,-0.01987650782,0.02350258929
4.58,-0.01941558457,0.02489776105
4.59,-0.01886455833,0.02629377623
4.6,-0.0182225216,0.02768502018
4.61,-0.01748891196,0.02906579768
4.62,-0.01666351771,0.03043035409
4.63,-0.01574648227,0.0317728969
4.64,-0.0147383072,0.03308761749
4.65,-0.01363985389,0.03436871323
4.66,-0.01245234387,0.03561040958
4.67,-0.01117735783,0.03680698227
4.68,-0.00981683317,0.03795277942
4.69,-0.008373060265,0.03904224359
4.7,-0.006848677337,0.04006993354
4.71,-0.005246663994,0.04103054569
4.72,-0.003570333438,0.04191893528
4.73,-0.001823323379,0.04273013695
4.74,-9.585675632E-06,0.04345938488
4.75,0.001866625269,0.04410213222
4.76,0.003800765303,0.04465406987
4.77,0.005788014479,0.04511114449
4.78,0.00782329212,0.04546957562
4.79,0.009901272937,0.04572587193
4.8,0.01201640414,0.04587684645
4.81,0.01416292352,0.04591963081
4.82,0.01633487832,0.04585168834
4.83,0.01852614503,0.04567082602
4.84,0.02073044984,0.04537520526
4.85,0.02294138974,0.04496335144
4.86,0.02515245427,0.04443416206
4.87,0.0273570477,0.04378691374
4.88,0.0295485117,0.04302126774
4.89,0.03172014832,0.04213727413
4.9,0.03386524318,0.04113537461
4.91,0.0359770889,0.04001640385
4.92,0.0380490086,0.03878158947
4.93,0.04007437932,0.03743255059
4.94,0.04204665545,0.03597129489
4.95,0.04395939192,0.03440021434
4.96,0.04580626713,0.03272207949
4.97,0.0475811055,0.03094003233
4.98,0.04927789969,0.02905757792
4.99,0.05089083214,0.02707857449
5,0.05241429615,0.02500722243
5.01,0.05384291618,0.02284805189
5.02,0.05517156747,0.0206059092
5.03,0.05639539475,0.01828594216
5.04,0.05750983013,0.01589358409
5.05,0.05851060996,0.01343453699
5.06,0.05939379066,0.01091475353
5.07,0.06015576351,0.008340418204
5.08,0.06079326822,0.005717927572
5.09,0.06130340537,0.003053869727
5.1,0.06168364751,0.0003550030138
5.11,0.0619318491,-0.002371765888
5.12,0.062046255,-0.005119404448
5.13,0.06202550764,-0.007880777258
5.14,0.06186865286,-0.01064866941
5.15,0.06157514425,-0.01341581017
5.16,0.06114484613,-0.01617489692
5.17,0.06057803505,-0.01891861921
5.18,0.05987539987,-0.02163968289
5.19,0.05903804041,-0.02433083418
5.2,0.05806746461,-0.02698488363
5.21,0.05696558431,-0.0295947299
5.22,0.05573470958,-0.03215338322
5.23,0.05437754171,-0.03465398844
5.24,0.05289716475,-0.03708984769
5.25,0.05129703578,-0.03945444241
5.26,0.04958097388,-0.04174145484
5.27,0.0477531478,-0.04394478872
5.28,0.04581806243,-0.04605858926
5.29,0.04378054417,-0.04807726229
5.3,0.04164572507,-0.04999549238
5.31,0.03941902605,-0.05180826012
5.32,0.03710613904,-0.05351085822
5.33,0.03471300826,-0.05509890661
5.34,0.03224581057,-0.05656836634
5.35,0.02971093516,-0.05791555223
5.36,0.02711496243,-0.05913714438
5.37,0.02446464229,-0.06023019829
5.38,0.02176687192,-0.06119215373
5.39,0.01902867303,-0.06202084218
5.4,0.0162571688,-0.062714493
5.41,0.01345956045,-0.06327173808
5.42,0.0106431037,-0.06369161522
5.43,0.007815084952,-0.06397356995
5.44,0.004982797621,-0.06411745605
5.45,0.002153518366,-0.06412353459
5.46,-0.0006655164689,-0.06399247157
5.47,-0.003467134215,-0.06372533414
5.48,-0.006244248935,-0.06332358552
5.49,-0.008989884087,-0.06278907848
5.5,-0.01169719473,-0.0621240475
5.51,-0.01435948916,-0.06133109971
5.52,-0.01697024996,-0.06041320449
5.53,-0.01952315432,-0.05937368186
5.54,-0.02201209361,-0.05821618978
5.55,-0.02443119208,-0.05694471028
5.56,-0.02677482471,-0.05556353447
5.57,-0.02903763406,-0.05407724666
5.58,-0.03121454612,-0.05249070748
5.59,-0.03330078505,-0.05080903613
5.6,-0.03529188688,-0.04903759181
5.61,-0.03718371194,-0.04718195444
5.62,-0.03897245614,-0.04524790472
5.63,-0.04065466105,-0.04324140359
5.64,-0.04222722259,-0.04116857117
5.65,-0.04368739856,-0.03903566532
5.66,-0.04503281472,-0.03684905982
5.67,-0.04626146968,-0.03461522227
5.68,-0.0473717383,-0.03234069183
5.69,-0.04836237382,-0.03003205689
5.7,-0.0492325087,-0.02769593263
5.71,-0.04998165396,-0.02533893877
5.72,-0.05060969731,-0.02296767735
5.73,-0.05111689995,-0.0205887108
5.74,-0.05150389202,-0.01820854031
5.75,-0.0517716668,-0.01583358457
5.76,-0.05192157369,-0.01347015897
5.77,-0.05195530996,-0.01112445536
5.78,-0.0518749113,-0.008802522355
5.79,-0.05168274129,-0.006510246368
5.8,-0.05138147977,-0.004253333376
5.81,-0.05097411015,-0.002037291452
5.82,-0.0504639058,0.0001325858084
5.83,-0.04985441546,0.002251234967
5.84,-0.0491494478,0.004313837446
5.85,-0.04835305523,0.006315833217
5.86,-0.04746951694,0.008252933442
5.87,-0.04650332128,0.010121132
5.88,-0.04545914754,0.01191671592
5.89,-0.04434184725,0.01363627459
5.9,-0.04315642501,0.01527670783
5.91,-0.04190801891,0.01683523277
5.92,-0.04060188075,0.01830938944
5.93,-0.03924335596,0.01969704519
5.94,-0.03783786341,0.02099639783
5.95,-0.03639087516,0.02220597754
5.96,-0.03490789619,0.02332464755
5.97,-0.03339444429,0.02435160356
5.98,-0.03185603005,0.02528637198
5.99,-0.03029813709,0.02612880695
6,-0.02872620264,0.02687908613
