"Freq [GHz]","re(S(Tx_p1,Tx_p1)) []","im(S(Tx_p1,Tx_p1)) []"
1,0.04203236971,-0.07528427351
1.01,0.0400193423,-0.0751907532
1.02,0.03802423417,-0.07505107829
1.03,0.03604930293,-0.07486501574
1.04,0.03409682952,-0.07463253981
1.05,0.03216910424,-0.07435382932
1.06,0.03026841313,-0.07402926421
1.07,0.02839702463,-0.07365942155
1.08,0.02655717666,-0.07324507101
1.09,0.02475106401,-0.07278716972
1.1,0.02298082611,-0.07228685663
1.11,0.02124853528,-0.07174544625
1.12,0.01955618538,-0.07116442188
1.13,0.01790568092,-0.07054542835
1.14,0.01629882672,-0.06989026421
1.15,0.01473731796,-0.06920087344
1.16,0.01322273096,-0.0684793367
1.17,0.01175651433,-0.06772786213
1.18,0.01033998083,-0.06694877575
1.19,0.008974299826,-0.0661445114
1.2,0.007660490312,-0.06531760042
1.21,0.006399414647,-0.0644706609
1.22,0.00519177293,-0.06360638666
1.23,0.004038098064,-0.06272753601
1.24,0.002938751512,-0.06183692017
1.25,0.001893919778,-0.06093739159
1.26,0.0009036115965,-0.06003183208
1.27,-3.23441372E-05,-0.05912314077
1.28,-0.0009142997017,-0.05821422207
1.29,-0.00174278914,-0.05730797351
1.3,-0.002518528102,-0.05640727367
1.31,-0.003242412942,-0.05551497002
1.32,-0.00391551907,-0.05463386697
1.33,-0.004539098564,-0.05376671398
1.34,-0.005114577048,-0.05291619384
1.35,-0.005643549841,-0.05208491119
1.36,-0.006127777404,-0.05127538123
1.37,-0.006569180074,-0.05049001878
1.38,-0.006969832131,-0.04973112766
1.39,-0.007331955191,-0.04900089041
1.4,-0.007657910959,-0.04830135845
1.41,-0.007950193371,-0.04763444271
1.42,-0.008211420135,-0.04700190465
1.43,-0.008444323718,-0.04640534796
1.44,-0.00865174179,-0.04584621064
1.45,-0.008836607181,-0.04532575782
1.46,-0.009001937355,-0.04484507507
1.47,-0.009150823476,-0.04440506246
1.48,-0.009286419063,-0.04400642922
1.49,-0.009411928309,-0.04364968915
1.5,-0.009530594082,-0.04333515669
1.51,-0.009645685669,-0.04306294378
1.52,-0.009760486286,-0.04283295746
1.53,-0.009878280423,-0.04264489824
1.54,-0.01000234105,-0.04249825921
1.55,-0.01013591675,-0.04239232603
1.56,-0.01028221881,-0.04232617763
1.57,-0.01044440832,-0.04229868775
1.58,-0.01062558335,-0.04230852728
1.59,-0.01082876621,-0.04235416739
1.6,-0.01105689093,-0.04243388346
1.61,-0.01131279086,-0.04254575979
1.62,-0.0115991866,-0.04268769508
1.63,-0.01191867419,-0.04285740866
1.64,-0.01227371368,-0.04305244751
1.65,-0.0126666181,-0.04327019393
1.66,-0.01309954283,-0.04350787396
1.67,-0.01357447547,-0.04376256647
1.68,-0.01409322632,-0.04403121287
1.69,-0.01465741925,-0.04431062743
1.7,-0.01526848339,-0.04459750826
1.71,-0.0159276453,-0.04488844872
1.72,-0.01663592186,-0.04517994941
1.73,-0.01739411393,-0.0454684306
1.74,-0.0182028007,-0.04575024514
1.75,-0.01906233478,-0.04602169162
1.76,-0.01997283813,-0.04627902804
1.77,-0.02093419883,-0.0465184856
1.78,-0.02194606857,-0.04673628286
1.79,-0.02300786115,-0.04692864
1.8,-0.02411875169,-0.04709179322
1.81,-0.02527767682,-0.04722200933
1.82,-0.0264833357,-0.0473156002
1.83,-0.02773419196,-0.04736893733
1.84,-0.02902847646,-0.04737846627
1.85,-0.03036419103,-0.04734072093
1.86,-0.03173911298,-0.04725233771
1.87,-0.03315080055,-0.04711006938
1.88,-0.03459659922,-0.04691079864
1.89,-0.03607364879,-0.04665155143
1.9,-0.03757889131,-0.04632950973
1.91,-0.03910907988,-0.04594202396
1.92,-0.04066078809,-0.04548662492
1.93,-0.0422304203,-0.04496103513
1.94,-0.04381422259,-0.04436317959
1.95,-0.0454082944,-0.04369119595
1.96,-0.0470086008,-0.04294344392
1.97,-0.04861098538,-0.04211851405
1.98,-0.05021118364,-0.0412152357
1.99,-0.05180483697,-0.04023268423
2,-0.05338750705,-0.03917018739
2.01,-0.05495469066,-0.03802733081
2.02,-0.05650183486,-0.03680396265
2.03,-0.05802435252,-0.03550019734
2.04,-0.05951763805,-0.03411641839
2.05,-0.06097708335,-0.03265328025
2.06,-0.06239809397,-0.03111170921
2.07,-0.0637761052,-0.02949290339
2.08,-0.06510659841,-0.02779833168
2.09,-0.06638511714,-0.02602973173
2.1,-0.06760728326,-0.02418910701
2.11,-0.0687688129,-0.02227872281
2.12,-0.06986553222,-0.02030110137
2.13,-0.07089339284,-0.01825901597
2.14,-0.07184848704,-0.01615548415
2.15,-0.07272706254,-0.01399375998
2.16,-0.07352553676,-0.0117773254
2.17,-0.07424051077,-0.009509880735
2.18,-0.07486878248,-0.007195334357
2.19,-0.07540735941,-0.004837791502
2.2,-0.07585347069,-0.002441542337
2.21,-0.07620457842,-1.10492788E-05
2.22,-0.07645838827,0.00244906639
2.23,-0.07661285932,0.004934038556
2.24,-0.07666621302,0.007438970914
2.25,-0.07661694132,0.009958852178
2.26,-0.0764638139,0.01248857178
2.27,-0.07620588449,0.01502293605
2.28,-0.07584249613,0.01755668474
2.29,-0.07537328561,0.02008450798
2.3,-0.07479818673,0.02260106339
2.31,-0.07411743266,0.02510099355
2.32,-0.07333155719,0.02757894348
2.33,-0.07244139497,0.03002957836
2.34,-0.07144808067,0.03244760119
2.35,-0.07035304709,0.0348277704
2.36,-0.0691580222,0.03716491747
2.37,-0.06786502515,0.03945396427
2.38,-0.0664763612,0.04168994027
2.39,-0.06499461561,0.04386799937
2.4,-0.06342264662,0.04598343647
2.41,-0.06176357726,0.04803170355
2.42,-0.06002078634,0.05000842533
2.43,-0.05819789842,0.05190941439
2.44,-0.05629877288,0.05373068563
2.45,-0.05432749212,0.05546847019
2.46,-0.05228834892,0.05711922863
2.47,-0.05018583302,0.05867966327
2.48,-0.04802461691,0.0601467299
2.49,-0.04580954095,0.06151764848
2.5,-0.04354559783,0.06278991307
2.51,-0.04123791641,0.06396130074
2.52,-0.03889174504,0.06502987958
2.53,-0.03651243443,0.0659940157
2.54,-0.03410541998,0.06685237915
2.55,-0.0316762039,0.06760394883
2.56,-0.02923033689,0.06824801634
2.57,-0.02677339969,0.06878418867
2.58,-0.02431098444,0.06921238984
2.59,-0.02184867589,0.06953286135
2.6,-0.01939203261,0.06974616159
2.61,-0.01694656831,0.06985316405
2.62,-0.01451773312,0.06985505441
2.63,-0.01211089517,0.06975332657
2.64,-0.009731322369,0.06954977744
2.65,-0.007384164467,0.06924650076
2.66,-0.005074435544,0.06884587979
2.67,-0.00280699691,0.06835057893
2.68,-0.0005865405235,0.06776353433
2.69,0.001582427023,0.06708794347
2.7,0.003695599883,0.06632725383
2.71,0.005748887653,0.06548515059
2.72,0.007738429313,0.06456554345
2.73,0.009660606376,0.0635725526
2.74,0.01151205518,0.06251049397
2.75,0.0132896783,0.06138386363
2.76,0.01499065495,0.06019732157
2.77,0.01661245052,0.05895567489
2.78,0.01815282495,0.05766386029
2.79,0.01960984015,0.05632692623
2.8,0.02098186627,0.0549500145
2.81,0.02226758688,0.0535383415
2.82,0.02346600302,0.05209717918
2.83,0.02457643603,0.05063183576
2.84,0.02559852931,0.04914763626
2.85,0.02653224881,0.04764990299
2.86,0.02737788235,0.0461439359
2.87,0.02813603779,0.04463499316
2.88,0.02880763997,0.04312827168
2.89,0.02939392648,0.04162888792
2.9,0.02989644229,0.04014185897
2.91,0.03031703318,0.03867208396
2.92,0.03065783809,0.0372243258
2.93,0.03092128034,0.03580319353
2.94,0.03111005774,0.03441312512
2.95,0.03122713175,0.03305837088
2.96,0.03127571556,0.0317429776
2.97,0.03125926117,0.03047077339
2.98,0.0311814457,0.02924535328
2.99,0.03104615665,0.02807006576
3,0.03085747645,0.02694800009
3.01,0.03061966626,0.02588197471
3.02,0.03033714897,0.02487452651
3.03,0.03001449163,0.02392790126
3.04,0.02965638729,0.02304404503
3.05,0.02926763631,0.02222459675
3.06,0.02885312723,0.02147088197
3.07,0.02841781726,0.02078390771
3.08,0.02796671246,0.02016435856
3.09,0.02750484772,0.01961259399
3.1,0.02703726652,0.01912864686
3.11,0.02656900068,0.0187122232
3.12,0.02610505007,0.01836270322
3.13,0.02565036236,0.01807914354
3.14,0.02520981298,0.01786028071
3.15,0.02478818523,0.01770453592
3.16,0.02439015074,0.01761002091
3.17,0.02402025029,0.01757454513
3.18,0.02368287501,0.01759562403
3.19,0.02338224824,0.01767048853
3.2,0.02312240778,0.01779609555
3.21,0.02290718895,0.01796913968
3.22,0.02274020831,0.01818606588
3.23,0.02262484814,0.0184430831
3.24,0.0225642418,0.01873617896
3.25,0.02256125996,0.01906113528
3.26,0.0226184978,0.01941354436
3.27,0.02273826323,0.01978882621
3.28,0.0229225661,0.02018224636
3.29,0.02317310858,0.02058893439
3.3,0.02349127664,0.02100390306
3.31,0.0238781327,0.02142206787
3.32,0.02433440946,0.02183826721
3.33,0.02486050504,0.02224728275
3.34,0.02545647926,0.0226438602
3.35,0.02612205128,0.02302273029
3.36,0.02685659847,0.02337862987
3.37,0.02765915658,0.02370632307
3.38,0.02852842127,0.02400062251
3.39,0.02946275078,0.02425641034
3.4,0.03046017006,0.02446865915
3.41,0.03151837608,0.02463245266
3.42,0.03263474439,0.02474300599
3.43,0.033806337,0.02479568565
3.44,0.03502991138,0.02478602895
3.45,0.03630193072,0.02470976293
3.46,0.0376185753,0.02456282261
3.47,0.03897575499,0.02434136857
3.48,0.04036912282,0.02404180382
3.49,0.04179408958,0.02366078971
3.5,0.04324583934,0.02319526112
3.51,0.044719346,0.02264244057
3.52,0.04620939059,0.02199985139
3.53,0.04771057941,0.02126532982
3.54,0.04921736293,0.02043703603
3.55,0.05072405532,0.01951346395
3.56,0.05222485461,0.01849344995
3.57,0.05371386331,0.0173761803
3.58,0.05518510959,0.01616119732
3.59,0.05663256873,0.01484840435
3.6,0.05805018493,0.01343806933
3.61,0.05943189329,0.01193082708
3.62,0.06077164197,0.01032768029
3.63,0.0620634144,0.008629999119
3.64,0.06330125141,0.006839519495
3.65,0.06447927332,0.004958340032
3.66,0.06559170183,0.002988917654
3.67,0.06663288158,0.0009340618771
3.68,0.06759730148,-0.001203072201
3.69,0.06847961547,-0.003418992198
3.7,0.06927466288,-0.005709877991
3.71,0.06997748816,-0.008071592492
3.72,0.07058336001,-0.0104996936
3.73,0.0710877897,-0.0129894473
3.74,0.07148654866,-0.01553584187
3.75,0.07177568519,-0.01813360313
3.76,0.07195154024,-0.0207772107
3.77,0.07201076225,-0.02346091519
3.78,0.07195032087,-0.02617875627
3.79,0.07176751966,-0.02892458158
3.8,0.07146000761,-0.03169206634
3.81,0.07102578951,-0.03447473373
3.82,0.07046323507,-0.03726597578
3.83,0.06977108676,-0.04005907482
3.84,0.06894846642,-0.0428472255
3.85,0.06799488048,-0.04562355698
3.86,0.06691022393,-0.04838115561
3.87,0.06569478281,-0.05111308773
3.88,0.06434923547,-0.05381242264
3.89,0.06287465234,-0.05647225555
3.9,0.06127249442,-0.05908573067
3.91,0.05954461031,-0.06164606395
3.92,0.05769323194,-0.06414656585
3.93,0.05572096892,-0.06658066369
3.94,0.05363080158,-0.06894192364
3.95,0.05142607266,-0.0712240724
3.96,0.04911047777,-0.07342101819
3.97,0.0466880546,-0.07552687127
3.98,0.04416317084,-0.07753596373
3.99,0.04154051107,-0.07944286856
4,0.03882506238,-0.0812424179
4.01,0.03602209907,-0.08292972042
4.02,0.03313716618,-0.08450017776
4.03,0.03017606221,-0.08594949994
4.04,0.02714482084,-0.08727371976
4.05,0.02404969187,-0.08846920605
4.06,0.02089712136,-0.08953267579
4.07,0.01769373114,-0.09046120499
4.08,0.01444629767,-0.09125223839
4.09,0.01116173032,-0.09190359781
4.1,0.007847049256,-0.09241348923
4.11,0.004509362916,-0.09278050855
4.12,0.001155845175,-0.09300364597
4.13,-0.002206287702,-0.09308228899
4.14,-0.00556980023,-0.09301622409
4.15,-0.008927460944,-0.09280563691
4.16,-0.01227206559,-0.09245111118
4.17,-0.01559646022,-0.09195362615
4.18,-0.01889356406,-0.09131455273
4.19,-0.0221563921,-0.09053564822
4.2,-0.02537807737,-0.0896190497
4.21,-0.02855189268,-0.08856726617
4.22,-0.03167127193,-0.08738316931
4.23,-0.03472983073,-0.08606998308
4.24,-0.03772138645,-0.08463127203
4.25,-0.04063997739,-0.08307092851
4.26,-0.0434798813,-0.08139315873
4.27,-0.04623563284,-0.07960246772
4.28,-0.04890204024,-0.07770364334
4.29,-0.05147420087,-0.07570173929
4.3,-0.05394751578,-0.07360205727
4.31,-0.05631770313,-0.07141012824
4.32,-0.05858081046,-0.06913169304
4.33,-0.06073322576,-0.0667726822
4.34,-0.06277168724,-0.06433919529
4.35,-0.06469329196,-0.06183747956
4.36,-0.066495503,-0.0592739083
4.37,-0.06817615541,-0.05665495872
4.38,-0.06973346078,-0.05398718957
4.39,-0.07116601039,-0.05127721858
4.4,-0.07247277712,-0.0485316997
4.41,-0.07365311581,-0.04575730041
4.42,-0.07470676241,-0.04296067899
4.43,-0.07563383165,-0.04014846192
4.44,-0.07643481338,-0.03732722155
4.45,-0.0771105676,-0.03450345402
4.46,-0.07766231814,-0.03168355753
4.47,-0.078091645,-0.02887381114
4.48,-0.07840047554,-0.02608035401
4.49,-0.07859107434,-0.02330916535
4.5,-0.07866603191,-0.02056604493
4.51,-0.07862825222,-0.01785659449
4.52,-0.07848093925,-0.0151861998
4.53,-0.07822758232,-0.01256001377
4.54,-0.07787194059,-0.009982940397
4.55,-0.07741802654,-0.007459619748
4.56,-0.07687008867,-0.004994414017
4.57,-0.07623259331,-0.002591394676
4.58,-0.07551020576,-0.0002543307834
4.59,-0.07470777083,0.002013321512
4.6,-0.07383029269,0.004208428231
4.61,-0.0728829143,0.006328185564
4.62,-0.0718708964,0.008370126573
4.63,-0.07079959617,0.01033212658
4.64,-0.06967444561,0.01221240723
4.65,-0.06850092976,0.0140095392
4.66,-0.06728456484,0.01572244355
4.67,-0.06603087633,0.01735039173
4.68,-0.06474537721,0.01889300426
4.69,-0.06343354627,0.020350248
4.7,-0.06210080672,0.02172243216
4.71,-0.06075250509,0.02301020295
4.72,-0.05939389054,0.02421453697
4.73,-0.05803009466,0.02533673331
4.74,-0.05666611181,0.02637840445
4.75,-0.05530678011,0.02734146598
4.76,-0.05395676311,0.0282281251
4.77,-0.05262053224,0.02904086811
4.78,-0.05130235011,0.02978244676
4.79,-0.05000625471,0.03045586369
4.8,-0.04873604455,0.03106435686
4.81,-0.04749526481,0.03161138312
4.82,-0.04628719465,0.03210060099
4.83,-0.04511483546,0.03253585266
4.84,-0.04398090047,0.03292114536
4.85,-0.0428878054,0.03326063205
4.86,-0.04183766042,0.0335585917
4.87,-0.04083226338,0.033819409
4.88,-0.03987309428,0.0340475538
4.89,-0.03896131107,0.03424756019
4.9,-0.03809774679,0.0344240054
4.91,-0.03728290802,0.03458148862
4.92,-0.03651697468,0.03472460967
4.93,-0.03579980114,0.03485794785
4.94,-0.03513091871,0.03498604077
4.95,-0.03450953941,0.03511336351
4.96,-0.03393456105,0.03524430798
4.97,-0.0334045736,0.03538316272
4.98,-0.03291786684,0.03553409305
4.99,-0.03247243921,0.03570112186
5,-0.03206600785,0.03588811093
5.01,-0.03169601983,0.03609874289
5.02,-0.03135966447,0.03633650402
5.03,-0.03105388667,0.03660466778
5.04,-0.03077540138,0.03690627922
5.05,-0.03052070889,0.03724414039
5.06,-0.03028611107,0.03762079665
5.07,-0.03006772847,0.03803852408
5.08,-0.02986151814,0.03849931798
5.09,-0.02966329213,0.03900488251
5.1,-0.0294687367,0.03955662151
5.11,-0.02927343198,0.04015563051
5.12,-0.02907287218,0.04080269003
5.13,-0.02886248612,0.04149826015
5.14,-0.02863765815,0.04224247635
5.15,-0.02839374926,0.04303514669
5.16,-0.02812611835,0.04387575036
5.17,-0.02783014359,0.04476343744
5.18,-0.02750124373,0.04569703015
5.19,-0.02713489933,0.04667502534
5.2,-0.02672667385,0.04769559833
5.21,-0.0262722344,0.04875660809
5.22,-0.02576737225,0.04985560364
5.23,-0.02520802283,0.05098983187
5.24,-0.02459028527,0.0521562464
5.25,-0.02391044139,0.05335151785
5.26,-0.02316497398,0.05457204519
5.27,-0.02235058445,0.05581396821
5.28,-0.02146420957,0.05707318109
5.29,-0.02050303749,0.05834534709
5.3,-0.01946452274,0.0596259141
5.31,-0.01834640031,0.06091013116
5.32,-0.01714669865,0.06219306593
5.33,-0.01586375167,0.06346962281
5.34,-0.01449620948,0.06473456193
5.35,-0.01304304811,0.06598251868
5.36,-0.01150357787,0.06720802397
5.37,-0.009877450559,0.06840552485
5.38,-0.008164665352,0.06956940569
5.39,-0.006365573403,0.07069400967
5.4,-0.004480881111,0.0717736605
5.41,-0.002511652048,0.07280268444
5.42,-0.0004593075485,0.07377543236
5.43,0.001674374068,0.0746863018
5.44,0.00388725962,0.07552975911
5.45,0.006176864544,0.07630036129
5.46,0.008540357708,0.07699277775
5.47,0.01097456755,0.0776018117
5.48,0.01347598954,0.07812242115
5.49,0.01604079487,0.0785497395
5.5,0.01866484048,0.0788790956
5.51,0.0213436802,0.07910603311
5.52,0.02407257716,0.0792263293
5.53,0.02684651726,0.07923601299
5.54,0.02966022381,0.07913138174
5.55,0.03250817309,0.0789090181
5.56,0.03538461101,0.07856580494
5.57,0.03828357063,0.07809893977
5.58,0.04119889052,0.077505948
5.59,0.04412423395,0.07678469508
5.6,0.04705310883,0.07593339744
5.61,0.04997888821,0.07495063235
5.62,0.05289483147,0.07383534638
5.63,0.0557941059,0.07258686272
5.64,0.05866980886,0.07120488711
5.65,0.06151499008,0.06968951252
5.66,0.06432267445,0.06804122243
5.67,0.0670858848,0.06626089274
5.68,0.06979766492,0.06434979239
5.69,0.07245110253,0.06230958253
5.7,0.07503935221,0.06014231436
5.71,0.07755565816,0.05785042558
5.72,0.0799933768,0.05543673553
5.73,0.08234599894,0.05290443895
5.74,0.08460717173,0.05025709843
5.75,0.08677071995,0.04749863556
5.76,0.08883066695,0.0446333209
5.77,0.09078125479,0.04166576259
5.78,0.09261696384,0.03860089387
5.79,0.09433253153,0.03544395943
5.8,0.09592297031,0.03220050067
5.81,0.09738358467,0.02887633989
5.82,0.09870998727,0.02547756353
5.83,0.09989811405,0.02201050446
5.84,0.1009442382,0.01848172339
5.85,0.1018449831,0.01489798952
5.86,0.1025973342,0.01126626041
5.87,0.1031986491,0.007593661214
5.88,0.1036466677,0.003887463342
5.89,0.1039395193,0.0001550625521
5.9,0.1040757301,-0.003596043334
5.91,0.1040542282,-0.007358277108
5.92,0.1038743476,-0.01112400512
5.93,0.1035358314,-0.0148855604
5.94,0.1030388327,-0.01863526597
5.95,0.1023839149,-0.02236545806
5.96,0.10157205,-0.02606850942
5.97,0.1006046162,-0.02973685241
5.98,0.09948339355,-0.03336300188
5.99,0.09821055883,-0.03693957785
6,0.09678867853,-0.04045932768
