"Freq [GHz]","re(S(Tx_p1,Tx_p1)) []","im(S(Tx_p1,Tx_p1)) []"
1,0.01519364135,-0.02744659189
1.01,0.0145506863,-0.02730752779
1.02,0.01392193015,-0.02715903289
1.03,0.01330776517,-0.02700151532
1.04,0.01270855723,-0.02683543531
1.05,0.01212464226,-0.02666130161
1.06,0.01155632294,-0.02647966779
1.07,0.01100386569,-0.0262911284
1.08,0.01046749796,-0.02609631515
1.09,0.009947405778,-0.02589589296
1.1,0.009443731618,-0.02569055597
1.11,0.008956572512,-0.02548102353
1.12,0.008485978472,-0.02526803618
1.13,0.008031951174,-0.02505235151
1.14,0.007594442926,-0.02483474021
1.15,0.007173355898,-0.02461598192
1.16,0.006768541629,-0.02439686129
1.17,0.006379800787,-0.02417816392
1.18,0.006006883196,-0.02396067247
1.19,0.005649488103,-0.02374516275
1.2,0.005307264705,-0.02353239995
1.21,0.004979812905,-0.02332313487
1.22,0.0046666843,-0.02311810036
1.23,0.004367383399,-0.02291800774
1.24,0.004081369049,-0.02272354343
1.25,0.003808056077,-0.02253536569
1.26,0.003546817118,-0.02235410148
1.27,0.003296984642,-0.02218034345
1.28,0.003057853153,-0.02201464716
1.29,0.002828681554,-0.02185752838
1.3,0.00260869567,-0.0217094606
1.31,0.002397090919,-0.02157087274
1.32,0.002193035109,-0.02144214702
1.33,0.001995671364,-0.02132361702
1.34,0.001804121153,-0.02121556596
1.35,0.001617487419,-0.02111822514
1.36,0.00143485779,-0.02103177265
1.37,0.001255307865,-0.02095633224
1.38,0.001077904555,-0.02089197242
1.39,0.0009017094698,-0.02083870576
1.4,0.0007257823422,-0.02079648842
1.41,0.0005491844651,-0.0207652199
1.42,0.000370982141,-0.020744743
1.43,0.0001902501236,-0.02073484398
1.44,6.075041179E-06,-0.02073525294
1.45,-0.0001824412108,-0.02074564443
1.46,-0.0003761781201,-0.02076563824
1.47,-0.0005759932635,-0.02079480042
1.48,-0.0007827190797,-0.02083264444
1.49,-0.0009971597201,-0.02087863267
1.5,-0.00122008799,-0.02093217787
1.51,-0.001452242388,-0.02099264503
1.52,-0.00169432426,-0.02105935328
1.53,-0.001946995067,-0.02113157801
1.54,-0.002210873791,-0.02120855316
1.55,-0.002486534471,-0.0212894736
1.56,-0.002774503892,-0.02137349773
1.57,-0.003075259426,-0.02145975018
1.58,-0.003389227037,-0.02154732461
1.59,-0.003716779451,-0.02163528667
1.6,-0.004058234506,-0.02172267704
1.61,-0.004413853676,-0.02180851454
1.62,-0.004783840784,-0.02189179938
1.63,-0.005168340905,-0.0219715164
1.64,-0.005567439452,-0.02204663848
1.65,-0.005981161475,-0.02211612987
1.66,-0.006409471134,-0.02217894966
1.67,-0.006852271395,-0.02223405521
1.68,-0.007309403902,-0.02228040563
1.69,-0.007780649068,-0.02231696526
1.7,-0.008265726353,-0.02234270711
1.71,-0.008764294742,-0.02235661631
1.72,-0.009275953421,-0.02235769349
1.73,-0.009800242645,-0.02234495818
1.74,-0.01033664479,-0.02231745208
1.75,-0.01088458561,-0.02227424233
1.76,-0.01144343565,-0.02221442465
1.77,-0.01201251184,-0.02213712639
1.78,-0.01259107927,-0.02204150959
1.79,-0.01317835317,-0.02192677377
1.8,-0.01377350092,-0.02179215874
1.81,-0.01437564438,-0.0216369472
1.82,-0.01498386222,-0.02146046728
1.83,-0.01559719248,-0.02126209485
1.84,-0.01621463518,-0.0210412558
1.85,-0.01683515516,-0.02079742805
1.86,-0.01745768488,-0.02053014348
1.87,-0.01808112743,-0.02023898965
1.88,-0.0187043596,-0.0199236114
1.89,-0.01932623504,-0.01958371217
1.9,-0.01994558743,-0.0192190553
1.91,-0.02056123379,-0.01882946501
1.92,-0.02117197777,-0.01841482724
1.93,-0.02177661307,-0.01797509033
1.94,-0.02237392674,-0.01751026551
1.95,-0.02296270264,-0.01702042713
1.96,-0.02354172485,-0.01650571278
1.97,-0.02410978103,-0.01596632321
1.98,-0.02466566583,-0.01540252202
1.99,-0.02520818425,-0.01481463523
2,-0.02573615497,-0.01420305056
2.01,-0.0262484136,-0.01356821666
2.02,-0.02674381589,-0.0129106421
2.03,-0.02722124093,-0.01223089413
2.04,-0.02767959418,-0.01152959737
2.05,-0.02811781045,-0.01080743231
2.06,-0.02853485684,-0.01006513359
2.07,-0.02892973549,-0.009303488218
2.08,-0.02930148626,-0.008523333563
2.09,-0.02964918932,-0.007725555272
2.1,-0.02997196757,-0.006911085013
2.11,-0.03026898892,-0.006080898122
2.12,-0.03053946849,-0.00523601111
2.13,-0.0307826706,-0.004377479089
2.14,-0.03099791066,-0.003506393074
2.15,-0.03118455687,-0.002623877217
2.16,-0.03134203177,-0.001731085945
2.17,-0.03146981365,-0.0008292010352
2.18,-0.03156743775,8.057137245E-05
2.19,-0.03163449736,0.0009970038185
2.2,-0.03167064464,0.001918850605
2.21,-0.03167559141,0.002844850912
2.22,-0.03164910965,0.003773731935
2.23,-0.03159103184,0.004704212034
2.24,-0.03150125124,0.005635003892
2.25,-0.03137972183,0.006564817657
2.26,-0.03122645821,0.007492364076
2.27,-0.03104153527,0.008416357599
2.28,-0.0308250877,0.00933551945
2.29,-0.03057730938,0.01024858065
2.3,-0.03029845251,0.011154285
2.31,-0.02998882672,0.01205139197
2.32,-0.02964879791,0.01293867957
2.33,-0.02927878699,0.01381494708
2.34,-0.0288792685,0.01467901775
2.35,-0.02845076908,0.01552974139
2.36,-0.02799386576,0.01636599682
2.37,-0.02750918422,0.01718669428
2.38,-0.02699739684,0.01799077767
2.39,-0.02645922072,0.0187772267
2.4,-0.02589541554,0.01954505892
2.41,-0.02530678137,0.0202933316
2.42,-0.02469415633,0.02102114349
2.43,-0.02405841428,0.02172763643
2.44,-0.02340046231,0.02241199685
2.45,-0.02272123827,0.02307345707
2.46,-0.02202170822,0.02371129654
2.47,-0.02130286378,0.0243248428
2.48,-0.02056571954,0.02491347247
2.49,-0.01981131037,0.0254766119
2.5,-0.01904068874,0.0260137378
2.51,-0.01825492203,0.02652437768
2.52,-0.01745508983,0.02700811014
2.53,-0.01664228126,0.02746456497
2.54,-0.01581759232,0.02789342319
2.55,-0.01498212318,0.02829441685
2.56,-0.01413697567,0.02866732878
2.57,-0.01328325059,0.02901199211
2.58,-0.0124220453,0.02932828971
2.59,-0.01155445115,0.02961615349
2.6,-0.01068155116,0.02987556355
2.61,-0.009804417618,0.03010654724
2.62,-0.008924109858,0.03030917805
2.63,-0.008041672065,0.03048357445
2.64,-0.007158131189,0.03062989857
2.65,-0.006274494944,0.03074835481
2.66,-0.005391749915,0.03083918832
2.67,-0.004510859756,0.03090268345
2.68,-0.003632763502,0.03093916203
2.69,-0.002758373995,0.03094898167
2.7,-0.001888576416,0.03093253393
2.71,-0.001024226946,0.03089024242
2.72,-0.0001661515306,0.03082256091
2.73,0.0006848552131,0.03072997133
2.74,0.001528030984,0.03061298175
2.75,0.002362646648,0.03047212436
2.76,0.003188006969,0.03030795335
2.77,0.004003451213,0.03012104289
2.78,0.004808353625,0.02991198497
2.79,0.00560212378,0.02968138732
2.8,0.006384206819,0.02942987133
2.81,0.007154083548,0.02915806999
2.82,0.007911270426,0.02886662576
2.83,0.008655319436,0.02855618862
2.84,0.009385817833,0.02822741399
2.85,0.01010238779,0.02788096085
2.86,0.01080468591,0.02751748978
2.87,0.01149240269,0.02713766109
2.88,0.01216526179,0.02674213306
2.89,0.01282301933,0.02633156018
2.9,0.01346546294,0.02590659146
2.91,0.01409241088,0.02546786887
2.92,0.014703711,0.0250160258
2.93,0.01529923957,0.02455168566
2.94,0.01587890016,0.02407546046
2.95,0.01644262239,0.02358794962
2.96,0.0169903606,0.02308973879
2.97,0.01752209249,0.02258139875
2.98,0.01803781776,0.02206348445
2.99,0.01853755663,0.02153653416
3,0.01902134836,0.02100106868
3.01,0.01948924978,0.02045759064
3.02,0.01994133374,0.019906584
3.03,0.02037768757,0.01934851351
3.04,0.02079841156,0.01878382441
3.05,0.02120361739,0.01821294214
3.06,0.02159342659,0.01763627218
3.07,0.02196796903,0.01705420001
3.08,0.02232738138,0.01646709115
3.09,0.02267180564,0.01587529128
3.1,0.02300138767,0.01527912651
3.11,0.02331627579,0.01467890364
3.12,0.02361661934,0.01407491067
3.13,0.02390256741,0.01346741719
3.14,0.02417426751,0.01285667508
3.15,0.02443186433,0.01224291905
3.16,0.0246754986,0.01162636746
3.17,0.02490530594,0.0110072231
3.18,0.02512141585,0.01038567405
3.19,0.02532395074,0.009761894601
3.2,0.02551302499,0.009136046266
3.21,0.0256887442,0.008508278794
3.22,0.02585120437,0.007878731259
3.23,0.02600049131,0.007247533172
3.24,0.02613668003,0.00661480564
3.25,0.02625983428,0.005980662544
3.26,0.02637000611,0.005345211743
3.27,0.02646723558,0.004708556297
3.28,0.02655155054,0.004070795697
3.29,0.02662296649,0.003432027105
3.3,0.02668148652,0.002792346591
3.31,0.02672710135,0.002151850366
3.32,0.02675978945,0.001510636002
3.33,0.02677951728,0.0008688036407
3.34,0.02678623955,0.0002264571714
3.35,0.0267798996,-0.0004162946096
3.36,0.02676042987,-0.001059336877
3.37,0.02672775242,-0.001702547691
3.38,0.02668177953,-0.002345796948
3.39,0.02662241439,-0.002988945391
3.4,0.02654955185,-0.003631843651
3.41,0.0264630792,-0.004274331364
3.42,0.02636287707,-0.00491623633
3.43,0.02624882033,-0.005557373742
3.44,0.02612077911,-0.006197545482
3.45,0.02597861977,-0.006836539479
3.46,0.02582220602,-0.007474129143
3.47,0.02565139997,-0.00811007287
3.48,0.02546606335,-0.008744113628
3.49,0.02526605861,-0.009375978612
3.5,0.02505125014,-0.01000537898
3.51,0.02482150551,-0.01063200969
3.52,0.02457669664,-0.01125554938
3.53,0.02431670108,-0.01187566035
3.54,0.02404140323,-0.01249198864
3.55,0.02375069558,-0.01310416417
3.56,0.02344447995,-0.01371180098
3.57,0.02312266868,-0.0143144975
3.58,0.02278518584,-0.01491183699
3.59,0.02243196844,-0.01550338797
3.6,0.02206296753,-0.01608870479
3.61,0.02167814935,-0.01666732821
3.62,0.0212774964,-0.01723878616
3.63,0.02086100849,-0.01780259443
3.64,0.02042870375,-0.01835825754
3.65,0.01998061955,-0.01890526964
3.66,0.01951681339,-0.01944311545
3.67,0.01903736378,-0.0199712713
3.68,0.018542371,-0.02048920614
3.69,0.01803195779,-0.02099638276
3.7,0.01750627004,-0.02149225887
3.71,0.01696547734,-0.02197628836
3.72,0.01640977351,-0.02244792253
3.73,0.01583937701,-0.02290661139
3.74,0.01525453134,-0.02335180495
3.75,0.0146555053,-0.02378295459
3.76,0.01404259317,-0.02419951441
3.77,0.0134161149,-0.02460094256
3.78,0.01277641609,-0.02498670272
3.79,0.012123868,-0.0253562654
3.8,0.01145886741,-0.02570910939
3.81,0.01078183644,-0.02604472312
3.82,0.01009322226,-0.02636260606
3.83,0.009393496737,-0.02666227008
3.84,0.008683156015,-0.0269432408
3.85,0.007962719983,-0.02720505892
3.86,0.007232731698,-0.02744728153
3.87,0.00649375672,-0.02766948336
3.88,0.00574638238,-0.02787125804
3.89,0.004991216975,-0.02805221927
3.9,0.004228888896,-0.028212002
3.91,0.003460045694,-0.02835026349
3.92,0.002685353082,-0.02846668443
3.93,0.001905493882,-0.02856096986
3.94,0.001121166907,-0.02863285019
3.95,0.0003330858064,-0.02868208201
3.96,-0.0004580221486,-0.02870844896
3.97,-0.001251417319,-0.02871176245
3.98,-0.002046348994,-0.02869186236
3.99,-0.002842056721,-0.02864861763
4,-0.003637771666,-0.02858192684
4.01,-0.00443271801,-0.02849171862
4.02,-0.005226114362,-0.0283779521
4.03,-0.006017175187,-0.02824061718
4.04,-0.006805112261,-0.0280797348
4.05,-0.007589136125,-0.02789535707
4.06,-0.008368457551,-0.02768756737
4.07,-0.009142289006,-0.02745648037
4.08,-0.009909846113,-0.02720224193
4.09,-0.01067034911,-0.02692502895
4.1,-0.01142302429,-0.02662504917
4.11,-0.01216710542,-0.02630254085
4.12,-0.01290183517,-0.0259577724
4.13,-0.01362646647,-0.02559104193
4.14,-0.01434026387,-0.02520267673
4.15,-0.01504250489,-0.02479303269
4.16,-0.01573248125,-0.02436249366
4.17,-0.01640950018,-0.02391147069
4.18,-0.01707288557,-0.02344040129
4.19,-0.01772197916,-0.02294974859
4.2,-0.01835614165,-0.02244000042
4.21,-0.01897475374,-0.02191166838
4.22,-0.01957721715,-0.02136528686
4.23,-0.02016295553,-0.02080141195
4.24,-0.02073141541,-0.02022062041
4.25,-0.02128206697,-0.01962350852
4.26,-0.02181440482,-0.0190106909
4.27,-0.02232794871,-0.01838279935
4.28,-0.02282224416,-0.01774048162
4.29,-0.023296863,-0.01708440015
4.3,-0.0237514039,-0.01641523083
4.31,-0.02418549277,-0.0157336617
4.32,-0.02459878316,-0.01504039169
4.33,-0.02499095652,-0.01433612926
4.34,-0.02536172241,-0.01362159115
4.35,-0.0257108187,-0.01289750105
4.36,-0.02603801163,-0.0121645883
4.37,-0.0263430958,-0.01142358659
4.38,-0.02662589418,-0.0106752327
4.39,-0.02688625797,-0.009920265184
4.4,-0.02712406639,-0.009159423159
4.41,-0.02733922651,-0.008393445058
4.42,-0.0275316729,-0.007623067426
4.43,-0.02770136727,-0.00684902374
4.44,-0.0278482981,-0.006072043262
4.45,-0.02797248011,-0.005292849929
4.46,-0.02807395381,-0.004512161274
4.47,-0.02815278487,-0.003730687386
4.48,-0.02820906352,-0.002949129917
4.49,-0.02824290394,-0.002168181128
4.5,-0.02825444348,-0.001388522982
4.51,-0.02824384197,-0.0006108262844
4.52,-0.02821128097,0.0001642501263
4.53,-0.02815696291,0.0009360601394
4.54,-0.02808111029,0.001703971079
4.55,-0.02798396483,0.00246736436
4.56,-0.02786578659,0.003225636089
4.57,-0.02772685304,0.003978197609
4.58,-0.02756745822,0.004724475996
4.59,-0.02738791173,0.005463914494
4.6,-0.02718853789,0.006195972897
4.61,-0.02696967474,0.006920127878
4.62,-0.02673167312,0.007635873263
4.63,-0.02647489574,0.008342720248
4.64,-0.02619971626,0.009040197568
4.65,-0.02590651836,0.009727851611
4.66,-0.0255956948,0.01040524648
4.67,-0.02526764657,0.01107196401
4.68,-0.02492278198,0.01172760374
4.69,-0.0245615158,0.01237178281
4.7,-0.02418426841,0.01300413586
4.71,-0.023791465,0.01362431484
4.72,-0.02338353478,0.01423198884
4.73,-0.02296091018,0.01482684379
4.74,-0.02252402617,0.0154085822
4.75,-0.02207331952,0.01597692285
4.76,-0.02160922816,0.01653160043
4.77,-0.0211321905,0.01707236517
4.78,-0.02064264491,0.01759898241
4.79,-0.02014102909,0.01811123218
4.8,-0.01962777959,0.01860890878
4.81,-0.01910333131,0.01909182027
4.82,-0.01856811708,0.01955978798
4.83,-0.01802256723,0.02001264605
4.84,-0.01746710927,0.0204502409
4.85,-0.01690216753,0.02087243071
4.86,-0.01632816291,0.0212790849
4.87,-0.01574551263,0.0216700836
4.88,-0.01515463002,0.02204531715
4.89,-0.01455592439,0.02240468554
4.9,-0.01394980087,0.02274809796
4.91,-0.01333666038,0.02307547221
4.92,-0.01271689952,0.02338673426
4.93,-0.01209091061,0.02368181778
4.94,-0.01145908167,0.02396066361
4.95,-0.01082179652,0.02422321936
4.96,-0.01017943481,0.02446943896
4.97,-0.009532372195,0.02469928223
4.98,-0.008880980422,0.02491271455
4.99,-0.008225627532,0.02510970643
5,-0.007566678036,0.02529023318
5.01,-0.006904493128,0.02545427464
5.02,-0.00623943092,0.02560181487
5.03,-0.005571846682,0.02573284187
5.04,-0.004902093112,0.02584734739
5.05,-0.004230520607,0.02594532674
5.06,-0.003557477548,0.02602677857
5.07,-0.002883310593,0.02609170482
5.08,-0.002208364975,0.02614011056
5.09,-0.001532984805,0.02617200394
5.1,-0.0008575133681,0.02618739615
5.11,-0.0001822934323,0.02618630143
5.12,0.0004923324621,0.02616873709
5.13,0.001166021709,0.02613472355
5.14,0.001838431356,0.02608428446
5.15,0.002509217831,0.02601744679
5.16,0.003178036686,0.02593424101
5.17,0.003844542351,0.02583470121
5.18,0.004508387904,0.02571886536
5.19,0.005169224866,0.02558677548
5.2,0.00582670301,0.02543847794
5.21,0.006480470189,0.02527402368
5.22,0.007130172198,0.02509346855
5.23,0.00777545265,0.02489687358
5.24,0.008415952881,0.02468430533
5.25,0.009051311887,0.0244558362
5.26,0.009681166281,0.02421154483
5.27,0.01030515029,0.02395151644
5.28,0.01092289576,0.02367584319
5.29,0.01153403222,0.02338462458
5.3,0.01213818698,0.02307796783
5.31,0.01273498519,0.02275598829
5.32,0.01332405005,0.02241880979
5.33,0.01390500293,0.02206656503
5.34,0.01447746362,0.021699396
5.35,0.01504105055,0.02131745432
5.36,0.01559538106,0.02092090164
5.37,0.01614007168,0.02050990996
5.38,0.01667473852,0.02008466199
5.39,0.01719899756,0.01964535152
5.4,0.01771246509,0.01919218365
5.41,0.0182147581,0.01872537518
5.42,0.01870549472,0.01824515481
5.43,0.01918429471,0.01775176345
5.44,0.0196507799,0.01724545439
5.45,0.02010457477,0.01672649356
5.46,0.02054530692,0.01619515969
5.47,0.02097260767,0.01565174444
5.48,0.0213861126,0.01509655254
5.49,0.02178546214,0.01452990188
5.5,0.02217030215,0.01395212354
5.51,0.0225402846,0.01336356185
5.52,0.02289506807,0.01276457437
5.53,0.02323431851,0.01215553182
5.54,0.02355770976,0.01153681803
5.55,0.02386492424,0.01090882983
5.56,0.0241556536,0.01027197686
5.57,0.02442959932,0.009626681451
5.58,0.02468647334,0.00897337833
5.59,0.02492599873,0.008312514415
5.6,0.02514791027,0.0076445485
5.61,0.02535195507,0.006969950933
5.62,0.0255378932,0.00628920325
5.63,0.02570549823,0.005602797781
5.64,0.02585455781,0.004911237217
5.65,0.02598487425,0.004215034148
5.66,0.02609626502,0.003514710566
5.67,0.02618856329,0.002810797344
5.68,0.02626161839,0.002103833676
5.69,0.0263152963,0.001394366499
5.7,0.02634948006,0.0006829498789
5.71,0.02636407019,-2.985562237E-05
5.72,0.02635898508,-0.0007434836045
5.73,0.02633416132,-0.001457362511
5.74,0.02628955403,-0.002170916328
5.75,0.02622513714,-0.002883565307
5.76,0.02614090361,-0.003594726697
5.77,0.0260368657,-0.004303815496
5.78,0.02591305509,-0.005010245216
5.79,0.02576952305,-0.005713428656
5.8,0.02560634054,-0.006412778685
5.81,0.02542359827,-0.007107709028
5.82,0.02522140672,-0.007797635068
5.83,0.02499989616,-0.008481974631
5.84,0.02475921655,-0.009160148793
5.85,0.0244995375,-0.009831582667
5.86,0.0242210481,-0.0104957062
5.87,0.0239239568,-0.01115195496
5.88,0.02360849118,-0.01179977089
5.89,0.02327489772,-0.01243860312
5.9,0.02292344153,-0.01306790867
5.91,0.02255440601,-0.01368715323
5.92,0.02216809256,-0.01429581188
5.93,0.02176482017,-0.01489336978
5.94,0.02134492497,-0.01547932286
5.95,0.02090875989,-0.01605317852
5.96,0.02045669408,-0.01661445624
5.97,0.01998911246,-0.01716268821
5.98,0.01950641521,-0.01769741993
5.99,0.01900901717,-0.01821821079
6,0.01849734729,-0.01872463459
