"Freq [GHz]","re(S(Tx_p1,Tx_p1)) []","im(S(Tx_p1,Tx_p1)) []"
1,-0.02554449016,-0.04782358325
1.01,-0.02732571602,-0.0465043818
1.02,-0.02904687219,-0.04511235981
1.03,-0.03070435734,-0.04365031489
1.04,-0.03229472879,-0.04212124475
1.05,-0.03381471289,-0.04052833671
1.06,-0.0352612148,-0.03887495675
1.07,-0.03663132749,-0.03716463815
1.08,-0.0379223402,-0.03540106976
1.09,-0.03913174607,-0.03358808388
1.1,-0.04025724915,-0.03172964391
1.11,-0.04129677061,-0.0298298316
1.12,-0.04224845429,-0.02789283423
1.13,-0.04311067145,-0.0259229314
1.14,-0.04388202479,-0.02392448186
1.15,-0.04456135171,-0.02190191005
1.16,-0.04514772684,-0.01985969268
1.17,-0.04564046378,-0.01780234519
1.18,-0.0460391161,-0.01573440829
1.19,-0.0463434776,-0.01366043443
1.2,-0.04655358185,-0.01158497446
1.21,-0.04666970094,-0.009512564359
1.22,-0.04669234354,-0.007447712072
1.23,-0.04662225226,-0.005394884631
1.24,-0.04646040032,-0.003358495442
1.25,-0.04620798749,-0.001342891851
1.26,-0.04586643544,0.0006476569811
1.27,-0.04543738237,0.002608971878
1.28,-0.04492267714,0.004536975077
1.29,-0.04432437264,0.006427701269
1.3,-0.04364471876,0.008277308197
1.31,-0.04288615468,0.01008208681
1.32,-0.04205130075,0.01183847094
1.33,-0.04114294979,0.01354304644
1.34,-0.04016405803,0.01519255984
1.35,-0.03911773555,0.01678392641
1.36,-0.03800723633,0.01831423767
1.37,-0.03683594804,0.01978076827
1.38,-0.03560738136,0.02118098237
1.39,-0.03432515915,0.02251253923
1.4,-0.03299300528,0.02377329833
1.41,-0.03161473325,0.02496132376
1.42,-0.03019423471,0.02607488796
1.43,-0.02873546773,0.02711247483
1.44,-0.02724244505,0.02807278216
1.45,-0.02571922221,0.0289547234
1.46,-0.02416988569,0.02975742878
1.47,-0.022598541,0.03048024574
1.48,-0.0210093009,0.03112273873
1.49,-0.01940627362,0.03168468834
1.5,-0.0177935512,0.03216608981
1.51,-0.01617519805,0.03256715085
1.52,-0.01455523964,0.03288828893
1.53,-0.01293765139,0.03313012789
1.54,-0.01132634784,0.03329349397
1.55,-0.009725172109,0.03337941129
1.56,-0.008137885666,0.03338909675
1.57,-0.0065681584,0.03332395442
1.58,-0.005019559106,0.03318556937
1.59,-0.003495546345,0.03297570109
1.6,-0.001999459727,0.03269627634
1.61,-0.0005345116394,0.03234938165
1.62,0.0008962205602,0.03193725539
1.63,0.002289801865,0.03146227941
1.64,0.003643446437,0.03092697034
1.65,0.004954523899,0.03033397066
1.66,0.006220565097,0.02968603932
1.67,0.007439267309,0.02898604221
1.68,0.008608498891,0.02823694239
1.69,0.009726303356,0.02744179006
1.7,0.01079090287,0.02660371243
1.71,0.01180070118,0.02572590346
1.72,0.01275428591,0.02481161343
1.73,0.01365043034,0.02386413854
1.74,0.01448809451,0.02288681041
1.75,0.01526642581,0.02188298562
1.76,0.01598475893,0.0208560353
1.77,0.01664261526,0.01980933471
1.78,0.01723970174,0.01874625301
1.79,0.01777590904,0.01767014312
1.8,0.01825130936,0.01658433175
1.81,0.01866615351,0.01549210961
1.82,0.01902086762,0.01439672188
1.83,0.0193160492,0.01330135886
1.84,0.01955246281,0.01220914699
1.85,0.01973103524,0.01112314006
1.86,0.01985285013,0.0100463109
1.87,0.01991914234,0.008981543258
1.88,0.01993129171,0.007931624157
1.89,0.01989081662,0.006899236628
1.9,0.01979936702,0.005886952838
1.91,0.0196587172,0.004897227665
1.92,0.01947075831,0.003932392719
1.93,0.01923749045,0.002994650829
1.94,0.01896101462,0.002086071005
1.95,0.0186435244,0.001208583893
1.96,0.01828729743,0.0003639777226
1.97,0.01789468671,-0.0004461052289
1.98,0.01746811181,-0.001220171666
1.99,0.0170100499,-0.001956879782
2,0.01652302673,-0.002655041244
2.01,0.0160096076,-0.003313622658
2.02,0.01547238823,-0.003931746503
2.03,0.0149139857,-0.004508691555
2.04,0.01433702942,-0.005043892784
2.05,0.01374415213,-0.005536940741
2.06,0.01313798105,-0.005987580447
2.07,0.01252112913,-0.006395709773
2.08,0.01189618644,-0.006761377346
2.09,0.01126571173,-0.007084779968
2.1,0.01063222429,-0.007366259584
2.11,0.009998195864,-0.007606299796
2.12,0.009366043006,-0.007805521945
2.13,0.008738119578,-0.007964680784
2.14,0.008116709615,-0.008084659746
2.15,0.007504020483,-0.008166465844
2.16,0.006902176391,-0.008211224209
2.17,0.006313212249,-0.008220172294
2.18,0.005739067907,-0.008194653766
2.19,0.005181582786,-0.008136112111
2.2,0.004642490905,-0.008046083971
2.21,0.004123416338,-0.007926192241
2.22,0.003625869087,-0.007778138951
2.23,0.003151241404,-0.007603697962
2.24,0.002700804548,-0.007404707495
2.25,0.002275706011,-0.007183062524
2.26,0.001876967182,-0.006940707064
2.27,0.001505481496,-0.00667962637
2.28,0.001162013025,-0.006401839083
2.29,0.0008471955496,-0.006109389352
2.3,0.0005615320861,-0.005804338946
2.31,0.0003053948759,-0.005488759397
2.32,7.902583163E-05,-0.005164724194
2.33,-0.0001174625657,-0.004834301048
2.34,-0.0002840859259,-0.004499544272
2.35,-0.0004209861734,-0.004162487276
2.36,-0.0005284293459,-0.003825135219
2.37,-0.0006068029784,-0.003489457842
2.38,-0.0006566130858,-0.003157382494
2.39,-0.0006784807579,-0.002830787376
2.4,-0.0006731383812,-0.002511495037
2.41,-0.0006414255042,-0.002201266122
2.42,-0.0005842843627,-0.001901793405
2.43,-0.0005027550846,-0.001614696126
2.44,-0.0003979705915,-0.001341514635
2.45,-0.0002711512188,-0.001083705373
2.46,-0.0001235990739,-0.0008426362032
2.47,4.330784472E-05,-0.0006195820926
2.48,0.0002281217471,-0.0004157211726
2.49,0.0004293313454,-0.0002321311785
2.5,0.0006453683202,-6.97862803E-05
2.51,0.0008746139332,7.044568639E-05
2.52,0.001115405766,0.0001878055852
2.53,0.001366044558,0.0002816449326
2.54,0.001624801119,0.0003514274382
2.55,0.001889923291,0.0003967301281
2.56,0.002159642943,0.0004172440522
2.57,0.002432182963,0.0004127745752
2.58,0.002705764225,0.0003832412529
2.59,0.002978612518,0.0003286772989
2.6,0.003248965399,0.0002492286449
2.61,0.003515078955,0.0001451526019
2.62,0.003775234451,1.681612885E-05
2.63,0.004027744835,-0.0001353062809
2.64,0.004270961092,-0.0003106350876
2.65,0.004503278407,-0.000508488554
2.66,0.004723142139,-0.0007280859448
2.67,0.004929053561,-0.0009685510613
2.68,0.005119575378,-0.001228916098
2.69,0.005293336975,-0.001508125807
2.7,0.005449039399,-0.001805041946
2.71,0.005585460053,-0.002118448009
2.72,0.005701457086,-0.002447054199
2.73,0.005795973466,-0.002789502646
2.74,0.00586804073,-0.003144372835
2.75,0.005916782388,-0.003510187231
2.76,0.005941416983,-0.003885417076
2.77,0.005941260796,-0.004268488347
2.78,0.005915730178,-0.004657787835
2.79,0.005864343521,-0.005051669347
2.8,0.005786722846,-0.00544845998
2.81,0.005682595023,-0.005846466477
2.82,0.005551792595,-0.006243981613
2.83,0.005394254239,-0.006639290609
2.84,0.005210024831,-0.007030677544
2.85,0.004999255143,-0.007416431737
2.86,0.004762201156,-0.007794854095
2.87,0.004499223011,-0.008164263377
2.88,0.004210783585,-0.008523002388
2.89,0.003897446714,-0.008869444044
2.9,0.003559875069,-0.009201997327
2.91,0.003198827678,-0.009519113068
2.92,0.002815157131,-0.00981928958
2.93,0.002409806457,-0.01010107809
2.94,0.001983805694,-0.01036308798
2.95,0.001538268171,-0.01060399178
2.96,0.001074386501,-0.01082252995
2.97,0.0005934283189,-0.01101751538
2.98,9.673176256E-05,-0.01118783767
2.99,-0.000414299271,-0.01133246705
3,-0.0009382000883,-0.01145045809
3.01,-0.001473450357,-0.01154095305
3.02,-0.002018479439,-0.01160318491
3.03,-0.002571671889,-0.01163648015
3.04,-0.003131373082,-0.01164026108
3.05,-0.003695894966,-0.01161404795
3.06,-0.004263521914,-0.01155746061
3.07,-0.004832516653,-0.01147021991
3.08,-0.005401126246,-0.01135214869
3.09,-0.005967588121,-0.01120317246
3.1,-0.006530136104,-0.01102331967
3.11,-0.007087006457,-0.01081272167
3.12,-0.007636443889,-0.01057161231
3.13,-0.008176707516,-0.01030032719
3.14,-0.008706076761,-0.009999302554
3.15,-0.009222857168,-0.009669073861
3.16,-0.009725386109,-0.009310274001
3.17,-0.01021203837,-0.008923631208
3.18,-0.01068123159,-0.008509966642
3.19,-0.01113143154,-0.008070191666
3.2,-0.01156115724,-0.007605304832
3.21,-0.01196898587,-0.007116388569
3.22,-0.01235355745,-0.006604605607
3.23,-0.01271357934,-0.006071195141
3.24,-0.01304783045,-0.005517468744
3.25,-0.01335516528,-0.004944806053
3.26,-0.01363451759,-0.00435465024
3.27,-0.01388490385,-0.003748503277
3.28,-0.01410542643,-0.003127921031
3.29,-0.01429527644,-0.002494508182
3.3,-0.0144537363,-0.001849912998
3.31,-0.01458018198,-0.001195821988
3.32,-0.01467408494,-0.0005339544294
3.33,-0.01473501374,0.0001339431791
3.34,-0.0147626353,0.0008061027504
3.35,-0.01475671588,0.001480740288
3.36,-0.0147171217,0.0021560616
3.37,-0.01464381919,0.002830268031
3.38,-0.01453687502,0.003501562186
3.39,-0.01439645564,0.004168153629
3.4,-0.01422282667,0.004828264546
3.41,-0.01401635181,0.005480135335
3.42,-0.01377749154,0.006122030132
3.43,-0.01350680146,0.00675224222
3.44,-0.01320493033,0.007369099339
3.45,-0.0128726178,0.007970968853
3.46,-0.0125106919,0.008556262771
3.47,-0.0121200662,0.009123442604
3.48,-0.01170173672,0.009671024035
3.49,-0.0112567786,0.0101975814
3.5,-0.0107863425,0.01070175197
3.51,-0.01029165077,0.01118223995
3.52,-0.009773993443,0.01163782036
3.53,-0.009234723979,0.01206734255
3.54,-0.008675254842,0.01246973352
3.55,-0.008097052905,0.01284400094
3.56,-0.007501634701,0.01318923596
3.57,-0.006890561531,0.01350461564
3.58,-0.006265434452,0.01378940518
3.59,-0.005627889164,0.01404295979
3.6,-0.004979590802,0.01426472627
3.61,-0.004322228673,0.01445424433
3.62,-0.003657510925,0.01461114756
3.63,-0.002987159196,0.0147351641
3.64,-0.002312903244,0.01482611697
3.65,-0.001636475574,0.01488392419
3.66,-0.0009596060991,0.01490859846
3.67,-0.0002840168232,0.01490024666
3.68,0.000388583406,0.01485906892
3.69,0.001056504079,0.01478535755
3.7,0.001718078115,0.01467949551
3.71,0.002371666845,0.01454195473
3.72,0.003015664874,0.01437329407
3.73,0.003648504805,0.01417415708
3.74,0.004268661811,0.01394526942
3.75,0.004874658037,0.01368743609
3.76,0.005465066829,0.01340153841
3.77,0.006038516762,0.01308853076
3.78,0.006593695464,0.01274943712
3.79,0.007129353226,0.01238534739
3.8,0.007644306379,0.01199741351
3.81,0.008137440441,0.01158684549
3.82,0.008607713007,0.01115490715
3.83,0.009054156393,0.01070291181
3.84,0.009475880014,0.01023221784
3.85,0.009872072497,0.009744224041
3.86,0.01024200351,0.009240364992
3.87,0.01058502534,0.008722106286
3.88,0.01090057414,0.008190939703
3.89,0.01118817095,0.007648378338
3.9,0.01144742242,0.007095951696
3.91,0.01167802118,0.006535200776
3.92,0.01187974603,0.005967673154
3.93,0.01205246179,0.005394918081
3.94,0.01219611884,0.004818481624
3.95,0.01231075246,0.004239901851
3.96,0.01239648185,0.003660704087
3.97,0.01245350886,0.00308239625
3.98,0.0124821165,0.002506464281
3.99,0.0124826672,0.001934367698
4,0.01245560077,0.001367535262
4.01,0.01240143219,0.0008073607939
4.02,0.01232074912,0.0002551991367
4.03,0.01221420921,-0.0002876377086
4.04,0.01208253719,-0.0008198842758
4.05,0.01192652181,-0.001340325134
4.06,0.01174701251,-0.001847798189
4.07,0.011544916,-0.002341197778
4.08,0.01132119268,-0.002819477543
4.09,0.01107685279,-0.003281653079
4.1,0.01081295262,-0.003726804351
4.11,0.01053059046,-0.004154077867
4.12,0.01023090249,-0.004562688607
4.13,0.0099150586,-0.004951921705
4.14,0.009584258134,-0.005321133875
4.15,0.009239725542,-0.005669754576
4.16,0.00888270603,-0.005997286922
4.17,0.008514461171,-0.006303308337
4.18,0.008136264499,-0.006587470938
4.19,0.007749397111,-0.006849501671
4.2,0.007355143297,-0.00708920218
4.21,0.006954786189,-0.007306448427
4.22,0.006549603474,-0.007501190058
4.23,0.00614086316,-0.00767344952
4.24,0.005729819432,-0.00782332094
4.25,0.005317708586,-0.007950968763
4.26,0.004905745081,-0.008056626164
4.27,0.004495117703,-0.008140593234
4.28,0.004086985859,-0.008203234956
4.29,0.003682476022,-0.008244978974
4.3,0.003282678317,-0.008266313164
4.31,0.002888643285,-0.008267783027
4.32,0.002501378814,-0.008249988895
4.33,0.002121847256,-0.008213582989
4.34,0.001750962739,-0.008159266312
4.35,0.001389588679,-0.008087785408
4.36,0.001038535497,-0.007999928999
4.37,0.0006985585557,-0.007896524501
4.38,0.0003703563137,-0.007778434441
4.39,5.456870234E-05,-0.007646552791
4.4,-0.0002482242647,-0.007501801229
4.41,-0.0005375036525,-0.007345125335
4.42,-0.0008128125316,-0.00717749075
4.43,-0.001073756669,-0.006999879298
4.44,-0.001320004981,-0.006813285099
4.45,-0.001551289758,-0.006618710671
4.46,-0.001767406643,-0.00641716305
4.47,-0.001968214386,-0.006209649934
4.48,-0.00215363437,-0.005997175865
4.49,-0.002323649902,-0.005780738468
4.5,-0.00247830529,-0.005561324752
4.51,-0.002617704701,-0.005339907492
4.52,-0.002742010806,-0.005117441702
4.53,-0.002851443226,-0.004894861212
4.54,-0.002946276775,-0.004673075364
4.55,-0.003026839519,-0.004452965827
4.56,-0.003093510651,-0.004235383556
4.57,-0.003146718198,-0.004021145897
4.58,-0.003186936566,-0.003811033845
4.59,-0.003214683931,-0.003605789476
4.6,-0.003230519493,-0.003406113543
4.61,-0.0032350406,-0.003212663262
4.62,-0.003228879754,-0.00302605028
4.63,-0.003212701512,-0.002846838844
4.64,-0.00318719929,-0.002675544163
4.65,-0.003153092095,-0.002512630979
4.66,-0.003111121177,-0.002358512347
4.67,-0.003062046639,-0.00221354862
4.68,-0.00300664399,-0.002078046656
4.69,-0.002945700683,-0.001952259237
4.7,-0.002880012628,-0.001836384698
4.71,-0.002810380707,-0.001730566781
4.72,-0.002737607293,-0.001634894698
4.73,-0.002662492804,-0.00154940341
4.74,-0.002585832278,-0.001474074113
4.75,-0.002508412009,-0.001408834934
4.76,-0.002431006237,-0.001353561834
4.77,-0.002354373914,-0.001308079703
4.78,-0.00227925555,-0.001272163652
4.79,-0.002206370164,-0.001245540494
4.8,-0.002136412335,-0.001227890403
4.81,-0.002070049367,-0.001218848747
4.82,-0.002007918592,-0.00121800809
4.83,-0.001950624802,-0.001224920347
4.84,-0.001898737828,-0.001239099087
4.85,-0.001852790273,-0.001260021979
4.86,-0.00181327541,-0.00128713336
4.87,-0.001780645246,-0.001319846928
4.88,-0.001755308759,-0.001357548539
4.89,-0.001737630323,-0.001399599099
4.9,-0.001727928312,-0.001445337543
4.91,-0.001726473898,-0.001494083888
4.92,-0.001733490044,-0.001545142346
4.93,-0.001749150694,-0.001597804482
4.94,-0.001773580157,-0.001651352419
4.95,-0.001806852698,-0.001705062061
4.96,-0.001848992332,-0.001758206327
4.97,-0.001899972808,-0.001810058388
4.98,-0.001959717806,-0.001859894897
4.99,-0.002028101329,-0.001906999183
5,-0.002104948288,-0.001950664419
5.01,-0.002190035282,-0.001990196739
5.02,-0.002283091577,-0.002024918292
5.03,-0.002383800255,-0.002054170231
5.04,-0.002491799556,-0.002077315615
5.05,-0.002606684393,-0.002093742222
5.06,-0.002728008031,-0.002102865257
5.07,-0.002855283933,-0.002104129946
5.08,-0.002987987757,-0.002097014011
5.09,-0.003125559503,-0.002081030013
5.1,-0.003267405793,-0.002055727555
5.11,-0.003412902287,-0.002020695335
5.12,-0.003561396211,-0.001975563046
5.13,-0.003712209002,-0.001920003122
5.14,-0.003864639046,-0.0018537323
5.15,-0.004017964513,-0.001776513024
5.16,-0.00417144626,-0.001688154665
5.17,-0.004324330811,-0.001588514558
5.18,-0.004475853389,-0.001477498858
5.19,-0.004625240992,-0.001355063199
5.2,-0.004771715504,-0.001221213173
5.21,-0.004914496824,-0.001076004613
5.22,-0.005052806012,-0.0009195436798
5.23,-0.005185868424,-0.0007519867601
5.24,-0.00531291684,-0.0005735401752
5.25,-0.005433194566,-0.000384459694
5.26,-0.005545958495,-0.0001850498616
5.27,-0.00565048213,2.43368591E-05
5.28,-0.005746058536,0.0002433011272
5.29,-0.005832003232,0.0004713979418
5.3,-0.005907656998,0.0007081380324
5.31,-0.005972388598,0.0009529894185
5.32,-0.006025597392,0.001205379129
5.33,-0.006066715848,0.001464695081
5.34,-0.006095211936,0.001730288099
5.35,-0.006110591383,0.002001474086
5.36,-0.006112399811,0.002277536315
5.37,-0.006100224715,0.002557727859
5.38,-0.006073697302,0.002841274119
5.39,-0.006032494172,0.003127375475
5.4,-0.005976338831,0.003415210021
5.41,-0.005905003046,0.003703936393
5.42,-0.005818308017,0.003992696669
5.43,-0.005716125385,0.00428061934
5.44,-0.005598378049,0.004566822327
5.45,-0.005465040807,0.004850416053
5.46,-0.005316140811,0.005130506536
5.47,-0.005151757837,0.005406198516
5.48,-0.004972024365,0.005676598578
5.49,-0.004777125478,0.005940818294
5.5,-0.004567298568,0.006197977331
5.51,-0.00434283286,0.006447206556
5.52,-0.004104068757,0.006687651091
5.53,-0.003851396995,0.006918473339
5.54,-0.00358525763,0.007138855941
5.55,-0.003306138845,0.007348004676
5.56,-0.003014575591,0.007545151285
5.57,-0.00271114806,0.007729556201
5.58,-0.002396480004,0.007900511199
5.59,-0.002071236899,0.008057341926
5.6,-0.001736123958,0.008199410329
5.61,-0.001391884017,0.008326116959
5.62,-0.001039295274,0.008436903142
5.63,-0.0006791689189,0.008531253021
5.64,-0.0003123466387,0.008608695445
5.65,6.030198002E-05,0.008668805719
5.66,0.0004378821456,0.008711207189
5.67,0.0008194766441,0.008735572671
5.68,0.0012041487,0.008741625714
5.69,0.001590944903,0.008729141693
5.7,0.001978898198,0.008697948729
5.71,0.002367030915,0.008647928429
5.72,0.00275435784,0.008579016455
5.73,0.003139889315,0.008491202909
5.74,0.003522634346,0.008384532536
5.75,0.003901603722,0.008259104745
5.76,0.004275813128,0.008115073457
5.77,0.004644286239,0.00795264676
5.78,0.005006057789,0.007772086397
5.79,0.005360176599,0.007573707069
5.8,0.005705708568,0.007357875572
5.81,0.006041739591,0.007125009755
5.82,0.006367378425,0.00687557732
5.83,0.006681759468,0.006610094453
5.84,0.006984045456,0.006329124302
5.85,0.007273430064,0.006033275302
5.86,0.007549140406,0.005723199356
5.87,0.00781043942,0.005399589875
5.88,0.008056628135,0.005063179687
5.89,0.008287047814,0.00471473882
5.9,0.008501081959,0.004355072174
5.91,0.008698158179,0.003985017076
5.92,0.008877749915,0.003605440741
5.93,0.009039378005,0.00321723764
5.94,0.009182612106,0.002821326785
5.95,0.009307071947,0.002418648942
5.96,0.009412428418,0.002010163783
5.97,0.0094984045,0.001596846979
5.98,0.00956477602,0.001179687256
5.99,0.009611372235,0.0007596834117
6,0.009638076245,0.0003378413141
