"Freq [GHz]","re(S(Tx_p1,Tx_p1)) []","im(S(Tx_p1,Tx_p1)) []"
1,-0.01635793179,-0.00637489381
1.01,-0.01644945989,-0.005341008483
1.02,-0.01648263072,-0.004309569018
1.03,-0.01645768277,-0.003283902667
1.04,-0.01637505877,-0.002267322373
1.05,-0.01623540414,-0.001263113607
1.06,-0.01603956469,-0.0002745213654
1.07,-0.01578858341,0.0006952625894
1.08,-0.01548369662,0.001643112216
1.09,-0.01512632916,0.00256597936
1.1,-0.01471808903,0.003460905543
1.11,-0.01426076111,0.004325033349
1.12,-0.01375630036,0.005155617347
1.13,-0.01320682424,0.005950034523
1.14,-0.0126146046,0.006705794179
1.15,-0.01198205888,0.007420547264
1.16,-0.01131174088,0.008092095101
1.17,-0.01060633094,0.008718397485
1.18,-0.009868625649,0.009297580122
1.19,-0.009101527207,0.00982794138
1.2,-0.008308032336,0.01030795833
1.21,-0.0074912209,0.01073629207
1.22,-0.006654244236,0.0111117923
1.23,-0.005800313247,0.01143350114
1.24,-0.004932686311,0.01170065615
1.25,-0.004054657059,0.01191269268
1.26,-0.003169542062,0.01206924527
1.27,-0.002280668478,0.01217014847
1.28,-0.001391361723,0.01221543667
1.29,-0.0005049331868,0.01220534338
1.3,0.0003753319274,0.01214029955
1.31,0.001246186617,0.01202093124
1.32,0.002104433887,0.01184805655
1.33,0.002946938307,0.01162268178
1.34,0.003770637278,0.01134599696
1.35,0.004572551966,0.01101937056
1.36,0.005349797856,0.01064434376
1.37,0.006099594891,0.01022262386
1.38,0.006819277163,0.009756077246
1.39,0.007506302111,0.009246721759
1.4,0.008158259204,0.008696718474
1.41,0.008772878068,0.008108363038
1.42,0.009348036039,0.007484076525
1.43,0.009881765103,0.006826395874
1.44,0.01037225822,0.006137963939
1.45,0.01081787499,0.005421519207
1.46,0.01121714666,0.004679885216
1.47,0.01156878044,0.003915959713
1.48,0.01187166313,0.00313270361
1.49,0.01212486405,0.002333129773
1.5,0.01232763728,0.001520291687
1.51,0.01247942314,0.0006972720458
1.52,0.01257984899,-0.0001328286803
1.53,0.01262872931,-0.0009669036737
1.54,0.01262606511,-0.001801851132
1.55,0.01257204257,-0.002634585532
1.56,0.01246703109,-0.003462048743
1.57,0.01231158054,-0.00428122096
1.58,0.012106418,-0.005089131403
1.59,0.01185244375,-0.005882868746
1.6,0.01155072665,-0.006659591246
1.61,0.01120249904,-0.007416536521
1.62,0.01080915088,-0.008151030959
1.63,0.01037222352,-0.008860498702
1.64,0.009893402881,-0.009542470201
1.65,0.009374512116,-0.01019459029
1.66,0.008817503906,-0.01081462575
1.67,0.008224452281,-0.0114004724
1.68,0.007597544081,-0.01195016154
1.69,0.006939070064,-0.01246186596
1.7,0.006251415723,-0.01293390522
1.71,0.005537051818,-0.01336475048
1.72,0.00479852469,-0.01375302858
1.73,0.004038446387,-0.01409752557
1.74,0.003259484636,-0.01439718963
1.75,0.002464352712,-0.01465113329
1.76,0.001655799238,-0.01485863506
1.77,0.0008365979565,-0.0150191404
1.78,9.5375172E-06,-0.01513226207
1.79,-0.000822588686,-0.01519777985
1.8,-0.001656992585,-0.01521563961
1.81,-0.00249090138,-0.01518595183
1.82,-0.00332156731,-0.01510898944
1.83,-0.00414627723,-0.01498518518
1.84,-0.004962361939,-0.01481512827
1.85,-0.005767205247,-0.01459956063
1.86,-0.006558252732,-0.01433937256
1.87,-0.007333020161,-0.01403559785
1.88,-0.00808910156,-0.0136894085
1.89,-0.008824176877,-0.01330210892
1.9,-0.009536019243,-0.01287512976
1.91,-0.01022250179,-0.01241002129
1.92,-0.010881604,-0.01190844646
1.93,-0.0115114176,-0.01137217359
1.94,-0.01211015192,-0.01080306883
1.95,-0.01267613881,-0.01020308825
1.96,-0.01320783693,-0.009574269781
1.97,-0.0137038356,-0.008918724917
1.98,-0.0141628581,-0.008238630283
1.99,-0.01458376433,-0.00753621905
2,-0.01496555305,-0.006813772268
2.01,-0.01530736348,-0.006073610145
2.02,-0.01560847637,-0.0053180833
2.03,-0.01586831454,-0.004549564038
2.04,-0.01608644289,-0.003770437655
2.05,-0.0162625678,-0.002983093845
2.06,-0.01639653613,-0.002189918206
2.07,-0.01648833359,-0.001393283893
2.08,-0.01653808269,-0.0005955434558
2.09,-0.01654604015,0.0002009791243
2.1,-0.01651259394,0.0009939961634
2.11,-0.01643825974,0.001781263738
2.12,-0.01632367708,0.002560588866
2.13,-0.01616960505,0.00332983637
2.14,-0.01597691762,0.004086935413
2.15,-0.01574659858,0.004829885678
2.16,-0.01547973624,0.005556763172
2.17,-0.0151775177,0.006265725639
2.18,-0.01484122298,0.006955017573
2.19,-0.01447221877,0.007622974809
2.2,-0.0140719521,0.008268028676
2.21,-0.01364194371,0.008888709724
2.22,-0.01318378131,0.009483650993
2.23,-0.01269911273,0.01005159083
2.24,-0.01218963892,0.01059137527
2.25,-0.01165710693,0.0111019599
2.26,-0.01110330284,0.01158241136
2.27,-0.01053004466,0.01203190832
2.28,-0.009939175276,0.01244974198
2.29,-0.009332555434,0.01283531625
2.3,-0.008712056796,0.01318814733
2.31,-0.00807955511,0.01350786302
2.32,-0.007436923507,0.01379420147
2.33,-0.006786025947,0.01404700967
2.34,-0.006128710852,0.01426624141
2.35,-0.005466804935,0.01445195501
2.36,-0.004802107254,0.01460431055
2.37,-0.004136383515,0.01472356689
2.38,-0.003471360628,0.01481007829
2.39,-0.002808721547,0.01486429079
2.4,-0.002150100414,0.01488673824
2.41,-0.001497077997,0.01487803817
2.42,-0.0008511774635,0.01483888738
2.43,-0.0002138604847,0.01477005729
2.44,0.0004134763217,0.01467238919
2.45,0.001029504593,0.01454678925
2.46,0.001632967069,0.01439422348
2.47,0.002222680078,0.01421571249
2.48,0.002797535658,0.01401232626
2.49,0.003356503314,0.01378517875
2.5,0.003898631417,0.0135354226
2.51,0.004423048233,0.01326424368
2.52,0.004928962598,0.01297285579
2.53,0.005415664247,0.01266249526
2.54,0.005882523788,0.01233441578
2.55,0.006328992348,0.0119898831
2.56,0.006754600889,0.01163017004
2.57,0.007158959207,0.0112565515
2.58,0.007541754633,0.01087029961
2.59,0.007902750436,0.01047267911
2.6,0.00824178396,0.01006494288
2.61,0.008558764498,0.009648327606
2.62,0.008853670915,0.009224049756
2.63,0.009126549064,0.008793301686
2.64,0.00937750897,0.008357248039
2.65,0.009606721846,0.00791702236
2.66,0.009814416926,0.007473723973
2.67,0.01000087815,0.007028415122
2.68,0.01016644074,0.006582118377
2.69,0.01031148759,0.006135814313
2.7,0.01043644569,0.005690439473
2.71,0.01054178235,0.005246884595
2.72,0.0106280015,0.00480599314
2.73,0.0106956398,0.004368560083
2.74,0.01074526293,0.003935330988
2.75,0.01077746171,0.003507001358
2.76,0.0107928484,0.003084216252
2.77,0.01079205292,0.002667570171
2.78,0.0107757192,0.002257607194
2.79,0.01074450161,0.001854821368
2.8,0.01069906149,0.001459657337
2.81,0.01064006372,0.001072511195
2.82,0.01056817355,0.0006937315658
2.83,0.01048405342,0.0003236208796
2.84,0.01038836006,-3.756315223E-05
2.85,0.01028174168,-0.0003896058855
2.86,0.01016483535,-0.000732333926
2.87,0.01003826458,-0.001065613163
2.88,0.009902637084,-0.00138934667
2.89,0.009758542713,-0.001703472484
2.9,0.00960655165,-0.002007961283
2.91,0.009447212764,-0.002302813982
2.92,0.009281052201,-0.002588059254
2.93,0.00910857218,-0.002863750999
2.94,0.008930250007,-0.003129965783
2.95,0.008746537301,-0.003386800246
2.96,0.008557859435,-0.003634368515
2.97,0.008364615186,-0.003872799625
2.98,0.008167176593,-0.004102234972
2.99,0.007965889011,-0.004322825801
3,0.007761071366,-0.004534730757
3.01,0.007553016595,-0.004738113509
3.02,0.007341992269,-0.00493314045
3.03,0.007128241382,-0.005119978503
3.04,0.00691198331,-0.005298793032
3.05,0.006693414909,-0.00546974587
3.06,0.006472711769,-0.005632993484
3.07,0.006250029582,-0.005788685273
3.08,0.006025505632,-0.005936962016
3.09,0.005799260392,-0.006077954473
3.1,0.0055713992,-0.006211782151
3.11,0.005342014022,-0.006338552228
3.12,0.005111185269,-0.006458358657
3.13,0.004878983671,-0.006571281432
3.14,0.004645472174,-0.006677386041
3.15,0.004410707864,-0.006776723085
3.16,0.004174743897,-0.006869328075
3.17,0.003937631417,-0.006955221409
3.18,0.003699421451,-0.007034408512
3.19,0.003460166776,-0.007106880154
3.2,0.003219923724,-0.007172612922
3.21,0.002978753939,-0.007231569861
3.22,0.002736726048,-0.007283701264
3.23,0.002493917255,-0.007328945603
3.24,0.002250414836,-0.007367230605
3.25,0.002006317521,-0.007398474455
3.26,0.001761736765,-0.007422587115
3.27,0.001516797893,-0.007439471755
3.28,0.001271641108,-0.007449026285
3.29,0.001026422357,-0.007451144969
3.3,0.0007813140555,-0.00744572012
3.31,0.0005365056493,-0.007432643853
3.32,0.0002922040271,-0.00741180989
3.33,4.863376733E-05,-0.007383115411
3.34,-0.0001939627769,-0.007346462911
3.35,-0.0004353255587,-0.007301762091
3.36,-0.0006751770837,-0.00724893173
3.37,-0.0009132228215,-0.007187901549
3.38,-0.001149151781,-0.007118614047
3.39,-0.001382637245,-0.007041026293
3.4,-0.001613337668,-0.006955111667
3.41,-0.00184089772,-0.006860861531
3.42,-0.002064949482,-0.006758286828
3.43,-0.002285113783,-0.006647419578
3.44,-0.002501001675,-0.006528314288
3.45,-0.002712216024,-0.006401049238
3.46,-0.002918353231,-0.006265727652
3.47,-0.003119005055,-0.006122478731
3.48,-0.003313760534,-0.005971458553
3.49,-0.003502207999,-0.005812850821
3.5,-0.003683937156,-0.005646867454
3.51,-0.003858541236,-0.005473749024
3.52,-0.004025619205,-0.005293765019
3.53,-0.004184777997,-0.00510721394
3.54,-0.004335634788,-0.004914423223
3.55,-0.004477819277,-0.004715748982
3.56,-0.004610975966,-0.004511575575
3.57,-0.004734766429,-0.004302314996
3.58,-0.004848871553,-0.004088406082
3.59,-0.004952993736,-0.003870313546
3.6,-0.005046859034,-0.003648526839
3.61,-0.005130219239,-0.003423558837
3.62,-0.005202853879,-0.003195944363
3.63,-0.005264572118,-0.002966238551
3.64,-0.005315214562,-0.002735015055
3.65,-0.005354654938,-0.002502864103
3.66,-0.005382801648,-0.002270390426
3.67,-0.005399599188,-0.002038211044
3.68,-0.005405029414,-0.00180695294
3.69,-0.005399112648,-0.001577250616
3.7,-0.005381908621,-0.001349743558
3.71,-0.005353517239,-0.001125073611
3.72,-0.005314079167,-0.0009038822746
3.73,-0.005263776227,-0.0006868079411
3.74,-0.005202831599,-0.0004744830853
3.75,-0.005131509831,-0.0002675314156
3.76,-0.005050116637,-6.656500654E-05
3.77,-0.004958998504,0.0001278185771
3.78,-0.004858542088,0.0003150391477
3.79,-0.004749173406,0.0004945367409
3.8,-0.004631356823,0.0006657744249
3.81,-0.004505593842,0.0008282410581
3.82,-0.004372421683,0.0009814539822
3.83,-0.004232411682,0.001124961634
3.84,-0.004086167486,0.001258346065
3.85,-0.003934323069,0.001381225352
3.86,-0.003777540565,0.001493255884
3.87,-0.003616507939,0.001594134524
3.88,-0.003451936489,0.001683600613
3.89,-0.003284558194,0.001761437823
3.9,-0.003115122926,0.001827475843
3.91,-0.002944395528,0.001881591873
3.92,-0.002773152771,0.001923711945
3.93,-0.002602180208,0.001953812032
3.94,-0.002432268933,0.001971918959
3.95,-0.002264212259,0.001978111094
3.96,-0.002098802334,0.001972518825
3.97,-0.001936826701,0.001955324808
3.98,-0.001779064831,0.001926763985
3.99,-0.00162628463,0.001887123372
4,-0.001479238939,0.001836741612
4.01,-0.001338662057,0.001776008288
4.02,-0.001205266279,0.001705363005
4.03,-0.001079738486,0.001625294233
4.04,-0.0009627367929,0.001536337919
4.05,-0.000854887268,0.00143907587
4.06,-0.0007567807513,0.001334133907
4.07,-0.0006689697731,0.001222179802
4.08,-0.0005919655976,0.001103921003
4.09,-0.0005262354022,0.0009801021473
4.1,-0.0004721996076,0.0008515023804
4.11,-0.0004302293727,0.0007189324869
4.12,-0.0004006442669,0.0005832318417
4.13,-0.0003837101319,0.0004452651953
4.14,-0.0003796371458,0.0003059193036
4.15,-0.0003885780994,0.000166099416
4.16,-0.0004106268949,2.672563594E-05
4.17,-0.0004458172768,-0.0001112708342
4.18,-0.0004941218022,-0.0002469515458
4.19,-0.0005554510588,-0.0003793747408
4.2,-0.0006296531359,-0.0005075993563
4.21,-0.0007165133546,-0.0006306890799
4.22,-0.00081575426,-0.0007477164392
4.23,-0.0009270358798,-0.0008577669091
4.24,-0.00104995625,-0.0009599430181
4.25,-0.00118405221,-0.001053368438
4.26,-0.001328800463,-0.001137192035
4.27,-0.001483618907,-0.001210591876
4.28,-0.001647868224,-0.001272779152
4.29,-0.001820853736,-0.001323002028
4.3,-0.002001827508,-0.001360549375
4.31,-0.002189990705,-0.001384754393
4.32,-0.002384496189,-0.001394998082
4.33,-0.002584451349,-0.001390712573
4.34,-0.002788921153,-0.001371384281
4.35,-0.002996931418,-0.001336556874
4.36,-0.003207472275,-0.00128583405
4.37,-0.003419501828,-0.001218882091
4.38,-0.003631949995,-0.001135432204
4.39,-0.003843722495,-0.00103528262
4.4,-0.004053705001,-0.0009183004401
4.41,-0.004260767413,-0.0007844232371
4.42,-0.004463768253,-0.0006336603776
4.43,-0.004661559156,-0.000466094077
4.44,-0.004852989441,-0.0002818801705
4.45,-0.005036910753,-8.124859722E-05
4.46,-0.005212181741,0.000135496408
4.47,-0.005377672773,0.0003679764178
4.48,-0.005532270652,0.000615739214
4.49,-0.005674883323,0.0008782594878
4.5,-0.005804444556,0.001154939839
4.51,-0.005919918571,0.001445112073
4.52,-0.006020304605,0.001748038793
4.53,-0.006104641385,0.002062915282
4.54,-0.006172011501,0.002388871676
4.55,-0.006221545655,0.002724975411
4.56,-0.006252426766,0.003070233946
4.57,-0.006263893921,0.003423597754
4.58,-0.006255246147,0.003783963562
4.59,-0.006225845991,0.00415017784
4.6,-0.006175122897,0.004521040521
4.61,-0.006102576354,0.004895308943
4.62,-0.006007778813,0.005271701991
4.63,-0.005890378351,0.005648904442
4.64,-0.00575010107,0.006025571477
4.65,-0.005586753234,0.006400333359
4.66,-0.005400223105,0.006771800251
4.67,-0.005190482497,0.007138567165
4.68,-0.004957588025,0.007499219011
4.69,-0.004701682048,0.007852335745
4.7,-0.004422993289,0.008196497577
4.71,-0.004121837143,0.008530290243
4.72,-0.003798615661,0.008852310288
4.73,-0.003453817206,0.009161170384
4.74,-0.003088015781,0.009455504617
4.75,-0.002701870037,0.009733973758
4.76,-0.00229612195,0.009995270477
4.77,-0.001871595179,0.01023812449
4.78,-0.001429193105,0.01046130763
4.79,-0.0009698965589,0.01066363876
4.8,-0.0004947612391,0.01084398862
4.81,-4.914835362E-06,0.01100128451
4.82,0.0004984461407,0.01113451474
4.83,0.001014059803,0.011242733
4.84,0.001540602608,0.01132506246
4.85,0.002076693327,0.01138069965
4.86,0.002620897263,0.01140891818
4.87,0.003171730696,0.01140907207
4.88,0.003727665543,0.01138059897
4.89,0.004287134211,0.01132302301
4.9,0.004848534639,0.01123595738
4.91,0.005410235498,0.01111910664
4.92,0.005970581537,0.01097226864
4.93,0.006527899054,0.01079533624
4.94,0.007080501481,0.01058829858
4.95,0.007626695043,0.01035124213
4.96,0.008164784497,0.01008435129
4.97,0.00869307891,0.009787908726
4.98,0.009209897461,0.009462295346
4.99,0.009713575251,0.00910798989
5,0.0102024691,0.008725568218
5.01,0.01067496328,0.008315702221
5.02,0.01112947524,0.007879158397
5.03,0.0115644612,0.007416796092
5.04,0.01197842167,0.006929565392
5.05,0.01236990684,0.006418504689
5.06,0.01273752184,0.005884737932
5.07,0.01307993182,0.005329471549
5.08,0.01339586687,0.004753991076
5.09,0.01368412672,0.004159657486
5.1,0.01394358527,0.003547903237
5.11,0.01417319483,0.002920228053
5.12,0.01437199014,0.002278194447
5.13,0.01453909214,0.001623423005
5.14,0.01467371142,0.000957587448
5.15,0.01477515143,0.0002824094852
5.16,0.01484281136,-0.0004003465245
5.17,0.01487618868,-0.001088879079
5.18,0.01487488144,-0.001781355193
5.19,0.01483859009,-0.002475916192
5.2,0.01476711912,-0.003170683618
5.21,0.01466037827,-0.003863765229
5.22,0.01451838334,-0.004553261066
5.23,0.01434125677,-0.005237269579
5.24,0.01412922774,-0.005913893768
5.25,0.01388263197,-0.006581247348
5.26,0.01360191113,-0.007237460886
5.27,0.01328761194,-0.00788068791
5.28,0.01294038484,-0.008509110959
5.29,0.01256098234,-0.009120947554
5.3,0.01215025706,-0.00971445607
5.31,0.01170915933,-0.01028794149
5.32,0.01123873458,-0.01083976102
5.33,0.01074012028,-0.01136832952
5.34,0.01021454263,-0.01187212482
5.35,0.009663312976,-0.01234969275
5.36,0.009087823825,-0.01279965202
5.37,0.008489544689,-0.01322069885
5.38,0.007870017597,-0.01361161134
5.39,0.007230852384,-0.01397125359
5.4,0.006573721727,-0.01429857952
5.41,0.005900355979,-0.01459263644
5.42,0.005212537788,-0.01485256822
5.43,0.004512096542,-0.01507761832
5.44,0.003800902647,-0.01526713226
5.45,0.00308086166,-0.01542055997
5.46,0.002353908301,-0.01553745765
5.47,0.001622000357,-0.01561748936
5.48,0.0008871125058,-0.01566042821
5.49,0.0001512300786,-0.01566615721
5.5,-0.0005836572196,-0.01563466974
5.51,-0.001315561608,-0.0155660697
5.52,-0.002042503524,-0.01546057122
5.53,-0.002762517895,-0.01531849806
5.54,-0.003473660364,-0.01514028266
5.55,-0.00417401345,-0.01492646476
5.56,-0.004861692614,-0.01467768973
5.57,-0.005534852229,-0.01439470653
5.58,-0.006191691407,-0.01407836533
5.59,-0.00683045969,-0.01372961478
5.6,-0.007449462565,-0.01334949899
5.61,-0.008047066798,-0.01293915416
5.62,-0.00862170556,-0.01249980493
5.63,-0.009171883331,-0.01203276044
5.64,-0.009696180573,-0.01153941009
5.65,-0.01019325814,-0.01102121907
5.66,-0.01066186142,-0.01047972366
5.67,-0.01110082421,-0.009916526216
5.68,-0.01150907228,-0.00933329003
5.69,-0.01188562662,-0.008731733968
5.7,-0.01222960642,-0.00811362692
5.71,-0.01254023165,-0.007480782101
5.72,-0.01281682536,-0.006835051215
5.73,-0.01305881564,-0.006178318497
5.74,-0.01326573716,-0.005512494664
5.75,-0.01343723247,-0.004839510781
5.76,-0.01357305285,-0.004161312076
5.77,-0.01367305881,-0.003479851717
5.78,-0.01373722032,-0.002797084574
5.79,-0.01376561654,-0.002114960991
5.8,-0.01375843531,-0.001435420583
5.81,-0.01371597221,-0.0007603860799
5.82,-0.01363862933,-9.175724585E-05
5.83,-0.01352691361,0.0005685951204
5.84,-0.01338143493,0.00121883507
5.85,-0.0132029038,0.00185716726
5.86,-0.01299212875,0.002481842567
5.87,-0.01275001339,0.003091163522
5.88,-0.01247755321,0.003683489577
5.89,-0.01217583201,0.004257242158
5.9,-0.01184601813,0.004810909502
5.91,-0.01148936034,0.005343051265
5.92,-0.01110718353,0.005852302878
5.93,-0.01070088414,0.006337379637
5.94,-0.01027192537,0.006797080527
5.95,-0.009821832177,0.007230291747
5.96,-0.009352186105,0.007635989947
5.97,-0.008864619923,0.008013245145
5.98,-0.008360812126,0.00836122334
5.99,-0.007842481293,0.008679188787
6,-0.007311380344,0.008966505947
