"Freq [GHz]","re(S(Antenna1_1_p1,Antenna1_1_p1)) []","im(S(Antenna1_1_p1,Antenna1_1_p1)) []"
3,0.0944041366123872,-0.048941168166587
3.002,0.0960377484009999,-0.0504073026291278
3.004,0.0976366533119265,-0.052001824678213
3.006,0.0991953714355175,-0.0537225452118325
3.008,0.100682405040052,-0.0555796988760777
3.01,0.101919524753274,-0.0576546766528913
3.012,0.103489251505996,-0.0596623372772454
3.014,0.104596607593707,-0.06193954924384
3.016,0.105797436318189,-0.064282021403087
3.018,0.107117323679242,-0.066666148186679
3.02,0.108111919256393,-0.069214251022505
3.022,0.10903125465066,-0.071865591319112
3.024,0.109818244636381,-0.074626162749568
3.026,0.110509936783118,-0.077482951224792
3.028,0.111080556397596,-0.080408053266353
3.03,0.111531418355707,-0.083389686938811
3.032,0.111820702704637,-0.086455016931385
3.034,0.111803134725011,-0.08955019244926
3.036,0.112054623023152,-0.092782051464279
3.038,0.111909621933437,-0.096018609615175
3.04,0.111659083290702,-0.099290907507268
3.042,0.111264440852807,-0.102588883321676
3.044,0.11068741729324,-0.105921658050039
3.046,0.10998755717387,-0.109283261848736
3.048,0.109120186177786,-0.112648375188616
3.05,0.108106508272269,-0.116009852520154
3.052,0.106929443781858,-0.119371341629705
3.054,0.10559264976155,-0.122704457629839
3.056,0.104151037000133,-0.126014542558182
3.058,0.10247495346365,-0.129294188352212
3.06,0.100568324578976,-0.13233997750134
3.062,0.0987670429675629,-0.135708536522313
3.064,0.0966847368892852,-0.138837063977263
3.066,0.0944492166064716,-0.141895994799194
3.068,0.0920825995980752,-0.144896852193156
3.07,0.0895599114139626,-0.1478116457789
3.072,0.0869133603794154,-0.150632843913082
3.074,0.0841335101497382,-0.153350597261131
3.076,0.0812402416650651,-0.155988627508602
3.078,0.0781884223653133,-0.158299174882142
3.08,0.0750795514152896,-0.160687747230073
3.082,0.0718448116700308,-0.16318955103249
3.084,0.068494635650247,-0.165363021590999
3.086,0.0650922874779667,-0.167146693468127
3.088,0.0615400855424046,-0.169285673126151
3.09,0.0579224373959499,-0.171010827175669
3.092,0.054249825140368,-0.172600391993825
3.094,0.0505755799332107,-0.173870082191958
3.096,0.0467050643744003,-0.175372321513094
3.098,0.0428412862129856,-0.176519011448897
3.1,0.0389535321491464,-0.177531512576316
3.102,0.0350268277713232,-0.17832896459408
3.104,0.0310763272048112,-0.179006699307592
3.106,0.027097333102691,-0.179513363886469
3.108,0.0231137423700803,-0.179893152867813
3.11,0.0191394237589295,-0.180047175601959
3.112,0.0151566208062531,-0.180090737056783
3.114,0.0111973952655584,-0.179958232991964
3.116,0.0072594267117158,-0.179667070162707
3.118,0.0033576328848076,-0.17917382627327
3.12,-0.000493617859811401,-0.178600421980144
3.122,-0.0043136982101512,-0.177824487504856
3.124,-0.0080562176981207,-0.176926167076503
3.126,-0.0117517208497142,-0.175872638113957
3.128,-0.0153657139650773,-0.174672549747773
3.13,-0.0189111254182329,-0.173335896021722
3.132,-0.0223521018766799,-0.171852643474102
3.134,-0.025723152230716,-0.170257633288731
3.136,-0.028776845622479,-0.168534316365617
3.138,-0.0321493781048252,-0.166717587471332
3.14,-0.0351974665699235,-0.164763983189134
3.142,-0.0381342435876558,-0.16270459249881
3.144,-0.0409404049936978,-0.160552994686205
3.146,-0.0436414988074512,-0.158324075292471
3.148,-0.0461821969496342,-0.155983957393098
3.15,-0.0486215491397121,-0.153592636236622
3.152,-0.050918696163063,-0.151112878193115
3.154,-0.053077870437823,-0.14857553870237
3.156,-0.0550555043315792,-0.145988691724885
3.158,-0.0569325265277657,-0.143362490889539
3.16,-0.0586711427018068,-0.140675804578072
3.162,-0.060200116977004,-0.137987580237263
3.164,-0.0616297319102148,-0.13526374911796
3.166,-0.0629093386771991,-0.13250836189777
3.168,-0.0640459527977878,-0.129786202893574
3.17,-0.0649971543007379,-0.127037772559821
3.172,-0.065729463328365,-0.124505244589584
3.174,-0.066414235440902,-0.121825796408355
3.176,-0.0670821786105904,-0.118950874050713
3.178,-0.0674850209555646,-0.116283488504705
3.18,-0.0677787628833719,-0.113694437123031
3.182,-0.0679031467343407,-0.111160306878046
3.184,-0.0679038531046394,-0.108666970656555
3.186,-0.0678033620690488,-0.106224644544373
3.188,-0.0675599795335233,-0.10386564599075
3.19,-0.0671676394074359,-0.101814256782557
3.192,-0.0667030476956117,-0.099407508238312
3.194,-0.0661451495600576,-0.097275462661998
3.196,-0.0654573737814375,-0.095494996016725
3.198,-0.0646886333802961,-0.093349854638217
3.2,-0.0638499465079762,-0.091773431668068
3.202,-0.0628714354273491,-0.089865819626932
3.204,-0.061917760573184,-0.088518666407445
3.206,-0.0607649159423099,-0.086807825397038
3.208,-0.0596107757334999,-0.085465745190586
3.21,-0.0583765037870784,-0.08427248134289
3.212,-0.0571535925042741,-0.083178692871009
3.214,-0.0559604391522763,-0.082420712866442
3.216,-0.0545399827320783,-0.081385565067167
3.218,-0.0532073165269802,-0.080690075389524
3.22,-0.0518509538105896,-0.080127732850005
3.222,-0.0504691421783105,-0.079701383916815
3.224,-0.0491019110511017,-0.079407500291418
3.226,-0.0477495342359182,-0.07921040990985
3.228,-0.0464404598264161,-0.079195160303954
3.23,-0.0451052139302065,-0.079282427022507
3.232,-0.0440494704834913,-0.079648499532175
3.234,-0.0426270374774804,-0.079883059478403
3.236,-0.041422744455483,-0.080351790696159
3.238,-0.0402738760588185,-0.080973209940569
3.24,-0.0391956618623694,-0.081659325017458
3.242,-0.0382126098199061,-0.082496222823793
3.244,-0.0372792679491684,-0.083428853727981
3.246,-0.036432535086613,-0.084469589960128
3.248,-0.0359106999719803,-0.085631862512137
3.25,-0.0352628482324992,-0.086863629487781
3.252,-0.0344582247769234,-0.088175411652633
3.254,-0.0340001076092231,-0.089581403943938
3.256,-0.0336493170020309,-0.091058549350383
3.258,-0.0334236662998637,-0.092622062841805
3.26,-0.033547122882013,-0.094182769268794
3.262,-0.0332987098452309,-0.095923162652253
3.264,-0.0334568480661025,-0.097631671072867
3.266,-0.0337238743431733,-0.099400845410483
3.268,-0.0341168862888425,-0.101204077393469
3.27,-0.0346660504109247,-0.103024262238985
3.272,-0.03532436349403,-0.104868167300156
3.274,-0.0361250850305963,-0.106739148329265
3.276,-0.0370871041217412,-0.108582716281629
3.278,-0.0381826717177944,-0.110431778046619
3.28,-0.0394080651485796,-0.112280087556684
3.282,-0.0407659178134739,-0.114097961579279
3.284,-0.0422662682411423,-0.115894370917745
3.286,-0.0439187744690687,-0.117641464255387
3.288,-0.0458632291628109,-0.119098499928274
3.29,-0.0476019234349762,-0.121008873501023
3.292,-0.0496406199239712,-0.122588046741529
3.294,-0.0518078088424589,-0.124129971102683
3.296,-0.054097556865602,-0.125575053191055
3.298,-0.0565028820390166,-0.126961658625541
3.3,-0.0590485206464852,-0.128231285275977
3.302,-0.061683906317401,-0.129409827351783
3.304,-0.064437186563971,-0.130503569450499
3.306,-0.067287174088186,-0.131464332826395
3.308,-0.070234228048481,-0.132321189149012
3.31,-0.073268143836183,-0.133058538151678
3.312,-0.076399486631738,-0.1336902191001
3.314,-0.079611560490602,-0.134140487250821
3.316,-0.082811020288956,-0.134249064539782
3.318,-0.086188610989156,-0.134698348760832
3.32,-0.089500383054918,-0.134497584274234
3.322,-0.093008954336244,-0.13466666940519
3.324,-0.096487462584161,-0.134436135012371
3.326,-0.100013341205144,-0.134074236766443
3.328,-0.103539117152334,-0.133514105078591
3.33,-0.107087645909514,-0.132808805389105
3.332,-0.110649936158803,-0.131940994955899
3.334,-0.114231733597751,-0.130945035823129
3.336,-0.117752513342604,-0.129742762709786
3.338,-0.121301430386247,-0.128414165478283
3.34,-0.124845075217002,-0.126938187123144
3.342,-0.128298923890126,-0.125268403739636
3.344,-0.131735848921499,-0.123454747472483
3.346,-0.135142915406659,-0.12149299575457
3.348,-0.138464133806631,-0.119366644805713
3.35,-0.141721533142474,-0.117101363371455
3.352,-0.144911007766631,-0.114684114231862
3.354,-0.147789651914032,-0.112045527880418
3.356,-0.151054796172974,-0.109437801472896
3.358,-0.153980519775741,-0.106609564906329
3.36,-0.156810510849048,-0.103646376237989
3.362,-0.159521667014194,-0.100556296614417
3.364,-0.161858809917034,-0.0973320928705198
3.366,-0.164619130267697,-0.0940245431686916
3.368,-0.166937223880099,-0.0906019105980128
3.37,-0.168899358051204,-0.0871000619234807
3.372,-0.171253169530098,-0.0834381744953162
3.374,-0.172898730306788,-0.0797978512383304
3.376,-0.174940923340842,-0.0759492862713154
3.378,-0.176292194699772,-0.0721730025865588
3.38,-0.17805891036718,-0.0681614626193595
3.382,-0.179120146540734,-0.0642873483576676
3.384,-0.180519242309887,-0.0601490713817444
3.386,-0.181502408563414,-0.056074087783935
3.388,-0.182328219426689,-0.0519751483904745
3.39,-0.182733932018798,-0.0480259396863831
3.392,-0.183262918059399,-0.0438757529072763
3.394,-0.183792629645402,-0.0395434795253839
3.396,-0.183909620937427,-0.0354360482427036
3.398,-0.183919158766031,-0.0312646042121993
3.4,-0.183708735067788,-0.0271859208221265
3.402,-0.183196295921073,-0.0233166865496012
3.404,-0.182825463171757,-0.0190522861660835
3.406,-0.182144444308559,-0.0150482313379242
3.408,-0.181291288758336,-0.01110743489605
3.41,-0.180292324831074,-0.0072263426566889
3.412,-0.179134378664713,-0.0034228061022155
3.414,-0.177823553979788,0.0003177681979009
3.416,-0.17637207151385,0.0039634730560564
3.418,-0.174740261635692,0.0072501101353919
3.42,-0.173028351929408,0.0107114876085235
3.422,-0.171206951848225,0.0143294454962195
3.424,-0.169215979168167,0.017574045455937
3.426,-0.167127183121508,0.0206885482202775
3.428,-0.164919711150079,0.0236846476053154
3.43,-0.162649903368331,0.0262730173188038
3.432,-0.160197074026248,0.0292743000683076
3.434,-0.157705656612069,0.0318966670091964
3.436,-0.155124881674843,0.0343134355625132
3.438,-0.152474876946747,0.0366305898327546
3.44,-0.149755419375315,0.0387883293554898
3.442,-0.146988348795395,0.0407516992649245
3.444,-0.144153625408002,0.0426220549212631
3.446,-0.141308059949934,0.0442796242980134
3.448,-0.138415693916294,0.0457932462991348
3.45,-0.135512916042751,0.0471537163560522
3.452,-0.132774776489694,0.0481393962745778
3.454,-0.129850647198179,0.0491900264816536
3.456,-0.126718189727762,0.0502683437120192
3.458,-0.123775263936086,0.0509994270146751
3.46,-0.120900085993375,0.0515449334693084
3.462,-0.11803861766974,0.0519504432824702
3.464,-0.115205492833315,0.0521879194637169
3.466,-0.11241108544024,0.05230115505154
3.468,-0.109704175854509,0.0522346857892047
3.47,-0.10703826440762,0.0520304828804226
3.472,-0.104444209328117,0.0517020780248729
3.474,-0.10192935167093,0.0512305640036166
3.476,-0.099500624086626,0.0506169031943116
3.478,-0.097160851580446,0.0498885478863468
3.48,-0.094922301121248,0.0490435098657556
3.482,-0.092799296350277,0.0480780910900513
3.484,-0.090740199499791,0.0469987320428373
3.486,-0.088870900261562,0.0458321503483406
3.488,-0.087085943725227,0.0445612279057411
3.49,-0.085428480156493,0.0432141034233574
3.492,-0.083908079945232,0.0417829355326897
3.494,-0.082524152423395,0.0402777743422793
3.496,-0.081272551092865,0.038707680471463
3.498,-0.080146283383101,0.0370729395738831
3.5,-0.0794710683886956,0.0355586682509316
3.502,-0.078394037666824,0.0337153626139651
3.504,-0.077731314354503,0.0319737724203738
3.506,-0.077217446335821,0.0302190547133141
3.508,-0.076865419528933,0.0284567975814342
3.51,-0.076654245343048,0.0266848110644722
3.512,-0.076593079045218,0.0249243729506368
3.514,-0.076692656967046,0.0231922879699
3.516,-0.076935523651291,0.0214472299242318
3.518,-0.077339355958324,0.0197438563035331
3.52,-0.077876667232516,0.0180856020573474
3.522,-0.078551251418488,0.0164999593494514
3.524,-0.07937565150727,0.0149399657592149
3.526,-0.080450204102351,0.0137833476828455
3.528,-0.081436696295635,0.0120462211344167
3.53,-0.082711265673279,0.0110163042667345
3.532,-0.084001657771472,0.0094862795320362
3.534,-0.085454193482063,0.0083403932724984
3.536,-0.087030350658135,0.0073150399105535
3.538,-0.088728628199494,0.006380164889104
3.54,-0.09048257489802,0.0058730777314222
3.542,-0.092380667893001,0.0048699633110213
3.544,-0.09435687498631,0.0043087562212127
3.546,-0.09639254633755,0.0038695797945896
3.548,-0.098530206649099,0.0035709303722344
3.55,-0.100697157231067,0.0034475850928438
3.552,-0.102929130056199,0.0034146986315516
3.554,-0.105239740684678,0.0035211104486826
3.556,-0.107553695588874,0.0038340645182487
3.558,-0.109912812474016,0.0042630603562887
3.56,-0.112297943820794,0.0048809822190024
3.562,-0.114500302702887,0.0058848994007256
3.564,-0.117089133857847,0.00655700282171011
3.566,-0.119470182456482,0.00762314341568541
3.568,-0.12187925543727,0.0088359874272709
3.57,-0.124218432378569,0.0102500564492099
3.572,-0.126563004781901,0.0117772274593531
3.574,-0.128835856114728,0.0135086583375179
3.576,-0.131067918822573,0.0153588920021303
3.578,-0.133267921036098,0.017359203326669
3.58,-0.135357438710155,0.0195317813759463
3.582,-0.137103394067755,0.0219698213221691
3.584,-0.139356109774027,0.024296756120838
3.586,-0.141220227950117,0.0268666064664247
3.588,-0.142992616597043,0.0296006182578896
3.59,-0.144330320279549,0.0325124046839944
3.592,-0.145867879129871,0.0354433570984159
3.594,-0.147613113001522,0.0384913752646786
3.596,-0.148914757963021,0.0416840511508876
3.598,-0.150074187331576,0.0449835787743024
3.6,-0.151097774716798,0.0483790616656428
3.602,-0.151982771254316,0.051864460563311
3.604,-0.152389536189454,0.0553693065873087
3.606,-0.153280415200802,0.0590698201430682
3.608,-0.153692712003851,0.0627820517650054
3.61,-0.153941397664548,0.0665549872999266
3.612,-0.154035862962881,0.0703524850602414
3.614,-0.15397857581643,0.0742169565469679
3.616,-0.153689705373914,0.0780903124335591
3.618,-0.153255485788756,0.082006280245539
3.62,-0.152655052952583,0.0859204510339458
3.622,-0.151873178288812,0.0898370951639597
3.624,-0.150925123726141,0.0937444177509854
3.626,-0.14955506285212,0.0974112921465147
3.628,-0.148471173606685,0.101515844123809
3.63,-0.146998299095703,0.105351902665369
3.632,-0.14531536352454,0.109159788492858
3.634,-0.143507511061614,0.112902708547207
3.636,-0.141502853412009,0.116587805638514
3.638,-0.139331543891026,0.120200534846804
3.64,-0.137010816017843,0.123722198752567
3.642,-0.134522417209116,0.127189467967104
3.644,-0.131877083632646,0.130541203862696
3.646,-0.129092675311053,0.133818694262607
3.648,-0.126082160805477,0.136598218650864
3.65,-0.123083943589315,0.13995123285186
3.652,-0.119835082111975,0.142500844099808
3.654,-0.116540160412655,0.145602891437948
3.656,-0.113088243244194,0.148226695617621
3.658,-0.109520778006905,0.150701642327148
3.66,-0.10585726402248,0.153019030460507
3.662,-0.102098497747944,0.155184182645842
3.664,-0.0982412987396043,0.157197111373797
3.666,-0.0943068368670947,0.159038929675651
3.668,-0.0902954330674271,0.160731511741292
3.67,-0.0862330330091147,0.162196165047007
3.672,-0.0821194450863519,0.163527197723068
3.674,-0.0779458231911932,0.164664387121169
3.676,-0.0737566363318499,0.165625036681703
3.678,-0.0695446614670144,0.166374789820789
3.68,-0.0652842750315285,0.166988656727218
3.682,-0.0610368643443316,0.167394603399147
3.684,-0.0567949226229687,0.167620739740662
3.686,-0.0525625017561483,0.167643255528165
3.688,-0.048358483844882,0.167511006186555
3.69,-0.0441452208658625,0.167195739055286
3.692,-0.0403301734812549,0.166477887014221
3.694,-0.035937609018515,0.165978331039341
3.696,-0.0318910128953013,0.165124344088246
3.698,-0.0279500732144635,0.164066836165544
3.7,-0.024062713439104,0.16287747412803
3.702,-0.0202629281477052,0.161505289349723
3.704,-0.0165560859193483,0.159981188796724
3.706,-0.0129562659190189,0.158308007791918
3.708,-0.0094596415829834,0.156487954879536
3.71,-0.0060799315842514,0.1545182408295
3.712,-0.0028273152681272,0.152420512011676
3.714,0.000294702922120998,0.150190809189918
3.716,0.0029189938195853,0.147873618195981
3.718,0.0061269513778379,0.145382263543269
3.72,0.0088139028550473,0.142817453780434
3.722,0.0113565995479612,0.140148435684807
3.724,0.013736169315791,0.137409110625697
3.726,0.0159553071740118,0.134564188797529
3.728,0.0180044604680448,0.131663884872823
3.73,0.0195305540268721,0.128874636945062
3.732,0.0216088465864937,0.125678609596342
3.734,0.0231366388533375,0.122625381178959
3.736,0.0244938300575177,0.119526914694801
3.738,0.0256679810860141,0.116412189686892
3.74,0.0266778843857233,0.113276001220037
3.742,0.0274998475464234,0.11013580995279
3.744,0.028143678083595,0.1070004294223
3.746,0.0286119456711423,0.103886057050493
3.748,0.0286945333140168,0.10109219091637
3.75,0.029024429740683,0.097720340177433
3.752,0.0289686039355076,0.094696437223967
3.754,0.0287439852010137,0.091738268430228
3.756,0.0283567827799997,0.088835252685486
3.758,0.0278168338075497,0.085974891274918
3.76,0.0270984873529348,0.083242159350421
3.762,0.0262394064113429,0.080583610331226
3.764,0.0252287542255435,0.078009510684489
3.766,0.0240809228473683,0.075531321175677
3.768,0.0227913464191009,0.073184978588851
3.77,0.0213631824247261,0.070934752546864
3.772,0.0198362731510292,0.068813920551422
3.774,0.0181874600785931,0.066833943232995
3.776,0.0164373030126362,0.064995852730683
3.778,0.0145600104737303,0.063280054121911
3.78,0.0127133928283746,0.062098253032047
3.782,0.0105916508494344,0.060329725203885
3.784,0.0084875999364397,0.059081061467062
3.786,0.00631818269575378,0.05800279819731
3.788,0.00407712557058185,0.057045952775673
3.79,0.00201378248985449,0.056657366157565
3.792,-0.00024328407404067,0.056091987691754
3.794,-0.00283700092766233,0.055300802329247
3.796,-0.00518815185358129,0.055058023842083
3.798,-0.00751909089056688,0.055015187912006
3.8,-0.00960633799044677,0.055392924259077
3.802,-0.0119218148870908,0.055655818540191
3.804,-0.014560925168064,0.055825201727454
3.806,-0.0168458779644245,0.056449123156585
3.808,-0.0190978467951475,0.057239303365074
3.81,-0.0212976090317502,0.058191176870413
3.812,-0.023048052840017,0.059499808268143
3.814,-0.0254569194419098,0.060596354739862
3.816,-0.0274571260276282,0.062027205411147
3.818,-0.0293545786078158,0.063611466219396
3.82,-0.0307367583359289,0.065446243751597
3.822,-0.0328496505507428,0.067198236612044
3.824,-0.0340584510890591,0.069263291789941
3.826,-0.0359113681985289,0.071336708316983
3.828,-0.0372641441506409,0.073585711954835
3.83,-0.0384725466338866,0.075948647022572
3.832,-0.0395332366670656,0.07841461618403
3.834,-0.040458581262779,0.080987363895142
3.836,-0.0412305812310386,0.083644988731143
3.838,-0.0418479592930771,0.086383444603797
3.84,-0.0423287451553201,0.089212573788522
3.842,-0.0425886610334728,0.092076159121449
3.844,-0.0423071321168313,0.094833873696506
3.846,-0.042694684632727,0.098005473912342
3.848,-0.042081370571127,0.100803615939313
3.85,-0.0420208691994145,0.104041392823336
3.852,-0.041431936987341,0.10710257367577
3.854,-0.0406649145221037,0.110164094477413
3.856,-0.0397205217336386,0.113222799794251
3.858,-0.0385991049200556,0.116266645694237
3.86,-0.037291311253223,0.119284037264943
3.862,-0.0355496530745496,0.12195614297826
3.864,-0.0341418725009216,0.125211362534821
3.866,-0.0323118757207929,0.128101904965613
3.868,-0.0302934049004554,0.130929132260543
3.87,-0.0279342572804879,0.133318733825022
3.872,-0.0257779961623347,0.136388879306482
3.874,-0.0232622373750929,0.138937530100894
3.876,-0.0206045819024461,0.141415465599267
3.878,-0.0177896946497583,0.14379100225413
3.88,-0.0148286326113648,0.146072533255995
3.882,-0.0116721813479902,0.147760297949816
3.884,-0.0085137915743741,0.150160300591439
3.886,-0.0051481726470257,0.152050092264021
3.888,-0.0016777819821826,0.153719596134479
3.89,0.0018971400360879,0.155275512619916
3.892,0.0055975127476088,0.156674948684054
3.894,0.0093610120076607,0.157901284223631
3.896,0.0131380354383541,0.15854721062488
3.898,0.0171744646998694,0.159831045769923
3.9,0.0210371194715106,0.160135748673221
3.902,0.0252393372625812,0.161048210328045
3.904,0.0293654898831329,0.161409687162914
3.906,0.0332988066645004,0.161151137328086
3.908,0.037664480579716,0.161463619282025
3.91,0.0418394716267193,0.16119488232794
