"Freq [GHz]","re(S(Antenna1_1_p1,Antenna1_1_p1)) []","im(S(Antenna1_1_p1,Antenna1_1_p1)) []"
3,0.100987640062387,-0.049814522386587
3.002,0.102564218903,-0.0516510005891278
3.004,0.104090999761926,-0.053626212998213
3.006,0.105546174865517,-0.0557228963218325
3.008,0.106922192810052,-0.0579346055760777
3.01,0.108042201773275,-0.0603540798028913
3.012,0.109423164445996,-0.0627123628272454
3.014,0.110394001403707,-0.06531367308384
3.016,0.11140364735819,-0.067984459903087
3.018,0.112458104529242,-0.070704660606679
3.02,0.113219169046394,-0.073562983612505
3.022,0.11387472002066,-0.076503663009112
3.024,0.114401692036381,-0.079539572699568
3.026,0.114803934103118,-0.082648411274792
3.028,0.115075408677596,-0.085812499586353
3.03,0.115204682145707,-0.089022276388811
3.032,0.115180131994637,-0.092289796271385
3.034,0.114866731555011,-0.09558703096926
3.036,0.114700247353152,-0.098978619884279
3.038,0.114219839993437,-0.102355220276175
3.04,0.113594506350702,-0.105765361953268
3.042,0.112803807222807,-0.109180542862676
3.044,0.11186750283324,-0.112587922083039
3.046,0.11078169317387,-0.116000847959736
3.048,0.109523631937786,-0.119414197707616
3.05,0.108112183262269,-0.122787081631254
3.052,0.106536283031858,-0.126132524680705
3.054,0.10482205590155,-0.129442040983839
3.056,0.102975463090133,-0.132696371100182
3.058,0.10092955886365,-0.135903111020212
3.06,0.0986715621789762,-0.13888187576134
3.062,0.0964535634975629,-0.142100590692313
3.064,0.0940112175392852,-0.145089673717263
3.066,0.0914214710764716,-0.147986855829194
3.068,0.0886926418880752,-0.150801850893156
3.07,0.0858365915439626,-0.1535084681489
3.072,0.0828656994494154,-0.156103544623082
3.074,0.0797854811497382,-0.158592004971131
3.076,0.0765877217050651,-0.160957279228602
3.078,0.0732705421153133,-0.163045489022142
3.08,0.0698874152252896,-0.165126562890073
3.082,0.0663974184500308,-0.16728327471249
3.084,0.062840437260247,-0.169137045690999
3.086,0.0592176848879667,-0.170625616288127
3.088,0.0554707722724046,-0.172357149806151
3.09,0.0517035766359499,-0.173753002095669
3.092,0.047874179570368,-0.174983758893825
3.094,0.0440658219982107,-0.175916489461958
3.096,0.0401002100004003,-0.176988186543094
3.098,0.0361407904179856,-0.177732562098897
3.1,0.0322074980431464,-0.178353389626316
3.102,0.0282509365383232,-0.17878243420408
3.104,0.0242885186238112,-0.179063902497592
3.106,0.020317519022891,-0.179190481246469
3.108,0.0163744958030803,-0.179149732417813
3.11,0.0124527140899295,-0.178939959101959
3.112,0.0085539675982531,-0.178590901346783
3.114,0.0046983606855584,-0.178067758381964
3.116,0.0008817057417158,-0.177405395222707
3.118,-0.0028856213451924,-0.17656989495327
3.12,-0.0065609743698114,-0.175626279940144
3.122,-0.0102014157201512,-0.174497756904856
3.124,-0.0137335318781207,-0.173282773996503
3.126,-0.0172032906397142,-0.171920465663957
3.128,-0.0205774996250773,-0.170412406607773
3.13,-0.0238598737482329,-0.168787222831722
3.132,-0.0270415063866799,-0.167051109124102
3.134,-0.030116615460716,-0.165189591678731
3.136,-0.032899052202479,-0.163229672385617
3.138,-0.0359135325448252,-0.161172008701332
3.14,-0.0386346172199235,-0.159022214679134
3.142,-0.0412331641476558,-0.15678860137881
3.144,-0.0436952819136978,-0.154472073826205
3.146,-0.0460208366474512,-0.152094604882471
3.148,-0.0482215173996342,-0.149644776313098
3.15,-0.0502730668397121,-0.147146008566622
3.152,-0.052186382733063,-0.144590213257115
3.154,-0.053971102447823,-0.14200365458437
3.156,-0.0555846118115792,-0.139388932357885
3.158,-0.0570764700177657,-0.136750366617139
3.16,-0.0584269066918068,-0.134075989362072
3.162,-0.059615455737004,-0.131420205661263
3.164,-0.0606641214102148,-0.12875651783296
3.166,-0.0615561260571991,-0.12608693461377
3.168,-0.0623444145577878,-0.123458616422574
3.17,-0.0629503050707379,-0.120819279905821
3.172,-0.063357542098365,-0.118390595439584
3.174,-0.063702984990902,-0.115878307728355
3.176,-0.0640198472805904,-0.113205967680713
3.178,-0.0641001822355646,-0.110738471504705
3.18,-0.0640881575033719,-0.108361472653031
3.182,-0.0639240261943407,-0.106044588678046
3.184,-0.0636510222846394,-0.103785752846555
3.186,-0.0632997399490488,-0.101610987964373
3.188,-0.0627880792935233,-0.09952984458075
3.19,-0.0621866438274359,-0.097705949342557
3.192,-0.0615173475656117,-0.095629997358312
3.194,-0.0607408775800576,-0.093829907441998
3.196,-0.0599001710314375,-0.092306726986725
3.198,-0.0589471544702961,-0.090541815878217
3.2,-0.0579795322479762,-0.089235917488068
3.202,-0.0568902557473491,-0.087715715526932
3.204,-0.055822811813184,-0.086673608647445
3.206,-0.0546026766123099,-0.085359563507038
3.208,-0.0533832590434999,-0.084373608810586
3.21,-0.0521204846290784,-0.08351181885289
3.212,-0.0508762132692741,-0.082770883191009
3.214,-0.0496616924302763,-0.082319064956442
3.216,-0.0482795650070783,-0.081666114667167
3.218,-0.0469899994639802,-0.081330376749524
3.22,-0.0456887818358896,-0.081106936980005
3.222,-0.0443833336303105,-0.081027843506815
3.224,-0.0431094958761017,-0.081071650401418
3.226,-0.0418757242569182,-0.08120369583985
3.228,-0.0406908119164161,-0.081496067203954
3.23,-0.0395099928202065,-0.081895012352507
3.232,-0.0385668703534913,-0.082508968812175
3.234,-0.0373658778174804,-0.083068839208403
3.236,-0.036361081745483,-0.083821026776159
3.238,-0.0354207871188185,-0.084707879150569
3.24,-0.0345760998723694,-0.085646872377458
3.242,-0.0338189435399061,-0.086727986243793
3.244,-0.0331434211891684,-0.087884296507981
3.246,-0.032549514526613,-0.089139603210128
3.248,-0.0322449201519803,-0.090492314122137
3.25,-0.0318697681424992,-0.091900876447781
3.252,-0.0314108460969234,-0.093393642332633
3.254,-0.0312492136392231,-0.094948956623938
3.256,-0.0312069434420309,-0.096563060060383
3.258,-0.0312871539498637,-0.098234788451805
3.26,-0.031669947832013,-0.099895014358794
3.262,-0.0318092076152309,-0.101705363742253
3.264,-0.0322807467061025,-0.103484506992867
3.266,-0.0328647048131733,-0.105294652292483
3.268,-0.0335873824888425,-0.107125994384469
3.27,-0.0344672840409247,-0.108948600526985
3.272,-0.03544165902403,-0.110802617296256
3.274,-0.0365600909805963,-0.112636193447265
3.276,-0.0378383877017412,-0.114437982461829
3.278,-0.0392496033377944,-0.116232799445619
3.28,-0.0407796775885796,-0.118010161318684
3.282,-0.0424492622034739,-0.119730690130279
3.284,-0.0442533343811423,-0.121416895760745
3.286,-0.0462030542090687,-0.123041943585387
3.288,-0.0483936180828109,-0.124380682998274
3.29,-0.0504413893249762,-0.126114274511023
3.292,-0.0527515824339712,-0.127524358041529
3.294,-0.0551762082824589,-0.128893068732683
3.296,-0.057713472225602,-0.130140910761055
3.298,-0.0603675114690166,-0.131318543385541
3.3,-0.0631245536164852,-0.132369115205977
3.302,-0.065979495787401,-0.133318380681783
3.304,-0.068927316463971,-0.134166449020499
3.306,-0.071966181238186,-0.134888364456395
3.308,-0.075080604168481,-0.135477969389012
3.31,-0.078275581476183,-0.135950562531678
3.312,-0.081551514911738,-0.136292051730101
3.314,-0.084887618880602,-0.136465536280821
3.316,-0.088213339578956,-0.136348056739782
3.318,-0.091683106619156,-0.136442338270832
3.32,-0.095078651574918,-0.136003389434234
3.322,-0.098643365636244,-0.13581474678519
3.324,-0.102171847355161,-0.135280337172371
3.326,-0.105725703471144,-0.134595114276443
3.328,-0.109275818564334,-0.133726937958591
3.33,-0.112830087559414,-0.132726907829105
3.332,-0.116360189511803,-0.131549593505899
3.334,-0.119912451972151,-0.130244159813129
3.336,-0.123397049315604,-0.128752351539786
3.338,-0.126877588045247,-0.127118436538283
3.34,-0.130324955300002,-0.125331801433144
3.342,-0.133700670260126,-0.123380500929636
3.344,-0.137025101541499,-0.121285344132483
3.346,-0.140300831246659,-0.11904466939457
3.348,-0.143483901706631,-0.116646510815713
3.35,-0.146586824262474,-0.114114234451455
3.352,-0.149615364466631,-0.111445151921862
3.354,-0.152362931464032,-0.108574768910418
3.356,-0.155379406252974,-0.105706052292896
3.358,-0.158101336415741,-0.102648967196329
3.36,-0.160708349979048,-0.0994695254879887
3.362,-0.163192400904194,-0.0961826380144171
3.364,-0.165349077637034,-0.0927822585205198
3.366,-0.167789428347697,-0.0892893103686916
3.368,-0.169854136010099,-0.0857115420080128
3.37,-0.171623082461204,-0.0820425343034807
3.372,-0.173614782060098,-0.0782486907753162
3.374,-0.175070505526788,-0.0744727579583304
3.376,-0.176748770150842,-0.0705347626713154
3.378,-0.177870505179772,-0.0666650724465588
3.38,-0.17926796500718,-0.0625653654993595
3.382,-0.180105810680734,-0.0586228763236676
3.384,-0.181133799809887,-0.0544620749667444
3.386,-0.181806458373414,-0.050354481591935
3.388,-0.182326978256689,-0.0462406852241745
3.39,-0.182481436888798,-0.0422873877333831
3.392,-0.182700681939399,-0.0381495267844763
3.394,-0.182867530005402,-0.0338961199123839
3.396,-0.182686894077427,-0.0298210257477036
3.398,-0.182383113276031,-0.0257538964611993
3.4,-0.181887970677788,-0.0217430788521265
3.402,-0.181131504971073,-0.0179201171596012
3.404,-0.180439512961757,-0.0138334770060835
3.406,-0.179464848068559,-0.0099625310279242
3.408,-0.178343756598336,-0.00617180604605
3.41,-0.177080627291074,-0.0024453026666889
3.412,-0.175666612814713,0.0011819110377845
3.414,-0.174111745009788,0.0047311548079009
3.416,-0.17242523529385,0.0081769627360564
3.418,-0.170589608305692,0.0113099097653919
3.42,-0.168650903019408,0.0145349014485235
3.422,-0.166613277278225,0.0178575317962195
3.424,-0.164448152028167,0.020850394525937
3.426,-0.162180551141508,0.0236874962502775
3.428,-0.159817591370079,0.0264300891453154
3.43,-0.157397091728331,0.0288083575688038
3.432,-0.154826389306248,0.0314510446883076
3.434,-0.152207886932069,0.0337711124391964
3.436,-0.149530057214843,0.0359023504825132
3.438,-0.146803175019747,0.0379029449527546
3.44,-0.144012520868315,0.0397488873454898
3.442,-0.141200341447395,0.0414177666649245
3.444,-0.138342767832002,0.0429566749412631
3.446,-0.135488899006934,0.0443005975880134
3.448,-0.132587159561294,0.0455048104791348
3.45,-0.129698434438751,0.0465506067060523
3.452,-0.126958660686694,0.0472856225845778
3.454,-0.124083982826179,0.0480136121316536
3.456,-0.121065415417762,0.0487255616820192
3.458,-0.118208420446086,0.0491402575146751
3.46,-0.115442244303375,0.0493892055093084
3.462,-0.11270111011974,0.0494922702024702
3.464,-0.110000783953315,0.0494612424837169
3.466,-0.10737424292024,0.04927001931154
3.468,-0.104825360044509,0.0489399813392047
3.47,-0.10234087022762,0.0484908547204226
3.472,-0.099936613048117,0.0479003776948729
3.474,-0.09763386436093,0.0471803815636166
3.476,-0.095427393216626,0.0463473105343116
3.478,-0.093324009560446,0.0453920230663468
3.48,-0.091331118241248,0.0443366917257556
3.482,-0.089474744950277,0.0431851777000513
3.484,-0.087691742329791,0.0419263014228373
3.486,-0.086083407351562,0.0405998709383406
3.488,-0.084585613495227,0.0391850495157411
3.49,-0.083231343356493,0.0376978992333574
3.492,-0.082003304595232,0.0361501086026897
3.494,-0.080927786463395,0.0345501710822793
3.496,-0.079995690902865,0.032888956431463
3.498,-0.079187823093101,0.0312028314738831
3.5,-0.0787558401686956,0.0296154207609316
3.502,-0.078070680166824,0.0277580627115651
3.504,-0.077743480744503,0.0260077562473738
3.506,-0.077553752825821,0.0242744827445141
3.508,-0.077527139438933,0.0225321736724342
3.51,-0.077644963643048,0.0207993868094722
3.512,-0.077896264315218,0.0190722812036368
3.514,-0.078310192447046,0.0174231574599
3.516,-0.078867148341291,0.0157708979342318
3.518,-0.079559999078324,0.0142043859935331
3.52,-0.080410747282516,0.0126479368473474
3.522,-0.081380566718488,0.0112118213094514
3.524,-0.08249781417727,0.0098153384092149
3.526,-0.083817696722351,0.00875962969284549
3.528,-0.085098014765635,0.0072818281444167
3.53,-0.086609950243279,0.0063839230667345
3.532,-0.088169607931472,0.0051274723520362
3.534,-0.089855611742063,0.0042364433324984
3.536,-0.091650815298135,0.0034407959305535
3.538,-0.093554180959494,0.002745410649104
3.54,-0.09550419763802,0.0024519270214222
3.542,-0.097586188893001,0.0017970524010213
3.544,-0.09970476634631,0.0015160716112127
3.546,-0.10189329251755,0.0013768166545896
3.548,-0.104172060319099,0.0013661257822344
3.55,-0.106450492181067,0.0015501820128438
3.552,-0.108788037036199,0.0018401462915516
3.554,-0.111173894057678,0.0022790978386826
3.556,-0.113557531123874,0.0029092631782487
3.558,-0.115958635610016,0.0036797140262887
3.56,-0.118364671925294,0.0046037391990024
3.562,-0.120629953565887,0.0058677676407256
3.564,-0.123168031567437,0.0069315251617101
3.566,-0.125521321653482,0.0083400806856854
3.568,-0.12787966196527,0.00989340970727089
3.57,-0.130180986053569,0.0116199565992099
3.572,-0.132422595731901,0.0134801008793531
3.574,-0.134604838084728,0.0155091820275179
3.576,-0.136731750782573,0.0176859850721303
3.578,-0.138792959996098,0.019993504076669
3.58,-0.140736831420155,0.0224651665659463
3.582,-0.142389867597755,0.0251449463421691
3.584,-0.144390761004027,0.027790694520838
3.586,-0.146065265730117,0.0306444081364247
3.588,-0.147634294697043,0.0336279529678896
3.59,-0.148818969489549,0.0367519017039944
3.592,-0.150123894309871,0.0399393831484159
3.594,-0.151546535631522,0.0432328111746786
3.596,-0.152593891663021,0.0466420251008876
3.598,-0.153469732441576,0.0501406221043024
3.6,-0.154221140206798,0.0537149307256428
3.602,-0.154813613104316,0.057368588263311
3.604,-0.154993621359454,0.0610214983073087
3.606,-0.155509615390802,0.0648619997430682
3.608,-0.155594938943851,0.0686776459850054
3.61,-0.155530923794548,0.0725391458199266
3.612,-0.155282618862881,0.0764372167472414
3.614,-0.15488121334643,0.0803589124579679
3.616,-0.154292479873914,0.0842914463795591
3.618,-0.153520229428756,0.088218976986339
3.62,-0.152577749872583,0.0921415999549458
3.622,-0.151452907168811,0.0960511715055597
3.624,-0.150165897726141,0.0999571800159854
3.626,-0.14852042826212,0.103607306195515
3.628,-0.147045980836685,0.107603598593809
3.63,-0.145230200285703,0.111360543395369
3.632,-0.14324147874454,0.115086998382858
3.634,-0.141089926111614,0.118711016257207
3.636,-0.138773355022009,0.122243085528514
3.638,-0.136305665071026,0.125713379046804
3.64,-0.133672995937843,0.129062628372567
3.642,-0.130901828789116,0.132346757227104
3.644,-0.127985343732646,0.135515301422696
3.646,-0.124921271361053,0.138563401272606
3.648,-0.121688300165477,0.141191170360864
3.65,-0.118416903649315,0.14423091671186
3.652,-0.114955095961975,0.146622303669808
3.654,-0.111424896502655,0.149359523637948
3.656,-0.107773730664194,0.151700080637621
3.658,-0.104006211996905,0.153900389217148
3.66,-0.10018477498248,0.155918332190507
3.662,-0.0962655221579445,0.157758390545842
3.664,-0.0922720258096043,0.159445198013797
3.666,-0.0882197891670947,0.160964352165651
3.668,-0.0841024890374271,0.162335800001292
3.67,-0.0799538235771147,0.163466344607007
3.672,-0.0757605103793519,0.164457932093068
3.674,-0.0715565398191932,0.165244102751169
3.676,-0.0673119385045499,0.165869796431703
3.678,-0.0630894190620144,0.166261326560789
3.68,-0.0588574353352285,0.166517650577218
3.682,-0.0546365250043316,0.166575954589147
3.684,-0.0504334176379687,0.166448077410662
3.686,-0.0462789146361483,0.166130117378165
3.688,-0.042149341924882,0.165651406386555
3.69,-0.0380386501558625,0.164995310625286
3.692,-0.0342696448312549,0.164001605474221
3.694,-0.030089682358515,0.163120781439341
3.696,-0.0261921033753013,0.161947188058246
3.698,-0.0224213377744635,0.160604858975544
3.7,-0.018737759769104,0.15909787950803
3.702,-0.0151422947577052,0.157438636579723
3.704,-0.0116691301493483,0.155637942316724
3.706,-0.0083092175890189,0.153693701121918
3.708,-0.0050510377029834,0.151621541399536
3.71,-0.0019291751142514,0.1494114562395
3.712,0.0010494620318728,0.147085445251676
3.714,0.003860456782121,0.144646123099918
3.716,0.0062933322995853,0.142139340265981
3.718,0.0090911921478379,0.139461940633269
3.72,0.0114564280750473,0.136734423080434
3.722,0.0136666651079612,0.133917016374807
3.724,0.015698559935791,0.131053892205697
3.726,0.0175602753140118,0.128114125057529
3.728,0.0192639946780448,0.125109635533823
3.73,0.0205027649168721,0.122249939051062
3.732,0.0221280941764937,0.119019524898342
3.734,0.0233027677033375,0.115934628399859
3.736,0.0242915583575177,0.112832139068801
3.738,0.0250991293560141,0.109727377777592
3.74,0.0257453141557233,0.106623303285037
3.742,0.0262029450164234,0.10353180188579
3.744,0.026472721933595,0.1004818144523
3.746,0.0266015534511423,0.097452757040493
3.748,0.0263889262140168,0.09469647776637
3.75,0.026305726920683,0.091523505347433
3.752,0.0259028810555076,0.088656923483967
3.754,0.0253514183110137,0.085850357310228
3.756,0.0246443434299997,0.083134342395486
3.758,0.0237813287175497,0.080483591454918
3.76,0.0227629790229348,0.077969478750421
3.762,0.0216253147513429,0.075557660041226
3.764,0.0203253998855435,0.073248300004489
3.766,0.0189184519473683,0.071039873355677
3.768,0.0173883737391009,0.068968096038851
3.77,0.0157280075047261,0.067021262396864
3.772,0.0139782444110292,0.065199374081422
3.774,0.0121365087585931,0.063542091302995
3.776,0.0101973620026362,0.062037492780683
3.778,0.0081756397037303,0.060681128721911
3.78,0.0061789774783746,0.059746257492047
3.782,0.0039322046994344,0.058443516003885
3.784,0.0017243110964397,0.057561584477062
3.786,-0.000523344107246221,0.05684304564731
3.788,-0.00281655129141815,0.056286741325673
3.79,-0.00496982282814551,0.056161509577565
3.792,-0.00724326939144067,0.055990924721754
3.794,-0.00978965015366233,0.055686331039247
3.796,-0.0121165430240813,0.055824067102083
3.798,-0.0144191580685669,0.056169192742006
3.8,-0.0164894289734468,0.056844569369077
3.802,-0.0187360049670908,0.057479527290191
3.804,-0.021189435548064,0.058113954907454
3.806,-0.0233555385444245,0.059097590836585
3.808,-0.0254556343151475,0.060244790605074
3.81,-0.0274963405517502,0.061548048480413
3.812,-0.0291304610000171,0.063131108488143
3.814,-0.0312788995819098,0.064624535269862
3.816,-0.0330584412776282,0.066382439051147
3.818,-0.0346880641678158,0.068271119149396
3.82,-0.0358892906359289,0.070350199261597
3.822,-0.0376503674207428,0.072423743272044
3.824,-0.0386800742490591,0.074730964619941
3.826,-0.0401225300585289,0.077076574656983
3.828,-0.0411708871506409,0.079553853804835
3.83,-0.0420264436338866,0.082136922102572
3.832,-0.0427505068370656,0.08479756903403
3.834,-0.043324900072779,0.087553783175142
3.836,-0.0437338696610386,0.090371096811143
3.838,-0.0439780890030771,0.093238095803797
3.84,-0.0440731518853201,0.096183488668522
3.842,-0.0439456644834728,0.099135747601449
3.844,-0.0433487563768313,0.101974347419506
3.846,-0.043242911592727,0.105174278866342
3.848,-0.042339486691127,0.108041755595313
3.85,-0.0417794415194145,0.111248917656836
3.852,-0.040790944327341,0.11429414438477
3.854,-0.0396341062521037,0.117313598301213
3.856,-0.0382907099036386,0.120315748899251
3.858,-0.0367730838600556,0.123278698746237
3.86,-0.035083727433223,0.126210162204943
3.862,-0.0330513576545496,0.12881526399826
3.864,-0.0311762382809216,0.131845703604821
3.866,-0.0289754667407929,0.134564319425613
3.868,-0.0266031771604554,0.137209110090543
3.87,-0.0239602761704879,0.139458419215022
3.872,-0.0214041564923347,0.142231011366482
3.874,-0.0185665243450929,0.144545159880894
3.876,-0.0156026034424461,0.146763087939267
3.878,-0.0124906487597583,0.14883183552413
3.88,-0.00926474328136481,0.150792641615995
3.882,-0.0058833873079902,0.152288940549816
3.884,-0.0024405666843741,0.154267285201439
3.886,0.0011521280129743,0.155802298764021
3.888,0.0048225045178174,0.157136633254479
3.89,0.0085915096460879,0.158326216549916
3.892,0.0124470488376088,0.159363493984054
3.894,0.0163559069876607,0.160183488963631
3.896,0.0202555737583541,0.16054908751488
3.898,0.0243865281198694,0.161344605099923
3.9,0.0283513767215106,0.161353824943221
3.902,0.0325889099705812,0.161746874018045
3.904,0.0367453063631329,0.161684152542914
3.906,0.0407192144455004,0.161135028168086
3.908,0.045044845872616,0.160936707942025
3.91,0.0491879169287193,0.16026588400794
