"Freq [GHz]","re(S(Antenna1_1_p1,Antenna1_1_p1)) []","im(S(Antenna1_1_p1,Antenna1_1_p1)) []"
3,0.0603282505923872,-0.104298098256587
3.002,0.0588797186529999,-0.103737742194128
3.004,0.0575164923519265,-0.103138013239213
3.006,0.0562317127055175,-0.102495565226833
3.008,0.0550344969300517,-0.101828023229078
3.01,0.0539174748132745,-0.101143484494891
3.012,0.0528868005459965,-0.100445409819345
3.014,0.0519381294537069,-0.09972443475274
3.016,0.0510918779981895,-0.098999851376087
3.018,0.0503233516592424,-0.098273708636679
3.02,0.0496426716463935,-0.097553652471505
3.022,0.0490446618306598,-0.096850867301112
3.024,0.0485275584663809,-0.096159155234568
3.026,0.0480913166031175,-0.095491074874792
3.028,0.0477467766175956,-0.094836335346353
3.03,0.0474677389357071,-0.094224966318811
3.032,0.0472661777846373,-0.093650837831385
3.034,0.0471466376250112,-0.09311629769926
3.036,0.0470896979431525,-0.092624402004279
3.038,0.0470911519534368,-0.092181172505175
3.04,0.0471572786307017,-0.091798260327268
3.042,0.047296358172807,-0.091469828911676
3.044,0.04747569085324,-0.091209489774039
3.046,0.0477063595638701,-0.091010241792736
3.048,0.047987735687786,-0.090879757646616
3.05,0.0483040084822692,-0.090809536832254
3.052,0.048650663041858,-0.090829991960705
3.054,0.04903594134155,-0.090930322053839
3.056,0.0494659139621328,-0.091107457840182
3.058,0.0498750493026504,-0.091344488370212
3.06,0.0503232384219762,-0.09168087761134
3.062,0.0507749548765629,-0.092085782572313
3.064,0.0512203950232852,-0.092579990967263
3.066,0.0517008811532716,-0.093169008899194
3.068,0.0521434953504752,-0.093830578763156
3.07,0.0525664578259626,-0.0945751393189
3.072,0.0529957197604154,-0.095411230703082
3.074,0.0533983913237382,-0.096324870221131
3.076,0.0537684257480651,-0.097304446648602
3.078,0.0541109383983133,-0.098383773172142
3.08,0.0544059088552896,-0.099532422550073
3.082,0.0546528589800308,-0.10075383139249
3.084,0.054867524930247,-0.102076112870999
3.086,0.0550118311479667,-0.103423970858127
3.088,0.0551070368824046,-0.104865205226151
3.09,0.0551442818659499,-0.106370516095669
3.092,0.055099716730368,-0.107936587573825
3.094,0.0549939443332107,-0.109546930581958
3.096,0.0548096206044003,-0.111213101403094
3.098,0.0545470306329856,-0.112937613898897
3.1,0.0542096017441464,-0.114690429076316
3.102,0.0537750792463232,-0.11651019942408
3.104,0.0532801685988112,-0.118358956967592
3.106,0.052676539068891,-0.120220586326469
3.108,0.0519669959100803,-0.122106396617813
3.11,0.0511875641399295,-0.124027548894959
3.112,0.0503055493482531,-0.125938484730783
3.114,0.0493166440255584,-0.127883450505964
3.116,0.0482379962917158,-0.129825914668707
3.118,0.0470494408448076,-0.13176341734727
3.12,0.0457788675601886,-0.133690009352144
3.122,0.0444063926098488,-0.135603334301556
3.124,0.0429365679318793,-0.137497627098503
3.126,0.0413497960502858,-0.139385704391957
3.128,0.0396872952549227,-0.141233044483773
3.13,0.0379218894217671,-0.143043296247722
3.132,0.0360419800833201,-0.144817971681102
3.134,0.034093693979284,-0.146548933208731
3.136,0.032056938097521,-0.148215729965617
3.138,0.0299253826051748,-0.149831954351332
3.14,0.0277077045800765,-0.151392602349134
3.142,0.0253957748823442,-0.15287999962881
3.144,0.0229981706063022,-0.154302176206205
3.146,0.0205405487425488,-0.155645003712471
3.148,0.0180147232703658,-0.156918203713098
3.15,0.0154219101102879,-0.158105542046622
3.152,0.012766546736937,-0.159200632523115
3.154,0.010048112042177,-0.16020922733237
3.156,0.0072593466584208,-0.161127170991885
3.158,0.00444708682223433,-0.161950361114539
3.16,0.0015701596881932,-0.162672824636072
3.162,-0.001354138587004,-0.163298393052263
3.164,-0.0043023212122148,-0.16381178723596
3.166,-0.0072701765141991,-0.16422728890377
3.168,-0.0102691454837878,-0.164542772602574
3.17,-0.0133055905727379,-0.164730458345821
3.172,-0.016327539294365,-0.164822779719584
3.174,-0.019366771709902,-0.164798807358355
3.176,-0.0224034687709904,-0.164670023530713
3.178,-0.0254535532465646,-0.164429988964705
3.18,-0.0284826962623719,-0.164086347273031
3.182,-0.0315076790603407,-0.163632475788046
3.184,-0.0345114876036394,-0.163066226756555
3.186,-0.0374917043410488,-0.162389226854373
3.188,-0.0404272890285233,-0.16161468488075
3.19,-0.0433253218374359,-0.160742756482557
3.192,-0.0461999442156117,-0.159756736548312
3.194,-0.0490178961300576,-0.158672709431998
3.196,-0.0517753835514375,-0.157492280746725
3.198,-0.0544902272102961,-0.156224797178217
3.2,-0.0571451026679762,-0.154878827768068
3.202,-0.0597330263073491,-0.153410902106932
3.204,-0.062254282353184,-0.151894169477445
3.206,-0.0646949001123099,-0.150279918737038
3.208,-0.0670583644034999,-0.148614773870586
3.21,-0.0693515914570784,-0.14684039305289
3.212,-0.0715650925642741,-0.145026602051009
3.214,-0.0736757779662763,-0.143147110906442
3.216,-0.0757101422130783,-0.141211153957167
3.218,-0.0776544340919802,-0.139231238889524
3.22,-0.0794882725758896,-0.137203933930005
3.222,-0.0812500252113105,-0.135122133261815
3.224,-0.0828930995561017,-0.133015301923418
3.226,-0.0844552393569182,-0.13086970575485
3.228,-0.0859113742164161,-0.128712568284954
3.23,-0.0872706792002065,-0.126515598906607
3.232,-0.0885285383134913,-0.124330864241175
3.234,-0.0896894372074804,-0.122107289459403
3.236,-0.090743981505483,-0.119903510297159
3.238,-0.0917158836988185,-0.117691587598569
3.24,-0.0925737804523694,-0.115487197095458
3.242,-0.0933477658699061,-0.113302998025793
3.244,-0.0940166424291684,-0.111121190227981
3.246,-0.094598013676613,-0.108969158200128
3.248,-0.0950686730519803,-0.106839547252137
3.25,-0.0954705165124992,-0.104752742897781
3.252,-0.0957905478369234,-0.102707952202633
3.254,-0.0960076362092231,-0.100691711603938
3.256,-0.0961624000120309,-0.098722167480383
3.258,-0.0962317662498637,-0.096801409431805
3.26,-0.096233019832013,-0.094939472228794
3.262,-0.0961761992052309,-0.093142948022253
3.264,-0.0960248596361025,-0.091398845652867
3.266,-0.0958252359331733,-0.089717709000483
3.268,-0.0955782382588425,-0.088094442763469
3.27,-0.0952771715109247,-0.086551719797985
3.272,-0.09491854583403,-0.085096247987156
3.274,-0.0945287885305963,-0.083691193430265
3.276,-0.0941045146597412,-0.082371981821829
3.278,-0.0936269552387944,-0.081120480760619
3.28,-0.0931352097765796,-0.079977831638684
3.282,-0.0926085617824739,-0.078898221400279
3.284,-0.0920612248661423,-0.077886807000745
3.286,-0.0915206693513687,-0.076975790995387
3.288,-0.0909837947658109,-0.076115287008274
3.29,-0.0904121782139762,-0.075369252581023
3.292,-0.0898546076259712,-0.074685567961529
3.294,-0.0893088560284589,-0.074097782442683
3.296,-0.088769322176602,-0.073571953561055
3.298,-0.0882469870420166,-0.073150076295541
3.3,-0.0877707626564852,-0.072775636495977
3.302,-0.087294777107401,-0.0724921226617829
3.304,-0.086865386613971,-0.0722670437404987
3.306,-0.086471083848186,-0.0721157840763946
3.308,-0.086109593968481,-0.0720236162590116
3.31,-0.085802629796183,-0.071994038751678
3.312,-0.085550331421738,-0.0720271475901005
3.314,-0.085326776290602,-0.0721385805208205
3.316,-0.085179016218956,-0.0722809859097823
3.318,-0.085085152859156,-0.0724664539208324
3.32,-0.085049418814918,-0.0727283114742342
3.322,-0.085091322926244,-0.0729986717451902
3.324,-0.085186019154161,-0.0732994560123709
3.326,-0.085360919085144,-0.0736680375764426
3.328,-0.085615219635334,-0.0740284806075907
3.33,-0.085924390224514,-0.0744226924611052
3.332,-0.086324020319803,-0.0748389120238989
3.334,-0.086806242269151,-0.0752685616871291
3.336,-0.087356493144604,-0.0756787730467856
3.338,-0.087974055145247,-0.0761474001732834
3.34,-0.088689879570002,-0.0765706411503442
3.342,-0.089480242800126,-0.0770003053416365
3.344,-0.090334227931499,-0.0774014283734825
3.346,-0.091272954226659,-0.0778016886455703
3.348,-0.092296357806631,-0.0781732968297129
3.35,-0.093384945032474,-0.078516699737455
3.352,-0.094548131346631,-0.0788157863468617
3.354,-0.095789907384032,-0.0790997628304176
3.356,-0.097112103612974,-0.0793197422328962
3.358,-0.098485223735741,-0.0795073225063293
3.36,-0.099930821769048,-0.0796273870579887
3.362,-0.101441784754194,-0.0797017766044171
3.364,-0.102999197737034,-0.0797251552805198
3.366,-0.104635393927697,-0.0796694981886916
3.368,-0.106284008410099,-0.0795586671580128
3.37,-0.108019799131204,-0.0793640792934807
3.372,-0.109763635890098,-0.0791033627753162
3.374,-0.111588317776788,-0.0787655537583304
3.376,-0.113447370420842,-0.0783532441913154
3.378,-0.115315038879772,-0.0778506179765588
3.38,-0.11722066206718,-0.0772645570993595
3.382,-0.119143465270734,-0.0765946304976676
3.384,-0.121094322045887,-0.0758325979117444
3.386,-0.123051687867414,-0.074986236863935
3.388,-0.125021863069689,-0.0740449064484745
3.39,-0.126985775834798,-0.0730126667313831
3.392,-0.128950196885399,-0.0718830154404763
3.394,-0.130895791229402,-0.0706727582253839
3.396,-0.132838690897627,-0.0693592391377036
3.398,-0.134768657433031,-0.0679404534111993
3.4,-0.136690148991788,-0.0664561403021265
3.402,-0.138555374723073,-0.0648759409896012
3.404,-0.140389712733757,-0.0632007662260835
3.406,-0.142203782039559,-0.0614078651179242
3.408,-0.143964709233336,-0.05958198721605
3.41,-0.145673269071074,-0.0576442932766889
3.412,-0.147338744474713,-0.0556357616522155
3.414,-0.148942133419788,-0.0535349819720991
3.416,-0.15048236040385,-0.0513677599439436
3.418,-0.151960581275692,-0.0490982330046081
3.42,-0.153357778339408,-0.0468087485514765
3.422,-0.154693913858225,-0.0443928161737805
3.424,-0.155951587248167,-0.041961929534063
3.426,-0.157128402461508,-0.0394560297197225
3.428,-0.158218482040079,-0.0368787330546846
3.43,-0.159219566548331,-0.0342898019211962
3.432,-0.160130463486248,-0.0316058108516924
3.434,-0.160969536802069,-0.0289032323308036
3.436,-0.161687927904843,-0.0261660418974868
3.438,-0.162323591326747,-0.0234076971852454
3.44,-0.162842170355315,-0.0205852599595102
3.442,-0.163293211335395,-0.0177762753390755
3.444,-0.163627341321002,-0.0149305014367369
3.446,-0.163871816136934,-0.0120920590169866
3.448,-0.163984009840294,-0.0092420413008652
3.45,-0.164030577411751,-0.00637554443998775
3.452,-0.163959704276694,-0.00352178561642222
3.454,-0.163799847236179,-0.00068933831834643
3.456,-0.163513797227762,0.00215280848601917
3.458,-0.163129523776086,0.00495795864967506
3.46,-0.162693114713375,0.00773977115630837
3.462,-0.16211192677974,0.0105082827214702
3.464,-0.161447669733315,0.0132321831637169
3.466,-0.16070518294024,0.01590487590154
3.468,-0.159855333294509,0.0185505997092047
3.47,-0.15891969709762,0.0211539026304226
3.472,-0.157907804798117,0.0236908517848729
3.474,-0.15681372157093,0.0261731076736166
3.476,-0.155631248336626,0.0286002960243116
3.478,-0.154385300780446,0.0309590994963468
3.48,-0.153066746151248,0.0332391327557556
3.482,-0.151683128660277,0.0354746529300513
3.484,-0.150225111269791,0.0376249979428373
3.486,-0.148716852871562,0.0396872800883406
3.488,-0.147155245465227,0.0416677472057411
3.49,-0.145538602416493,0.0435804225333574
3.492,-0.143885445682232,0.0454103866226897
3.494,-0.142179037003395,0.0471543981022793
3.496,-0.140441338581865,0.048808712841463
3.498,-0.138676845576101,0.0503768867338831
3.5,-0.136883534919696,0.0518468846909316
3.502,-0.135063047068824,0.0532402763949651
3.504,-0.133251127943503,0.0545312690423738
3.506,-0.131407869188121,0.0557660237865141
3.508,-0.129549778775933,0.0568539987804342
3.51,-0.127711601142048,0.0578873939294722
3.512,-0.125849982685218,0.0588242380436368
3.514,-0.124022234338046,0.0596827066499
3.516,-0.122202272378291,0.0604234940042318
3.518,-0.120410464433324,0.0611263530335331
3.52,-0.118634464662516,0.0616999128073474
3.522,-0.116870407738488,0.0622270659894514
3.524,-0.11514723690727,0.0626674530592149
3.526,-0.113452610242351,0.0630187072928455
3.528,-0.111809431645635,0.0633005084744167
3.53,-0.110184927963279,0.0635167180067345
3.532,-0.108639260471472,0.0636638026820362
3.534,-0.107143956122063,0.0637491018324984
3.536,-0.105672650078135,0.0637809355005535
3.538,-0.104285005939494,0.063742326589104
3.54,-0.10294409437802,0.0636551877614222
3.542,-0.101665987013001,0.0635264953310213
3.544,-0.10045617430631,0.0633506810612127
3.546,-0.09929494813755,0.0631278066335896
3.548,-0.098225245279099,0.0628752630292344
3.55,-0.097208253771067,0.0625919494158438
3.552,-0.096261554366199,0.0622826017575516
3.554,-0.095400980844678,0.0619469059346826
3.556,-0.094603547868874,0.0615856609072487
3.558,-0.093868207758016,0.0612240363652887
3.56,-0.093220848272794,0.0608544564664024
3.562,-0.092638375989887,0.0604676202457256
3.564,-0.092129525916437,0.0601010092557101
3.566,-0.091682799614482,0.0597269085336854
3.568,-0.09132004736527,0.0593564237162709
3.57,-0.091021955723569,0.0590203335752099
3.572,-0.090779004491901,0.0586853738493531
3.574,-0.090620829044728,0.0583870227405179
3.576,-0.090526551292573,0.0581163512721303
3.578,-0.090489742806098,0.057867847766669
3.58,-0.090492750570155,0.0576499464759463
3.582,-0.090568142727755,0.0574925791321691
3.584,-0.090706416834027,0.057354742380838
3.586,-0.090885722710117,0.0572613972364247
3.588,-0.091125520257043,0.0572495003478896
3.59,-0.091391115829549,0.0572371310039944
3.592,-0.091706404289871,0.0573029494884159
3.594,-0.092061158911522,0.0574368465946786
3.596,-0.092448961163021,0.0576177980108876
3.598,-0.092849741641576,0.0578526410143024
3.6,-0.093306126496798,0.0581615311356428
3.602,-0.093772355319316,0.058521497283311
3.604,-0.094231328676454,0.0589525238373087
3.606,-0.094736526177802,0.0594662551930682
3.608,-0.095218166728851,0.0600286382750054
3.61,-0.0957143091195481,0.0606668205599266
3.612,-0.0962298741438813,0.0613801591402414
3.614,-0.09672886611883,0.0621562597769679
3.616,-0.0972217532306138,0.0629974522225591
3.618,-0.0977001241537556,0.063909226503539
3.62,-0.0981576103605832,0.0648835242129458
3.622,-0.0985859535078115,0.0659150620325597
3.624,-0.0990121836341408,0.0670364866049854
3.626,-0.0993853443951196,0.0681951098555147
3.628,-0.0997460833006849,0.0694379746838085
3.63,-0.100047920910703,0.0707229170053693
3.632,-0.10031177147454,0.0720929399928583
3.634,-0.100554777151614,0.0734859686972071
3.636,-0.100724988662009,0.0749521762785139
3.638,-0.100862538051026,0.0764741430968041
3.64,-0.100927548137843,0.0780059522525675
3.642,-0.100942044279116,0.0796156688471043
3.644,-0.100891004442646,0.0812554137626958
3.646,-0.100766876441053,0.0829430807626065
3.648,-0.100603578395477,0.0846305226908645
3.65,-0.100363337889315,0.0864126842718599
3.652,-0.100033014051975,0.088170826319808
3.654,-0.0996467585626551,0.089965303227948
3.656,-0.0992061549441943,0.091759276644621
3.658,-0.0986608731069053,0.093605689301148
3.66,-0.0980441712224804,0.095433958015507
3.662,-0.0973677281279445,0.097270213600842
3.664,-0.0966120369896043,0.099125786130797
3.666,-0.0957695580570947,0.100965158697651
3.668,-0.0948448808374271,0.102805953278292
3.67,-0.0938766359091147,0.104629283661207
3.672,-0.0927963894963519,0.106457243956668
3.674,-0.0916373486431932,0.108241636490169
3.676,-0.0904270134078499,0.110026796795703
3.678,-0.0891390779170144,0.111757263401789
3.68,-0.0877758170702285,0.113479548223218
3.682,-0.0863396463043316,0.115161236237147
3.684,-0.0848309009279687,0.116806905844662
3.686,-0.0832681724061483,0.118397803661165
3.688,-0.081618493384882,0.119950673916555
3.69,-0.0799088431158625,0.121481162385286
3.692,-0.0781612468012549,0.122932488444221
3.694,-0.076346200498515,0.124331533509341
3.696,-0.0744768961853013,0.125691003118246
3.698,-0.0725299828144635,0.126953657375544
3.7,-0.070566000589104,0.12818157523803
3.702,-0.0685529618277052,0.129322841419723
3.704,-0.0664971427293483,0.130416246336724
3.706,-0.0644091964990189,0.131419995261918
3.708,-0.0622452864729834,0.132385548289536
3.71,-0.0600761583642514,0.1332417670495
3.712,-0.0578846125301272,0.134042805331676
3.714,-0.055664821415879,0.134753499819918
3.716,-0.0534163894194147,0.135409350675981
3.718,-0.0511692842871621,0.135964771053269
3.72,-0.0488879826319527,0.136452612380434
3.722,-0.0466291045160388,0.136868963604807
3.724,-0.044333475661209,0.137194435645697
3.726,-0.0420575161119882,0.137446215967529
3.728,-0.0397864949109552,0.137617050902823
3.73,-0.0375358459431279,0.137696389775062
3.732,-0.0352727015095063,0.137723639361342
3.734,-0.0330238300296625,0.137679264474959
3.736,-0.0307957355124823,0.137538189737801
3.738,-0.0285999623429859,0.137338380092592
3.74,-0.0264235380342767,0.137050105915037
3.742,-0.0242681100435766,0.13670837971579
3.744,-0.022160397567405,0.1362923831923
3.746,-0.0200753283788577,0.135804435580493
3.748,-0.0180407661859832,0.13525955429637
3.75,-0.016039045019317,0.134645167777433
3.752,-0.0140753423944924,0.133972411743967
3.754,-0.0121715447989863,0.133247634040228
3.756,-0.0103051918400003,0.132467198965486
3.758,-0.0085089482224503,0.131625952364918
3.76,-0.0067604086870652,0.130753873930421
3.762,-0.0050660415186571,0.129838846491226
3.764,-0.0034327471544565,0.128869740834489
3.766,-0.0018490740426317,0.127877612173677
3.768,-0.000324261700899098,0.126836111496851
3.77,0.0011269812947261,0.125762787372864
3.772,0.0025191701010292,0.124657517848422
3.774,0.0038429898385931,0.123537280896995
3.776,0.0051168098526362,0.122381657194683
3.778,0.0063136916837303,0.121236356271911
3.78,0.0074578419683746,0.120079726063047
3.782,0.0085431589094344,0.118879620019085
3.784,0.0095295518264397,0.117692258894462
3.786,0.0104744020957538,0.11650403949931
3.788,0.0113426231805818,0.115307078898673
3.79,0.0121537532008545,0.114105459089565
3.792,0.0129061437029593,0.112919039179754
3.794,0.0136161157193377,0.111752584611247
3.796,0.0142223601679187,0.110594037706083
3.798,0.0148051351214331,0.109439274287006
3.8,0.0153209328865532,0.108317544097077
3.802,0.0158012891729092,0.107204053929191
3.804,0.016176558051936,0.106129265057454
3.806,0.0165664271055755,0.105053846366585
3.808,0.0168491584748525,0.104043778145074
3.81,0.0170914126882498,0.103049183500413
3.812,0.017320030799983,0.102086767308143
3.814,0.0174899393680902,0.101173391789862
3.816,0.0176254919423718,0.100281729481147
3.818,0.0177269819321842,0.099445068279396
3.82,0.0177852507640711,0.098631353651597
3.822,0.0178171667722572,0.097873106612044
3.824,0.0178165612999409,0.097138793039941
3.826,0.0177977592094711,0.096474256486983
3.828,0.0177200347383591,0.095867275204835
3.83,0.0176610511991134,0.095276931832572
3.832,0.0175812695919344,0.09473721698403
3.834,0.017479222201221,0.094282257935142
3.836,0.0173823945549614,0.093848262141143
3.838,0.0172443927749229,0.093464014243797
3.84,0.0171487079500799,0.093132724518522
3.842,0.0170250652019272,0.092841097611449
3.844,0.0168802158971687,0.092590553956506
3.846,0.016771012239273,0.092410732852342
3.848,0.016664071217873,0.092266947809313
3.85,0.0165666634055855,0.092164811766336
3.852,0.016465099750659,0.09210810395777
3.854,0.0164104342138963,0.092109596400213
3.856,0.0163496684913614,0.092145561279251
3.858,0.0163167226239444,0.092239023196237
3.86,0.016301754837777,0.092342291944943
3.862,0.0163168763254504,0.09250149696826
3.864,0.0163568845590784,0.092680419664821
3.866,0.0164232607492071,0.092894482365613
3.868,0.0165268112895446,0.093155324800543
3.87,0.0166589205295121,0.093445328025022
3.872,0.0168227292476653,0.093760428666482
3.874,0.0170347698949071,0.094109378430894
3.876,0.0172884064575539,0.094460980899267
3.878,0.0175893199202417,0.09484488925313
3.88,0.0179080399886352,0.095243805780995
3.882,0.0182672843820098,0.095643090394816
3.884,0.0186758279756259,0.096080599899439
3.886,0.0191418376329743,0.096523299014021
3.888,0.0196415150878174,0.096996395978479
3.89,0.0201930056560879,0.097435335545916
3.892,0.0207798412276088,0.097910734556054
3.894,0.0213980692076607,0.098352502618631
3.896,0.0220795505283541,0.09880588958288
3.898,0.0228202694898694,0.0992336119447227
3.9,0.0235899239615106,0.099685818371421
3.902,0.0243991207025812,0.100126397708045
3.904,0.0252694338831329,0.100543343249914
3.906,0.0261577407745004,0.100920799967086
