"Freq [GHz]","re(S(Antenna1_1_p1,Antenna1_1_p1)) []","im(S(Antenna1_1_p1,Antenna1_1_p1)) []"
3,0.110672516262387,-0.054776124456587
3.002,0.111979666513,-0.0571836721491278
3.004,0.113193498291926,-0.059702378358213
3.006,0.114306250995517,-0.0623225485918325
3.008,0.115318274470052,-0.0650555083760777
3.01,0.116208096663275,-0.0678742600128913
3.012,0.116987969455996,-0.0707986844572454
3.014,0.117644642203707,-0.07380091582384
3.016,0.118165982558189,-0.076888766593087
3.018,0.118556541599242,-0.080032720886679
3.02,0.118804063796393,-0.083261937502505
3.022,0.11891554800066,-0.086528120979112
3.024,0.118880697716381,-0.089854913919568
3.026,0.118684739623118,-0.093218332004792
3.028,0.118345649777596,-0.096617877436353
3.03,0.117859612605707,-0.100036421980811
3.032,0.117210422284637,-0.103473090128385
3.034,0.116412686235011,-0.10692141935326
3.036,0.115448952963152,-0.110362644190779
3.038,0.114337945213437,-0.113805297089175
3.04,0.113057293630702,-0.117221881502268
3.042,0.111641447312807,-0.120605907758676
3.044,0.11004681683324,-0.123972286039039
3.046,0.10830191788387,-0.127293801962736
3.048,0.106406905097786,-0.130560962636616
3.05,0.104359637732269,-0.133770575402254
3.052,0.102182998131858,-0.136915276410705
3.054,0.09983758278155,-0.139980371463839
3.056,0.0973781346601328,-0.142967312670182
3.058,0.0947664422236504,-0.145855821300212
3.06,0.0920319593689762,-0.14865632674134
3.062,0.0891729110675629,-0.151367174622313
3.064,0.0861959937992852,-0.153957668127263
3.066,0.0831056047064716,-0.156412182419194
3.068,0.0799119503380752,-0.158779107633156
3.07,0.0765929457939626,-0.1609962570889
3.072,0.0731949883094154,-0.163083781233082
3.074,0.0697027172997382,-0.165018017671131
3.076,0.0661431115350651,-0.166843021308602
3.078,0.0624916026853133,-0.168486086452142
3.08,0.0588145290752896,-0.170018774020073
3.082,0.0550367510700308,-0.17137924999249
3.084,0.051222541593247,-0.172561807170999
3.086,0.0473761092629667,-0.173628469478127
3.088,0.0434912179884046,-0.174514690356151
3.09,0.0395827155439499,-0.175216724025669
3.092,0.035661087229868,-0.175777852453825
3.094,0.0317308043762107,-0.176203132871958
3.096,0.0278026999744003,-0.176441296763094
3.098,0.0238817414759856,-0.176521358798897
3.1,0.0199956234741464,-0.176443363826316
3.102,0.0161202695463232,-0.17616985497408
3.104,0.0122898184188112,-0.175782387727592
3.106,0.008493344718891,-0.175218952596469
3.108,0.0047343175600803,-0.174537977487813
3.11,0.0010745581799295,-0.173665817071959
3.112,-0.0025701324517469,-0.172686913826783
3.114,-0.0061024178044416,-0.171551465811964
3.116,-0.0095712713682842,-0.170271040892707
3.118,-0.0129254428151924,-0.16885141037327
3.12,-0.0162222025298114,-0.167338807810144
3.122,-0.0194056958301512,-0.165688453644856
3.124,-0.0224700795381207,-0.163920572866503
3.126,-0.0254392867897142,-0.162042376463957
3.128,-0.0282796047650773,-0.160070221397773
3.13,-0.0309971427282329,-0.158001810861722
3.132,-0.0335662477666799,-0.155835113264102
3.134,-0.036032539060716,-0.153605489658731
3.136,-0.038381825532479,-0.151302190835617
3.138,-0.0405727563248252,-0.148931183601332
3.14,-0.0426264646999235,-0.146508413492134
3.142,-0.0445273238476558,-0.14402342115481
3.144,-0.0462694260036978,-0.141500835255205
3.146,-0.0479129139674512,-0.138963100128471
3.148,-0.0493499129796342,-0.136390072041198
3.15,-0.0507006412797121,-0.133791318558622
3.152,-0.051872275323063,-0.131188098994115
3.154,-0.052907651047823,-0.12860658456037
3.156,-0.0537664746515792,-0.126023200161885
3.158,-0.0545273559677657,-0.123445777984539
3.16,-0.0551303609918068,-0.120902489646072
3.162,-0.055560975187004,-0.118414869842263
3.164,-0.0558873823802148,-0.11593157905596
3.166,-0.0560865139271991,-0.11350014980377
3.168,-0.0561417741177878,-0.111142228692574
3.17,-0.0560647225707379,-0.108853963365821
3.172,-0.055873499368365,-0.106612257329584
3.174,-0.055561315870902,-0.104459951838355
3.176,-0.0551276523805904,-0.102415104370713
3.178,-0.0546155697155646,-0.100412349814705
3.18,-0.0539913898833719,-0.098522111363031
3.182,-0.0532626074543407,-0.096773344998046
3.184,-0.0524447665746394,-0.095089876796555
3.186,-0.0515782936590488,-0.093498375414373
3.188,-0.0506051004835233,-0.09205079955075
3.19,-0.0495724246274359,-0.090715078502557
3.192,-0.0484730007956117,-0.089532358678312
3.194,-0.0473339151600576,-0.088416909991998
3.196,-0.0461374033314375,-0.087456617856725
3.198,-0.0449225873482961,-0.086623292858217
3.2,-0.0436704702319762,-0.085925070968068
3.202,-0.0423992142723491,-0.085383189236932
3.204,-0.041108136782784,-0.084919295627445
3.206,-0.0398238071333099,-0.084623131547038
3.208,-0.0385410982194999,-0.084458917800586
3.21,-0.0372676184960784,-0.08444996217289
3.212,-0.0360233925842741,-0.084551727111009
3.214,-0.0347998182262763,-0.084773562336442
3.216,-0.0336121364930783,-0.085127216147167
3.218,-0.0324735861919802,-0.085617557709524
3.22,-0.0313835024858896,-0.086213692940005
3.222,-0.0303534388513105,-0.086930738336815
3.224,-0.0293878307061017,-0.087776719601418
3.226,-0.0284857176669182,-0.08872427671985
3.228,-0.0276824821064161,-0.089776382533954
3.23,-0.0269583474802065,-0.090934767232507
3.232,-0.0263239794134913,-0.092186365452175
3.234,-0.0257886501774804,-0.093533594628403
3.236,-0.025363071975483,-0.094962433986159
3.238,-0.0250279465788185,-0.096473198000569
3.24,-0.0248199670323694,-0.098052787087458
3.242,-0.0247315295399061,-0.099701399293793
3.244,-0.0247694178591684,-0.101399537487981
3.246,-0.024925721236613,-0.103161235080128
3.248,-0.0252119013119803,-0.104956597002137
3.25,-0.0256404307724992,-0.106794197577781
3.252,-0.0261926869369234,-0.108661908812633
3.254,-0.0268826289892231,-0.110540885365938
3.256,-0.0277104113620309,-0.112434883466383
3.258,-0.0286815562298637,-0.114345161808805
3.26,-0.029785924502013,-0.116236690966294
3.262,-0.0310341650252309,-0.118138426036253
3.264,-0.0324209636061025,-0.119990686802867
3.266,-0.0339416002031733,-0.121828187287483
3.268,-0.0356057094088425,-0.123626180953469
3.27,-0.0374078390409247,-0.125373053577985
3.272,-0.03933224081403,-0.127087778897156
3.274,-0.0413937636705963,-0.128729616430265
3.276,-0.0435846546417412,-0.130298164841829
3.278,-0.0459037995877944,-0.131797384590619
3.28,-0.0483335324585796,-0.133216667008684
3.282,-0.0508851224834739,-0.134544679910279
3.284,-0.0535352814211423,-0.135782704370745
3.286,-0.0563083011690687,-0.136905282865387
3.288,-0.0591772534128109,-0.137917170708274
3.29,-0.0621399481749762,-0.138829776631023
3.292,-0.0651835555339712,-0.139612445401529
3.294,-0.0683228691524589,-0.140280799402683
3.296,-0.071535485085602,-0.140804128801055
3.298,-0.0748163641090166,-0.141213820485541
3.3,-0.0781601842064852,-0.141458253015977
3.302,-0.081555063537401,-0.141572888901783
3.304,-0.084998142843971,-0.141544167830499
3.306,-0.088480645278186,-0.141358240686395
3.308,-0.091993501438481,-0.141018367139012
3.31,-0.095528746133183,-0.140543398201678
3.312,-0.099086034379738,-0.139909404210101
3.314,-0.102636317543602,-0.13910559052082
3.316,-0.106191554632356,-0.138145328579782
3.318,-0.109745377040156,-0.137033333020832
3.32,-0.113281574746918,-0.135784495094234
3.322,-0.116771411139244,-0.13434308487519
3.324,-0.120244483744161,-0.132769046652371
3.326,-0.123676127355144,-0.131045490106443
3.328,-0.127042806275334,-0.129170155578591
3.33,-0.130358840344514,-0.127130152009105
3.332,-0.133604374049803,-0.124962389005899
3.334,-0.136782236639151,-0.122644897623129
3.336,-0.139880356794604,-0.120192859219786
3.338,-0.142883289835247,-0.117604077328283
3.34,-0.145792593320002,-0.114885980893144
3.342,-0.148601340910126,-0.112047567549636
3.344,-0.151298569431499,-0.109084966422482
3.346,-0.153887009866659,-0.10602375307457
3.348,-0.156355127386631,-0.102847593675713
3.35,-0.158681425772474,-0.099565983821455
3.352,-0.160890956776631,-0.0961795224618617
3.354,-0.162958755414032,-0.0927257163604176
3.356,-0.164888181572974,-0.0891752138628962
3.358,-0.166678270705741,-0.0855647465463293
3.36,-0.168320272489048,-0.0818825562679887
3.362,-0.169808032564194,-0.0781411498344171
3.364,-0.171145701497034,-0.0743504125605198
3.366,-0.172315832997697,-0.0705152896966916
3.368,-0.173337136360099,-0.0666568416150128
3.37,-0.174209256771204,-0.0627568685454807
3.372,-0.174905606720098,-0.0588530468643162
3.374,-0.175457208546788,-0.0549332882523304
3.376,-0.175835488720842,-0.0510128315813154
3.378,-0.176070617239772,-0.0470926695875588
3.38,-0.17612977288718,-0.0431941092503595
3.382,-0.176029906320734,-0.0393232934676676
3.384,-0.175787366799887,-0.0354836490117444
3.386,-0.175373607213414,-0.031682823453935
3.388,-0.174823860776689,-0.0279267551884745
3.39,-0.174121617088798,-0.0242295553713831
3.392,-0.173281247839399,-0.0205814541104763
3.394,-0.172280131905402,-0.0170142484253839
3.396,-0.171157945677427,-0.0135226490777036
3.398,-0.169902768206031,-0.0101133954911993
3.4,-0.168521616707788,-0.0068017855121265
3.402,-0.167010013191073,-0.0035715878196012
3.404,-0.165392864981757,-0.000455793996083496
3.406,-0.163664460778559,0.0025660275020758
3.408,-0.161832790818336,0.00545720467395
3.41,-0.159898807261074,0.0082436071933111
3.412,-0.157870949914713,0.0108874423377845
3.414,-0.155756824609788,0.0134251152579009
3.416,-0.15357781717385,0.0158214313860564
3.418,-0.151325738225692,0.0181074667453919
3.42,-0.149006303669408,0.0202314373185235
3.422,-0.146636016208225,0.0222217246262195
3.424,-0.144215085883167,0.024075007395937
3.426,-0.141764902061508,0.0257797203402775
3.428,-0.139276650124079,0.0273570835453154
3.43,-0.136779753299631,0.0287683970988038
3.432,-0.134243453626248,0.0300414157183076
3.434,-0.131725509201069,0.0311709927791964
3.436,-0.129181877199843,0.0321623871825132
3.438,-0.126687298936747,0.0329973755527546
3.44,-0.124171124665315,0.0337001363954898
3.442,-0.121687143645395,0.0342500089749245
3.444,-0.119251912881002,0.0346747657612631
3.446,-0.116850062776934,0.0349554415580134
3.448,-0.114494670700294,0.0350991510091348
3.45,-0.112192422561751,0.0351267722960523
3.452,-0.109947399506694,0.0350142890445778
3.454,-0.107780943916179,0.0347934605616536
3.456,-0.105690434697762,0.0344441509920192
3.458,-0.103646601246086,0.0339842215346751
3.46,-0.101737252613375,0.0334360213193084
3.462,-0.09990815549974,0.0327630706324702
3.464,-0.098160720663315,0.0319994282437169
3.466,-0.09653512553024,0.03115399357154
3.468,-0.094994581804509,0.0302092786892047
3.47,-0.09357382181762,0.0292142187204226
3.472,-0.092268114018117,0.0281367925648729
3.474,-0.09108319714093,0.0269947957736166
3.476,-0.090013177676626,0.0257960962343116
3.478,-0.089076730900446,0.0245478378463468
3.48,-0.088266558341248,0.0232643732057556
3.482,-0.087597678810277,0.0219426091830513
3.484,-0.087033086849791,0.0205987405308373
3.486,-0.086596421531562,0.0192325367903406
3.488,-0.086318310255227,0.0178548564375411
3.49,-0.086161981726493,0.0164900208573574
3.492,-0.086131896365232,0.0151154567326897
3.494,-0.086238448073395,0.0137636623502793
3.496,-0.086466378212865,0.012419730491463
3.498,-0.086830189923101,0.0111140251738831
3.5,-0.0873329327786956,0.0098215863209316
3.502,-0.087929459106824,0.0085959367749651
3.504,-0.088669792564503,0.0074182298323738
3.506,-0.089517890635821,0.0062983123865141
3.508,-0.090491691798933,0.0052391540104342
3.51,-0.091568013033048,0.0042439063894722
3.512,-0.092746366125218,0.0033270882436368
3.514,-0.094011003427046,0.0025002739499
3.516,-0.095409144541291,0.0017499175842318
3.518,-0.096905361608324,0.00111618975353309
3.52,-0.098471274662516,0.0005698715073474
3.522,-0.100097679998488,0.000143083249451399
3.524,-0.10181370775727,-0.000196064390785101
3.526,-0.103595545942351,-0.000420148427154501
3.528,-0.105446313535635,-0.000518408435583297
3.53,-0.107323362493279,-0.000491201203265498
3.532,-0.109305144041472,-0.000349466587963802
3.534,-0.111265874452063,-5.99244175016056E-05
3.536,-0.113288628748135,0.000343294880553499
3.538,-0.115361198649494,0.000880218779103999
3.54,-0.11740384871302,0.0015493641414222
3.542,-0.119485370846001,0.0023712651210213
3.544,-0.12157045477931,0.0033134764212127
3.546,-0.12363091518535,0.0043882359445896
3.548,-0.125710181572099,0.0055941213422344
3.55,-0.127754296237067,0.0069759384828438
3.552,-0.129751570430199,0.0084438110215516
3.554,-0.131730245104678,0.0100794797386826
3.556,-0.133674492748874,0.0118140300282487
3.558,-0.135565703778016,0.0137016073762887
3.56,-0.137404171232794,0.0157304338290024
3.562,-0.139156947819887,0.0178560590907256
3.564,-0.140870786426437,0.0201193212217101
3.566,-0.142473969404482,0.0224960454156854
3.568,-0.14399907710527,0.0249872119872709
3.57,-0.145458325393569,0.0275787113892099
3.572,-0.146795009641901,0.0302878964593531
3.574,-0.148048080754728,0.0331163620975179
3.576,-0.149166352162573,0.0360087984921303
3.578,-0.150175060626098,0.038994083216669
3.58,-0.151074357610155,0.0420747066559463
3.582,-0.151853751087755,0.0452273692121691
3.584,-0.152494499634027,0.048457200040838
3.586,-0.153006396300117,0.0517298304264247
3.588,-0.153393014757043,0.0550936976078896
3.59,-0.153626822539549,0.0584826533239944
3.592,-0.153730989309871,0.0619028109584159
3.594,-0.153681218491522,0.0653805081946786
3.596,-0.153483885663021,0.0688859573468876
3.598,-0.153138909171576,0.0723998424863024
3.6,-0.152643024046798,0.0759378620476428
3.602,-0.152005257554316,0.079474594639311
3.604,-0.151226963029454,0.0830028942075087
3.606,-0.150270667240802,0.0865433409100682
3.608,-0.149157278263851,0.0900463827100054
3.61,-0.147911282974548,0.0935430160299266
3.612,-0.146537660222881,0.0969819675402414
3.614,-0.14497601319643,0.100385017486968
3.616,-0.143290733633914,0.103744937992559
3.618,-0.141445018698756,0.107061242893539
3.62,-0.139475115922583,0.110299936782946
3.622,-0.137361054758811,0.11346520219256
3.624,-0.135142264676141,0.116556092734985
3.626,-0.13276929721212,0.119547126285515
3.628,-0.130279483516685,0.122468003523809
3.63,-0.127652877475703,0.125280926855369
3.632,-0.12489469907454,0.128007861452858
3.634,-0.122077300021614,0.130606879747207
3.636,-0.119122825552009,0.133082055838514
3.638,-0.116083327281026,0.135458272506804
3.64,-0.112938914287843,0.137689356672567
3.642,-0.109712121679116,0.139794965627104
3.644,-0.106407014952646,0.141786090132696
3.646,-0.103029785111053,0.143634596132607
3.648,-0.0995793546254769,0.145313458980865
3.65,-0.0960769886093152,0.14688040157186
3.652,-0.0925079045519752,0.148281379999808
3.654,-0.0889082140486551,0.149536107777948
3.656,-0.0852923038791943,0.150632300167621
3.658,-0.0816131629569053,0.151603135507148
3.66,-0.0779268129234804,0.152367537070507
3.662,-0.0742187929140445,0.153015214285842
3.664,-0.0705350575406043,0.153501788283797
3.666,-0.0668255556320947,0.153812839275651
3.668,-0.0631409879654271,0.153981743661292
3.67,-0.0594727799991147,0.153993501117007
3.672,-0.0558354373063519,0.153865859213068
3.674,-0.0522226696531932,0.153568515831169
3.676,-0.0486494458078499,0.153145411141703
3.678,-0.0451388981170144,0.152544441120789
3.68,-0.0416838331402285,0.151820317817218
3.682,-0.0382971524143316,0.150968375449147
3.684,-0.0349715199079687,0.149951677390662
3.686,-0.0317394481961483,0.148805287698165
3.688,-0.028564892844882,0.147553085806555
3.69,-0.0254977470158625,0.146157252485286
3.692,-0.0225278890312549,0.144647756314221
3.694,-0.019651109788515,0.143047528659341
3.696,-0.0168880360853013,0.141303348968246
3.698,-0.0142465910044635,0.139481857955544
3.7,-0.011724765319104,0.13756312216803
3.702,-0.0093223623877052,0.135543728869723
3.704,-0.0070536172393483,0.133432032586724
3.706,-0.0049153258590189,0.131259902801918
3.708,-0.0028922938429834,0.129043508669536
3.71,-0.0010180585542514,0.1267441427495
3.712,0.000728052481872798,0.124401231291676
3.714,0.002301682512121,0.122007961277918
3.716,0.00375860599958529,0.119579684544981
3.718,0.0050587901778379,0.117115339018269
3.72,0.0062156278050473,0.114644437357534
3.722,0.0072210463479612,0.112144083797807
3.724,0.00807986344579099,0.109652427812697
3.726,0.0087802313940118,0.107154899949529
3.728,0.0093785835080448,0.104669656442823
3.73,0.0097569472168721,0.102204941895062
3.732,0.0100302677064937,0.099765476561342
3.734,0.0101989196333375,0.097362989664959
3.736,0.0101721358175177,0.094998718277801
3.738,0.0100327234560141,0.092687244032592
3.74,0.0097595665157233,0.090423264165037
3.742,0.0093628374664234,0.08822558881579
3.744,0.00882496653359501,0.0861065720023
3.746,0.0082003227911423,0.084040725850493
3.748,0.0074102073240168,0.08208666937637
3.75,0.006557065210683,0.080200953647433
3.752,0.0055527851455076,0.078427466033967
3.754,0.0044625935010137,0.076749896160228
3.756,0.0032909199599997,0.075180257875486
3.758,0.0020308889875497,0.073700246264918
3.76,0.0006791320829348,0.072369314410421
3.762,-0.000758178448657099,0.071162791401226
3.764,-0.0022598767444565,0.070065570284489
3.766,-0.0038054827626317,0.069092680325677
3.768,-0.0054208418208991,0.068260826348851
3.77,-0.0070876875152739,0.067555388786864
3.772,-0.0087577730449708,0.066954902641422
3.774,-0.0104945070894069,0.066549107802995
3.776,-0.0122402333493638,0.066256601590683
3.778,-0.0140054405180697,0.066116472661911
3.78,-0.0157694424476254,0.066108693982047
3.782,-0.0175327703835656,0.066237238363885
3.784,-0.0192899200075603,0.066512431917062
3.786,-0.0210285147242462,0.06694263841731
3.788,-0.0227505568494182,0.067494864865673
3.79,-0.0244267560991455,0.068185319337565
3.792,-0.0260741882670407,0.068978327611754
3.794,-0.0276630627206623,0.069975756539247
3.796,-0.0292003094520813,0.071066648122083
3.798,-0.0306587701585669,0.072288250782006
3.8,-0.0320598143434468,0.073613103849077
3.802,-0.0333804992170908,0.075088420610191
3.804,-0.034614816178064,0.076668086947454
3.806,-0.0357514234544245,0.078348728546585
3.808,-0.0367978577851475,0.080151013765074
3.81,-0.0377408907817502,0.082040630630413
3.812,-0.0385698767600171,0.084013133638143
3.814,-0.0393028345919098,0.086099472289862
3.816,-0.0399064710276282,0.088267615151147
3.818,-0.0403485897578158,0.090499705209396
3.82,-0.0406856788859289,0.092795138081597
3.822,-0.0408896621107428,0.095154883752044
3.824,-0.0409696497890591,0.097567534639941
3.826,-0.0408934951485289,0.100041091176983
3.828,-0.0406978160706409,0.102525077044835
3.83,-0.0403251694438866,0.105047846070572
3.832,-0.0398427612270656,0.10758818105303
3.834,-0.039178814422779,0.110148862754142
3.836,-0.0383801652310386,0.112721369403693
3.838,-0.0374309997230771,0.115278717792797
3.84,-0.0363055712953201,0.117853976855522
3.842,-0.0350468902334728,0.120376811886449
3.844,-0.0336399949668313,0.122872605056506
3.846,-0.032100007602727,0.125343234242342
3.848,-0.030401980291127,0.127752300639313
3.85,-0.0285344499794145,0.130126041366336
3.852,-0.026557501227341,0.13243226818777
3.854,-0.0244300958621037,0.134676391220213
3.856,-0.0221696929536386,0.136841382199251
3.858,-0.0197896569300556,0.138915094316237
3.86,-0.017291616863223,0.140917929684943
3.862,-0.0146461445445496,0.14279640808826
3.864,-0.0118975686909216,0.144585294034821
3.866,-0.0090058316207929,0.146265181095613
3.868,-0.0060362430904554,0.147811747280543
3.87,-0.0029753313204879,0.149239913835022
3.872,0.0001807171876653,0.150563813876482
3.874,0.0034565027549071,0.151717240540894
3.876,0.0067751978275539,0.152752330549267
3.878,0.0102014144002417,0.15361993206413
3.88,0.0136708504986352,0.154339726625995
3.882,0.0172082344320098,0.154926317339816
3.884,0.0207717220356259,0.155363799501439
3.886,0.0243898989329743,0.155643638334021
3.888,0.0280356775328174,0.155748137264479
3.89,0.0317017185390879,0.155688918859916
3.892,0.0353980873326088,0.155511440624054
3.894,0.0390905208337507,0.155095642363631
3.896,0.0427863363123541,0.15455149586488
3.898,0.0464839867618694,0.153842198299923
3.9,0.0501420510215106,0.152981393423221
3.902,0.0537694342325812,0.151924975888045
3.904,0.0573696352131329,0.150723859172914
3.906,0.0609240072945004,0.149348619558086
3.908,0.064428713309716,0.147841087832025
