"Freq [GHz]","re(S(Antenna1_1_1,Antenna1_1_1)) []","im(S(Antenna1_1_1,Antenna1_1_1)) []"
5,0.0523669426031618,0.180869849303599
5.0016,0.0532883808181198,0.17992154609159
5.0032,0.0541942021761228,0.178966063307465
5.0048,0.0550843180753516,0.178003866040146
5.0064,0.0559586572194292,0.177035420557406
5.008,0.0568171655836365,0.176061193634419
5.0096,0.0576598063721258,0.17508165189872
5.0112,0.0584865599381369,0.174097261172372
5.0128,0.0592974236812083,0.173108485824239
5.0144,0.0600924119293916,0.172115788128669
5.016,0.0608715557864617,0.171119627631283
5.0176,0.0616349029621303,0.170120460525267
5.0192,0.062382517579256,0.169118739035782
5.0208,0.0631144799580568,0.168114910815263
5.0224,0.0638308863793198,0.167109418351243
5.024,0.0645318488276147,0.16610269838187
5.0256,0.0652174947115032,0.165095181331039
5.0272,0.065887966564753,0.164087290749218
5.0288,0.0665434217315477,0.163079442769296
5.0304,0.0671840320297015,0.162072045585422
5.032,0.0678099833988713,0.161065498933858
5.0336,0.0684214755267714,0.160060193595829
5.0352,0.0690187214633865,0.159056510922393
5.0368,0.0696019472211893,0.158054822359295
5.0384,0.0701713913513542,0.157055489006843
5.04,0.0707273045169766,0.156058861183781
5.0416,0.0712699490412889,0.155065278019164
5.0432,0.0717995984538815,0.154075067049244
5.0448,0.0723165370119206,0.153088543848351
5.0464,0.0728210592253715,0.152106011665789
5.048,0.073313469356219,0.151127761087723
5.0496,0.0737940809156924,0.150154069717078
5.0512,0.0742632161504887,0.149185201872437
5.0528,0.074721205523,0.148221408306945
5.0544,0.0751683871755384,0.147262925946214
5.056,0.0756051063945664,0.146309977651228
5.0576,0.0760317150659258,0.145362771989255
5.0592,0.0764485711240677,0.144421503040761
5.0608,0.0768560379982864,0.143486350212318
5.0624,0.0772544840459507,0.142557478081529
5.064,0.0776442819967408,0.141635036252937
5.0656,0.0780258083778825,0.140719159241952
5.0672,0.0783994429483859,0.139809966373765
5.0688,0.0787655681272826,0.138907561705277
5.0704,0.0791245684189669,0.138012033966014
5.072,0.0794768298407355,0.137123456522058
5.0736,0.0798227393509305,0.136241887360968
5.0752,0.0801626842760325,0.135367369086705
5.0768,0.0804970517401551,0.134499928951559
5.0784,0.0808262280969903,0.133639578894073
5.08,0.0811505983644557,0.132786315600971
5.0816,0.0814705456617913,0.131940120595083
5.0832,0.0817864506539594,0.131100960332267
5.0848,0.0820986909943928,0.130268786324342
5.0864,0.0824076407824462,0.129443535280004
5.088,0.0827136700154471,0.128625129266758
5.0896,0.0830171440569485,0.127813475883833
5.0912,0.0833184231099803,0.127008468466111
5.0928,0.0836178616893042,0.126209986292047
5.0944,0.0839158081176667,0.125417894822584
5.096,0.0842126040140544,0.12463204594908
5.0976,0.0845085838069481,0.123852278260218
5.0992,0.0848040742425789,0.123078417332925
5.1008,0.0851005725471832,0.122311389392285
5.1024,0.0853985085732593,0.121550858660451
5.104,0.0856970359248221,0.120795447772557
5.1056,0.0859964353166605,0.120044925488622
5.1072,0.0862969771785928,0.119299049750461
5.1088,0.0865989212587222,0.118557568078584
5.1104,0.0869025162526933,0.117820217978099
5.112,0.0872079994409464,0.117086727360609
5.1136,0.0875155963399735,0.116356814977113
5.1152,0.0878255203735716,0.115630190858893
5.1168,0.0881379725540981,0.114906556783406
5.1184,0.088453141185722,0.114185606734176
5.12,0.0887712015766783,0.113467027385672
5.1216,0.0890923157785174,0.112750498585194
5.1232,0.0894166323313577,0.112035693860747
5.1248,0.089744286037133,0.111322280920922
5.1264,0.0900753977388419,0.110609922174762
5.128,0.0904100741337938,0.109898275254632
5.1296,0.090748407588855,0.109186993549085
5.1312,0.0910904759866913,0.108475726738721
5.1328,0.0914363425860118,0.107764121342644
5.1344,0.0917860558988071,0.107051821267921
5.136,0.09213964959459,0.106338468363122
5.1376,0.0924971424176295,0.105623702977778
5.1392,0.0928585381261872,0.104907164525314
5.1408,0.0932238254527477,0.10418849204769
5.1424,0.093592978087249,0.103467324783037
5.144,0.0939659546733091,0.102743302734686
5.1456,0.0943426988344511,0.102016067240393
5.1472,0.0947231392123237,0.101285261543564
5.1488,0.0951071895319216,0.100550531360168
5.1504,0.0954947486857995,0.0998115254471571
5.152,0.0958857008372865,0.0990678961693696
5.1536,0.0962799155506941,0.0983193000603391
5.1552,0.096677247931523,0.0975653983810943
5.1568,0.0970775387996655,0.0968058576769543
5.1584,0.0974806148746038,0.0960403503243234
5.16,0.0978862889856062,0.0952685550744759
5.1616,0.0982943603009171,0.0944901575903424
5.1632,0.0987046145789452,0.0937048509782863
5.1648,0.0991168244344452,0.0929123363028815
5.1664,0.0995307496336986,0.0921123231046789
5.168,0.0999461373996856,0.091304529899977
5.1696,0.100362722744257,0.0904886846715783
5.1712,0.100780228812298,0.0896645253475512
5.1728,0.101198367254889,0.0888318002739794
5.1744,0.101616838606462,0.0879902686647124
5.176,0.102035332695948,0.0871397010471076
5.1776,0.102453529059925,0.0862798796857728
5.1792,0.102871097387759,0.0854105989992981
5.1808,0.103287697968733,0.0845316659509906
5.1824,0.103702982167182,0.0836429004365977
5.184,0.104116592905614,0.0827441356390329
5.1856,0.104528165167824,0.0818352183800916
5.1872,0.104937326510013,0.0809160094461674
5.1888,0.105343697592885,0.0799863838949596
5.1904,0.105746892719753,0.0790462313441822
5.192,0.106146520394629,0.0780954562432625
5.1936,0.10654218388031,0.0771339781160422
5.1952,0.106933481781459,0.0761617317924679
5.1968,0.10732000862638,0.0751786676092842
5.1984,0.107701355462082,0.0741847515967166
5.2,0.108077110458839,0.0731799656361574
5.2016,0.108446296057315,0.0721612823318397
5.2032,0.108808833136458,0.0711317838895163
5.2048,0.109164307209138,0.0700915131241293
5.2064,0.10951230401048,0.0690405290174754
5.208,0.109852410127734,0.0679789067308743
5.2096,0.110184213630727,0.0669067375938248
5.2112,0.110507304704165,0.0658241290676666
5.2128,0.110821276278538,0.0647312046892291
5.2144,0.111125724661612,0.0636281039824872
5.216,0.111420250164412,0.0625149823522047
5.2176,0.111704457729201,0.0613920109435826
5.2192,0.111977957548447,0.0602593764898966
5.2208,0.112240365679784,0.0591172811231399
5.2224,0.112491304659966,0.0579659421686557
5.224,0.112730404100806,0.0568055919077732
5.2256,0.112957301288114,0.0556364773274356
5.2272,0.113171641765625,0.0544588598328306
5.2288,0.113373079908911,0.0532730149450136
5.2304,0.113561279490296,0.0520792319755337
5.232,0.113735914229752,0.050877813671052
5.2336,0.113896668334791,0.0496690758439637
5.2352,0.114043237024349,0.0484533469770115
5.2368,0.114175327039653,0.0472309678029048
5.2384,0.114292657136092,0.0460022908729284
5.24,0.114394958563064,0.0447676800945583
5.2416,0.114481975523828,0.0435275102590688
5.2432,0.114553465616333,0.0422821665381428
5.2448,0.114609200255049,0.0410320439764773
5.2464,0.114648965075779,0.0397775469563914
5.248,0.11467256031647,0.0385190886494286
5.2496,0.114679801177006,0.0372570904519641
5.2512,0.11467051816,0.035991981404803
5.2528,0.114644557383568,0.0347241975987869
5.2544,0.114601780876097,0.033454181569394
5.256,0.114542066846004,0.0321823816753377
5.2576,0.114465309920486,0.0309092514661714
5.2592,0.114371421371251,0.029635249042785
5.2608,0.114260329305255,0.028360836404108
5.2624,0.114131978830412,0.0270864787886075
5.264,0.113986332202306,0.0258126440062708
5.2656,0.113823368934886,0.024539801765403
5.2672,0.113643085889157,0.0232684229933312
5.2688,0.113445497339853,0.0219989791535029
5.2704,0.113230634999107,0.0207319415590909
5.272,0.112998548033104,0.0194677806842135
5.2736,0.112749303033733,0.0182069654759405
5.2752,0.112482983972217,0.0169499626646961
5.2768,0.112199692121741,0.0156972360749673
5.2784,0.111899545957071,0.014449245942908
5.28,0.111582681014152,0.0132064482319507
5.2816,0.111249249738707,0.0119692939604145
5.2832,0.110899421295823,0.0107382285261197
5.2848,0.11053338135852,0.00951369104099845
5.2864,0.110151331861316,0.0082961136827137
5.288,0.109753490741784,0.00708592104127491
5.2896,0.109340091640089,0.00588352948266063
5.2912,0.108911383581524,0.00468934652843792
5.2928,0.108467630635031,0.0035037702383916
5.2944,0.108009111539711,0.00232718861414798
5.296,0.10753611931333,0.00115997901180963
5.2976,0.107048960836804,2.50757458507712E-06
5.2992,0.106547956406683,-0.00114487132157054
5.3008,0.106032754052622,-0.0022805167523192
5.3024,0.105503849954839,-0.0034040193532938
5.304,0.104962342495566,-0.0045163450004524
5.3056,0.104408606656488,-0.0056172034604291
5.3072,0.103843027701174,-0.00670631907287665
5.3088,0.103266000589495,-0.00778343115281202
5.3104,0.102677929383033,-0.00884829437795102
5.312,0.102079226630482,-0.0099006791450445
5.3136,0.101470312739035,-0.0109403719002054
5.3152,0.100851615335765,-0.0119671754522361
5.3168,0.100223568609994,-0.0129809092499467
5.3184,0.0995866126536516,-0.0139814096414723
5.32,0.0989411927806244,-0.0149685301015825
5.3216,0.0982877588444971,-0.0159421414359891
5.3232,0.0976267645469827,-0.0169021319526439
5.3248,0.0969586667361413,-0.0178484076110385
5.3264,0.096283924701753,-0.0187808921404905
5.328,0.0956029994646174,-0.0196995271294317
5.3296,0.0949163530629476,-0.0206042720846839
5.3312,0.0942244478352505,-0.021495104469737
5.3328,0.093527745703502,-0.0223720197040117
5.3344,0.0928267074538495,-0.0232350311391257
5.336,0.0921217920220678,-0.024084170006146
5.3376,0.0914134557759041,-0.0249194853328411
5.3392,0.0907021518075155,-0.0257410438289221
5.3408,0.0899883292216956,-0.0265489297512819
5.3424,0.089272432441095,-0.027343244733223
5.344,0.0885549005074299,-0.0281241075866837
5.3456,0.0878361663946854,-0.0288916540774524
5.3472,0.0871166563353068,-0.0296460366783812
5.3488,0.0863967891523857,-0.0303874242835848
5.3504,0.0856769756008345,-0.0311160019036414
5.352,0.0849576177265557,-0.0318319703377775
5.3536,0.084239108237601,-0.0325355458090517
5.3552,0.0835218298853226,-0.0332269595865293
5.3568,0.0828061548665174,-0.0339064575734481
5.3584,0.0820924442395617,-0.034574299873379
5.36,0.0813810473575412,-0.0352307603403756
5.3616,0.0806723013183687,-0.0358761260941216
5.3632,0.0799665304438991,-0.0365106970230631
5.3648,0.0792640457600333,-0.0371347852595403
5.3664,0.0785651445188169,-0.037748714639905
5.368,0.0778701097295307,-0.0383528201426348
5.3696,0.0771792097137747,-0.0389474473054357
5.3712,0.0764926976875442,-0.0395329516303395
5.3728,0.075810811368301,-0.0401096979637887
5.3744,0.0751337725980344,-0.0406780598697189
5.376,0.0744617870043202,-0.0412384189806264
5.3776,0.0737950436753687,-0.0417911643386328
5.3792,0.0731337148720697,-0.0423366917245363
5.3808,0.0724779557590292,-0.0428754029688583
5.3824,0.0718279041666011,-0.0434077052588787
5.384,0.0711836803829125,-0.0439340104340636
5.3856,0.0705453869678835,-0.0444547342720827
5.3872,0.0699131086042399,-0.0449702957670214
5.3888,0.0692869119735233,-0.0454811164034725
5.3904,0.0686668456550916,-0.0459876194234607
5.392,0.0680529400681191,-0.0464902290908621
5.3936,0.0674452074325855,-0.0469893699528415
5.3952,0.0668436417622667,-0.0474854660985831
5.3968,0.0662482188927138,-0.0479789404211551
5.3984,0.0656588965302335,-0.0484702138735522
5.4,0.0650756143378582,-0.0489597047352362
5.4016,0.0645015511303171,-0.0494500968281602
5.4032,0.0639331715149978,-0.0499397840456897
5.4048,0.0633703471269086,-0.0504291612445083
5.4064,0.0628129327836321,-0.0509186169335199
5.408,0.0622607667542774,-0.0514085325997384
5.4096,0.0617136710494291,-0.0518992820341675
5.4112,0.0611714517520914,-0.0523912306826718
5.4128,0.0606338993586278,-0.0528847349958406
5.4144,0.0601007891566997,-0.0533801418078386
5.416,0.0595718816211996,-0.0538777877162503
5.4176,0.0590469228431845,-0.0543779984869114
5.4192,0.0585256449728012,-0.0548810884767355
5.4208,0.0580077666952129,-0.0553873600655279
5.4224,0.0574929937185219,-0.0558971031197906
5.424,0.0569810192936917,-0.0564105944635163
5.4256,0.0564715247494605,-0.0569280973789794
5.4272,0.0559641800492605,-0.0574498611275087
5.4288,0.0554586443661299,-0.0579761204872566
5.4304,0.054954566678626,-0.0585070953229565
5.432,0.0544515863807312,-0.0590429901696731
5.4336,0.0539493339127659,-0.0595839938535402
5.4352,0.05344743140129,-0.0601302791254925
5.4368,0.0529454933210138,-0.0606820023289835
5.4384,0.0524431271656962,-0.0612393030907004
5.44,0.0519399341320511,-0.0618023040432644
5.4416,0.0514355098146469,-0.062371110566925
5.4432,0.0509294449118103,-0.0629458105682419
5.4448,0.0504213259425239,-0.0635264742817621
5.4464,0.049910735966426,-0.0641131541056851
5.448,0.049397255314211,-0.0647058844595192
5.4496,0.0488804623235293,-0.065304681677728
5.4512,0.0483599340779731,-0.0659095439323721
5.4528,0.0478352471491263,-0.0665204511797378
5.4544,0.0473059783418656,-0.0671373651479562
5.456,0.046771705439356,-0.0677602293456191
5.4576,0.0462320079479017,-0.0683889691003804
5.4592,0.0456864678402565,-0.0690234916385522
5.4608,0.0451346702949249,-0.0696636861816895
5.4624,0.0445762044334612,-0.0703094240821708
5.464,0.0440106640508713,-0.0709605589847671
5.4656,0.0434376483365188,-0.0716169270162013
5.4672,0.0428567625950275,-0.0722783470157026
5.4688,0.0422676189491853,-0.0729446207735518
5.4704,0.0416698370398519,-0.0736155333236176
5.472,0.0410630447068678,-0.0742908532418848
5.4736,0.040446878665964,-0.0749703329879747
5.4752,0.039820985165671,-0.0756537092676596
5.4768,0.0391850206302342,-0.076340703422367
5.4784,0.0385386522895273,-0.0770310218486773
5.48,0.0378815587889722,-0.0777243564388129
5.4816,0.0372134307804536,-0.0784203850491224
5.4832,0.0365339714992446,-0.0791187719905544
5.4848,0.0358428973129261,-0.0798191685471265
5.4864,0.0351399382553185,-0.080521213510384
5.488,0.0344248385384041,-0.081224533740856
5.4896,0.0336973570342618,-0.081928744750501
5.4912,0.0329572677429994,-0.082633451296147
5.4928,0.0322043602266922,-0.083338248008924
5.4944,0.0314384400253202,-0.0840427200216919
5.496,0.0306593290387105,-0.0847464436304601
5.4976,0.0298668658904841,-0.0854489869598011
5.4992,0.0290609062570046,-0.0861499106502576
5.5008,0.0282413231713279,-0.0868487685527453
5.5024,0.0274080072991583,-0.0875451084419476
5.504,0.0265608671818083,-0.0882384727367041
5.5056,0.0256998294501584,-0.0889283992313962
5.5072,0.0248248390156219,-0.0896144218343248
5.5088,0.0239358592211154,-0.0902960713179827
5.5104,0.0230328719610314,-0.0909728760697213
5.512,0.0221158777832122,-0.0916443628514148
5.5136,0.0211848959409313,-0.0923100575607155
5.5152,0.0202399644268761,-0.0929694859954073
5.5168,0.0192811399701379,-0.0936221746179513
5.5184,0.0183084980061986,-0.0942676513203308
5.52,0.0173221326049303,-0.0949054461860879
5.5216,0.0163221563815908,-0.0955350922507581
5.5232,0.0153087003608318,-0.096156126256699
5.5248,0.0142819138257008,-0.0967680894018172
5.5264,0.0132419641216557,-0.0973705280830886
5.528,0.0121890364385788,-0.0979629946318775
5.5296,0.011123333558799,-0.0985450480342489
5.5312,0.0100450755751118,-0.0991162546502812
5.5328,0.0089544995838113,-0.0996761889103717
5.5344,0.00785185934171815,-0.100224434007543
5.536,0.00673742490122193,-0.10076058256674
5.5376,0.00561148221531622,-0.101284237309133
5.5392,0.00447433271264662,-0.10179501168541
5.5408,0.00332629285255884,-0.102292530503071
5.5424,0.00216769365115462,-0.102776430532717
5.544,0.000998880180347014,-0.103246361084338
5.5456,-0.000179788953077349,-0.103701984576602
5.5472,-0.00136794215039024,-0.104142977072136
5.5488,-0.00256519539185124,-0.104569028797809
5.5504,-0.00377115282063448,-0.104979844637013
5.552,-0.00498540735374895,-0.105375144595943
5.5536,-0.00620754130395276,-0.105754664248872
5.5552,-0.00743712703066855,-0.106118155149429
5.5568,-0.00867372759489106,-0.106465385224878
5.5584,-0.00991689743709151,-0.106796139132386
5.56,-0.0111661830671141,-0.107110218593301
5.5616,-0.0124211237700774,-0.107407442695428
5.5632,-0.013681252316263,-0.107687648167296
5.5648,-0.0149460956920048,-0.107950689621435
5.5664,-0.0162151758295704,-0.108196439766645
5.568,-0.0174880103530451,-0.108424789591275
5.5696,-0.0187641133234062,-0.108635648512489
5.5712,-0.0200429959966955,-0.108828944499545
5.5728,-0.021324167579486,-0.109004624159066
5.5744,-0.0226071359904825,-0.109162652794313
5.576,-0.0238914086218281,-0.109303014425465
5.5776,-0.0251764931007652,-0.109425711791892
5.5792,-0.0264618980501861,-0.109530766302433
5.5808,-0.0277471338455398,-0.109618217977678
5.5824,-0.0290317133684468,-0.109688125338244
5.584,-0.0303151527529436,-0.109740565282058
5.5856,-0.0315969721311243,-0.109775632915642
5.5872,-0.0328766963581812,-0.109793441360401
5.5888,-0.0341538557442384,-0.109794121534904
5.5904,-0.0354279867631866,-0.109777821897178
5.592,-0.0366986327535099,-0.109744708164003
5.5936,-0.0379653446081171,-0.109694963001199
5.5952,-0.0392276814491656,-0.109628785682931
5.5968,-0.040485211285883,-0.109546391730003
5.5984,-0.0417375116563876,-0.109448012514164
5.6,-0.0429841702535081,-0.109333894842415
5.6016,-0.0442220436745992,-0.109201851534314
5.6032,-0.0454533039323539,-0.109054828644291
5.6048,-0.0466775861166185,-0.108893126324964
5.6064,-0.0478945382502032,-0.108717057522459
5.608,-0.0491038217666916,-0.108526947423727
5.6096,-0.0503051119752449,-0.108323132884881
5.6112,-0.0514980984994144,-0.108105961837516
5.6128,-0.0526824856819445,-0.107875792681053
5.6144,-0.053857992976578,-0.107632993663071
5.616,-0.0550243553008565,-0.107377942238653
5.6176,-0.0561813233719305,-0.107111024425734
5.6192,-0.0573286640053582,-0.106832634135453
5.6208,-0.0584661603959085,-0.106543172506507
5.6224,-0.0595936123643631,-0.106243047222516
5.624,-0.0607108365713213,-0.105932671820388
5.6256,-0.0618176667140011,-0.105612464991689
5.6272,-0.0629139536840433,-0.105282849884019
5.6288,-0.063999565698313,-0.104944253393395
5.6304,-0.0650743884047084,-0.104597105448637
5.632,-0.0661383249539623,-0.104241838304058
5.6336,-0.0671912960414524,-0.103878885823762
5.6352,-0.0682332399280043,-0.10350868276805
5.6368,-0.0692641124187065,-0.103131664081942
5.6384,-0.0702838868267184,-0.102748264186093
5.64,-0.071292553895085,-0.102358916271516
5.6416,-0.0722901217025495,-0.101964051599403
5.6432,-0.0732766155313747,-0.101564098807156
5.6448,-0.074252077712161,-0.101159483221708
5.6464,-0.0752165674426699,-0.100750626181359
5.648,-0.0761701605726472,-0.100337944365833
5.6496,-0.0771129493746578,-0.099921849141725
5.6512,-0.0780450422749137,-0.0995027459109681
5.6528,-0.0789665635701099,-0.0990810334812972
5.6544,-0.0798776531122665,-0.0986571034417231
5.656,-0.0807784659735723,-0.0982313395600124
5.6576,-0.0816691720882338,-0.0978041171911728
5.6592,-0.0825499558653234,-0.0973758027039458
5.6608,-0.0834210157916432,-0.0969467529223042
5.6624,-0.0842825639995851,-0.0965173145879571
5.664,-0.0851348258289988,-0.0960878238388612
5.6656,-0.0859780393530619,-0.0956586057107383
5.6672,-0.0868124549041653,-0.0952299736545981
5.6688,-0.087638334566794,-0.0948022290762688
5.6704,-0.0884559516634204,-0.0943756609019337
5.672,-0.0892655902153981,-0.093950545157674
5.6736,-0.090067544400872,-0.0935271445790173
5.6752,-0.0908621179886863,-0.0931057082404935
5.6768,-0.0916496237633044,-0.0926864712051962
5.6784,-0.0924303829357331,-0.0922696542053512
5.68,-0.0932047245484593,-0.0918554633428896
5.6816,-0.0939729848643907,-0.0914440898150293
5.6832,-0.0947355067528052,-0.0910357096648609
5.6848,-0.0954926390583096,-0.0906304835589408
5.6864,-0.0962447359728084,-0.0902285565878891
5.688,-0.0969921563994791,-0.0898300580939951
5.6896,-0.097735263303759,-0.0894351015218272
5.6912,-0.0984744230703377,-0.0890437843028504
5.6928,-0.0992100048551667,-0.0886561877520472
5.6944,-0.0999423799284709,-0.0882723770055468
5.696,-0.100671921029377,-0.0878924009712575
5.6976,-0.101399001709146,-0.0875162923145075
5.6992,-0.102123995682696,-0.0871440674626878
5.7008,-0.102847276179405,-0.0867757266399025
5.7024,-0.103569215297884,-0.0864112539256252
5.704,-0.104290183365356,-0.0860506173353574
5.7056,-0.105010548300805,-0.0856937689322948
5.7072,-0.105730674986104,-0.0853406449559973
5.7088,-0.106450924640539,-0.0849911659830641
