"Freq [GHz]","re(S(Antenna1_1_1,Antenna1_1_1)) []","im(S(Antenna1_1_1,Antenna1_1_1)) []"
5,0.0519361899371618,0.181528246669599
5.0016,0.0528870638471198,0.18060123918459
5.0032,0.0538233749901228,0.179665713785465
5.0048,0.0547449725013516,0.178722083548146
5.0064,0.0556517202684292,0.177770765706806
5.008,0.0565434970596365,0.176812181109619
5.0096,0.0574201966231258,0.17584675367352
5.0112,0.0582817277711369,0.174874909839372
5.0128,0.0591280144392083,0.173897078020639
5.0144,0.0599589957383916,0.172913688052869
5.016,0.0607746259704617,0.171925170643573
5.0176,0.0615748746401303,0.170931956821168
5.0192,0.062359726437256,0.169934477385382
5.0208,0.0631291812060568,0.168933162358763
5.0224,0.0638832538913198,0.167928440440443
5.024,0.0646219744636147,0.16692073846287
5.0256,0.0653453878345032,0.165910480850039
5.0272,0.066053553743753,0.164898089085218
5.0288,0.0667465466335477,0.163883981173296
5.0304,0.0674244554997015,0.162868571120422
5.032,0.0680873837278713,0.161852268407858
5.0336,0.0687354489117714,0.160835477480829
5.0352,0.0693687826543865,0.159818597240393
5.0368,0.0699875303451893,0.158802020543295
5.0384,0.0705918509303542,0.157786133709843
5.04,0.0711819166579766,0.156771316037781
5.0416,0.0717579128082889,0.155757939335164
5.0432,0.0723200374108815,0.154746367447244
5.0448,0.0728685009419206,0.153736955808351
5.0464,0.0734035260053715,0.152730050995789
5.048,0.073925347006219,0.151725990298723
5.0496,0.0744342097956924,0.150725101295078
5.0512,0.0749303713144887,0.149727701447437
5.0528,0.075414099214,0.148734097702945
5.0544,0.0758856714665384,0.147744586114214
5.056,0.0763453759615664,0.146759451469228
5.0576,0.0767935100909258,0.145778966937255
5.0592,0.0772303803190677,0.144803393728761
5.0608,0.0776563017372864,0.143832980768318
5.0624,0.0780715976199507,0.142867964389529
5.064,0.0784765989527408,0.141908568036937
5.0656,0.0788716439638825,0.140955001989952
5.0672,0.0792570776353859,0.140007463099765
5.0688,0.0796332512132826,0.139066134548277
5.0704,0.0800005217008669,0.138131185618014
5.072,0.0803592513519355,0.137202771486058
5.0736,0.0807098071480305,0.136281033026968
5.0752,0.0810525602723825,0.135366096644705
5.0768,0.0813878855800551,0.134458074113559
5.0784,0.0817161610552903,0.133557062445073
5.08,0.0820377672685657,0.132663143767971
5.0816,0.0823530868271913,0.131776385232083
5.0832,0.0826625038214594,0.130896838926267
5.0848,0.0829664032674928,0.130024541825342
5.0864,0.0832651705474462,0.129159515744004
5.088,0.0835591908464471,0.128301767319758
5.0896,0.0838488485899485,0.127451288014833
5.0912,0.0841345268779803,0.126608054136111
5.0928,0.0844166069193042,0.125772026877047
5.0944,0.0846954674706667,0.124943152373584
5.096,0.0849714842670544,0.12412136179508
5.0976,0.0852450294669481,0.123306571439218
5.0992,0.0855164710885789,0.122498682856925
5.1008,0.0857871207321832,0.121698921645285
5.1024,0.0860574872612593,0.120907055499451
5.104,0.0863270186998221,0.120121559677557
5.1056,0.0865960530116605,0.119342267392622
5.1072,0.0868649207405928,0.118568998394461
5.1088,0.0871339445027222,0.117801559240584
5.1104,0.0874034384746933,0.117039743582099
5.112,0.0876737079039464,0.116283332471609
5.1136,0.0879450486189735,0.115532094693113
5.1152,0.0882177465605716,0.114785787104893
5.1168,0.0884920773160981,0.114044155001406
5.1184,0.088768305669722,0.113306932499176
5.12,0.0890466851656783,0.112573842930672
5.1216,0.0893274576855174,0.111844599261194
5.1232,0.0896108530393577,0.111118904522747
5.1248,0.089897088569133,0.110396452260922
5.1264,0.0901863687758419,0.109676926999762
5.128,0.0904788849517938,0.108960004719632
5.1296,0.090774814838855,0.108245353352085
5.1312,0.0910743223016913,0.107532633289721
5.1328,0.0913775570150118,0.106821497903044
5.1344,0.0916846541778071,0.106111594080321
5.136,0.09199573423559,0.105402562768422
5.1376,0.0923109026346295,0.104694039536678
5.1392,0.0926302495881872,0.103985655141014
5.1408,0.0929538498637477,0.10327703610699
5.1424,0.093281762598249,0.102567805316537
5.144,0.0936140311273091,0.101857582606046
5.1456,0.0939506828384511,0.101145985371993
5.1472,0.0942917290503237,0.100432629183564
5.1488,0.0946371649149216,0.099717128401468
5.1504,0.0949869693307995,0.0989990968031571
5.152,0.0953411049022865,0.0982781482103696
5.1536,0.0956995178986941,0.0975538971243391
5.1552,0.096062138255523,0.0968259593600943
5.1568,0.0964288795876655,0.0960939526879543
5.1584,0.0967996392366038,0.0953574974663234
5.16,0.0971742983346062,0.0946162172864759
5.1616,0.0975527218979172,0.0938697396113424
5.1632,0.0979347589439452,0.0931176964082863
5.1648,0.0983202426294452,0.0923597247868815
5.1664,0.0987089904236986,0.0915954676306789
5.168,0.0991008042906856,0.090824574219977
5.1696,0.0994954709122571,0.0900467008565783
5.1712,0.0998927619232982,0.0892615114755513
5.1728,0.100292434179889,0.0884686782519794
5.1744,0.100694230046462,0.0876678822027123
5.176,0.101097877708948,0.0868588137731076
5.1776,0.101503091511925,0.0860411734137728
5.1792,0.101909572318759,0.0852146721532981
5.1808,0.102317007897733,0.0843790321499906
5.1824,0.102725073320182,0.0835339872335977
5.184,0.103133431398614,0.0826792834340329
5.1856,0.103541733131824,0.0818146794970916
5.1872,0.103949618177013,0.0809399473741673
5.1888,0.104356715343885,0.0800548727089596
5.1904,0.104762643104753,0.0791592552951822
5.192,0.105167010132629,0.0782529095222625
5.1936,0.10556941584431,0.0773356647980422
5.1952,0.105969450977459,0.0764073659514679
5.1968,0.10636669817668,0.0754678736172842
5.1984,0.106760732594582,0.0745170645937166
5.2,0.107151122514839,0.0735548321821574
5.2016,0.107537359785445,0.0725776975188397
5.2032,0.107918810293658,0.0715889780485163
5.2048,0.108295025260338,0.0705886334101292
5.2064,0.10866555243346,0.0695766409064754
5.208,0.109029936779634,0.0685529956718743
5.2096,0.109387721184027,0.0675177108258248
5.2112,0.109738447158965,0.0664708175946666
5.2128,0.110081655558538,0.0654123654062291
5.2144,0.110416887297612,0.0643424219564872
5.216,0.110743684080412,0.0632610732482047
5.2176,0.111061589124201,0.0621684235985826
5.2192,0.111370147893447,0.0610645956198966
5.2208,0.111668908829784,0.0599497301741399
5.2224,0.111957424083966,0.0588239862896557
5.224,0.112235250246806,0.0576875410587732
5.2256,0.112501949077114,0.0565405894974356
5.2272,0.112757088225625,0.0553833443798306
5.2288,0.113000241953911,0.0542160360440136
5.2304,0.113230991851296,0.0530389121665337
5.232,0.113448927537752,0.051852237505052
5.2336,0.113653647362791,0.0506562936209637
5.2352,0.113844759097349,0.0494513785640115
5.2368,0.114021880605653,0.0482378065319048
5.2384,0.114184640514092,0.0470159075029284
5.24,0.114332678866064,0.0457860268385583
5.2416,0.114465647756828,0.0445485248640688
5.2432,0.114583211955333,0.0433037764151428
5.2448,0.114685049514049,0.0420521703594773
5.2464,0.114770852357779,0.0407941091013914
5.248,0.11484032684647,0.0395300080494286
5.2496,0.114893194334006,0.0382602950679641
5.2512,0.114929191691,0.036985409902803
5.2528,0.114948071813568,0.0357058035787869
5.2544,0.114949604107097,0.034421937789394
5.256,0.114933574946004,0.0331342842483377
5.2576,0.114899788108486,0.0318433240311714
5.2592,0.114848065187251,0.030549546898885
5.2608,0.114778245968255,0.029253450593508
5.2624,0.114690188792412,0.0279555401307075
5.264,0.114583770874306,0.0266563270594908
5.2656,0.114458888607886,0.025356328723903
5.2672,0.114315457827157,0.0240560674983312
5.2688,0.114153414051853,0.0227560700162529
5.2704,0.113972712688107,0.0214568663857909
5.272,0.113773329206104,0.0201589893952135
5.2736,0.113555259281733,0.0188629737097405
5.2752,0.113318518911217,0.0175693550606961
5.2768,0.113063144484741,0.0162786694279673
5.2784,0.112789192833071,0.014991452216908
5.28,0.112496741238152,0.0137082374359507
5.2816,0.112185887411707,0.0124295568644145
5.2832,0.111856749435823,0.0111559392241197
5.2848,0.11150946567252,0.00988790935499845
5.2864,0.111144194642316,0.0086259873837137
5.288,0.110761114861784,0.00737068790427491
5.2896,0.110360424648089,0.00612251915766063
5.2912,0.109942341897524,0.00488198222243792
5.2928,0.109507103821031,0.0036495702083916
5.2944,0.109054966646711,0.00242576746214798
5.296,0.10858620529633,0.00121104878380963
5.2976,0.108101113021804,5.87865258507708E-06
5.2992,0.107600001012683,-0.00118928952957054
5.3008,0.107082277758622,-0.00237262295431921
5.3024,0.106548452504839,-0.0035435831722938
5.304,0.105999869585566,-0.0047031198514524
5.3056,0.105436915553488,-0.0058508444044291
5.3072,0.104859991765174,-0.00698638331487665
5.3088,0.104269513785495,-0.00810937875281202
5.3104,0.103665910762033,-0.00921948916795102
5.312,0.103049624769482,-0.0103163898570445
5.3136,0.102421110135035,-0.0113997735042054
5.3152,0.101780832741765,-0.0124693506982361
5.3168,0.101129269303994,-0.0135248504149467
5.3184,0.100466906621652,-0.0145660204744723
5.32,0.0997942408236244,-0.0155926279695825
5.3216,0.0991117765820971,-0.0166044596619891
5.3232,0.0984200263128827,-0.0176013223436439
5.3248,0.0977195093607413,-0.0185830431700385
5.3264,0.097010751169493,-0.0195494699534905
5.328,0.0962942824378174,-0.0205004714354317
5.3296,0.0955706382633476,-0.0214359375056839
5.3312,0.0948403572759505,-0.022355779400737
5.3328,0.094103980762302,-0.0232599298630117
5.3344,0.0933620517824495,-0.0241483432581257
5.336,0.0926151142800678,-0.025020995663146
5.3376,0.0918637121879041,-0.0258778849108411
5.3392,0.0911083885325155,-0.0267190306039221
5.3408,0.0903496845326956,-0.0275444740872819
5.3424,0.0895881387010949,-0.028354278382223
5.344,0.0888242859514299,-0.0291485280846837
5.3456,0.0880586566976854,-0.0299273292264524
5.3472,0.0872917759713068,-0.0306908090983812
5.3488,0.0865241625353857,-0.0314391160335848
5.3504,0.0857563280108345,-0.0321724191586414
5.352,0.0849887760105557,-0.0328909081037775
5.3536,0.084222001288601,-0.0335947926780518
5.3552,0.0834564888963226,-0.0342843025045293
5.3568,0.0826927133565173,-0.0349596866304481
5.3584,0.0819311378535617,-0.035621213090379
5.36,0.0811722134365412,-0.0362691684403756
5.3616,0.0804163782493687,-0.0369038572571216
5.3632,0.0796640567738991,-0.0375256016080631
5.3648,0.0789156590960333,-0.0381347404845403
5.3664,0.0781715801988169,-0.038731629201905
5.368,0.0774321992765307,-0.0393166387786348
5.3696,0.0766978790717747,-0.0398901552734357
5.3712,0.0759689652495442,-0.0404525791053395
5.3728,0.075245785788301,-0.0410043243407887
5.3744,0.0745286504080344,-0.0415458179537189
5.376,0.0738178500253202,-0.0420774990656264
5.3776,0.0731136562433687,-0.0425998181576328
5.3792,0.0724163208680697,-0.0431132362625363
5.3808,0.0717260754690292,-0.0436182241358583
5.3824,0.0710431309636011,-0.0441152614088788
5.384,0.0703676772429125,-0.0446048357186636
5.3856,0.0696998828348835,-0.0450874418290827
5.3872,0.0690398946002399,-0.0455635807282214
5.3888,0.0683878374705233,-0.0460337587235785
5.3904,0.0677438142180916,-0.0464984865143607
5.392,0.0671079052751191,-0.0469582782606621
5.3936,0.0664801685835855,-0.0474136506416415
5.3952,0.0658606394862667,-0.0478651219079831
5.3968,0.0652493306597138,-0.0483132109281551
5.3984,0.0646462320882335,-0.0487584362325522
5.4,0.0640513110778582,-0.0492013150552362
5.4016,0.0634684463183171,-0.0496446751861602
5.4032,0.0628934389149979,-0.0500870254666897
5.4048,0.0623261702019086,-0.0505288621785083
5.4064,0.0617664998996321,-0.0509706755145199
5.408,0.0612142663852774,-0.0514129486657384
5.4096,0.0606692869874291,-0.0518561569281675
5.4112,0.0601313583380914,-0.0523007668106718
5.4128,0.0596002567416278,-0.0527472351708406
5.4144,0.0590757386006997,-0.0531960083568386
5.416,0.0585575408601996,-0.0536475213702503
5.4176,0.0580453814981845,-0.0541021970489114
5.4192,0.0575389600518012,-0.0545604452717355
5.4208,0.0570379581662129,-0.0550226621805279
5.4224,0.0565420401885219,-0.0554892294317906
5.424,0.0560508537856917,-0.0559605134705163
5.4256,0.0555640305994605,-0.0564368648319794
5.4272,0.0550811869202605,-0.0569186174655087
5.4288,0.0546019244041299,-0.0574060880992566
5.4304,0.054125830802626,-0.0578995756209565
5.432,0.0536524807277312,-0.0583993605046731
5.4336,0.0531814364367659,-0.0589057042565402
5.4352,0.05271224864529,-0.0594188489024925
5.4368,0.0522444573510138,-0.0599390165109835
5.4384,0.0517775926916962,-0.0604664087447004
5.44,0.0513111758100511,-0.0610012064562644
5.4416,0.0508447197426469,-0.061543569313925
5.4432,0.0503777303188103,-0.0620936354712419
5.4448,0.0499097070805239,-0.0626515212727621
5.4464,0.049440144205326,-0.0632173209976852
5.448,0.048968531446111,-0.0637911066435192
5.4496,0.0484943550781293,-0.064372927754728
5.4512,0.0480170988511831,-0.0649628112813721
5.4528,0.0475362449487663,-0.0655607614877378
5.4544,0.0470512749497656,-0.0661667598999562
5.456,0.046561670792256,-0.0667807652906191
5.4576,0.0460669157364017,-0.0674027137103804
5.4592,0.0455664953262565,-0.0680325185515522
5.4608,0.0450598983489249,-0.0686700706656895
5.4624,0.0445466177844612,-0.0693152385081708
5.464,0.0440261517528713,-0.0699678683327671
5.4656,0.0434980044495188,-0.0706277844232013
5.4672,0.0429616870720275,-0.0712947893627026
5.4688,0.0424167187341853,-0.0719686643445518
5.4704,0.041862627361852,-0.0726491695216176
5.472,0.0412989505798678,-0.0733360443938848
5.4736,0.040725236578964,-0.0740290082319747
5.4752,0.040141044957671,-0.0747277605356596
5.4768,0.0395459475572342,-0.075431981534367
5.4784,0.0389395292625273,-0.0761413327146773
5.48,0.0383213887809722,-0.0768554573848129
5.4816,0.0376911394044536,-0.0775739812771224
5.4832,0.0370484097372446,-0.0782965131685545
5.4848,0.0363928443989261,-0.0790226455491265
5.4864,0.0357241046993185,-0.079751955303384
5.488,0.0350418692814041,-0.080484004428856
5.4896,0.0343458347332618,-0.081218340781501
5.4912,0.0336357161699994,-0.081954498841147
5.4928,0.0329112477806923,-0.082692000503924
5.4944,0.0321721833413202,-0.0834303558956919
5.496,0.0314182966877105,-0.0841690642084601
5.4976,0.0306493821634841,-0.0849076145548011
5.4992,0.0298652550170046,-0.0856454868362576
5.5008,0.0290657517753279,-0.0863821526337453
5.5024,0.0282507305661583,-0.0871170761099476
5.504,0.0274200714098083,-0.0878497149227041
5.5056,0.0265736764701584,-0.0885795211503962
5.5072,0.0257114702636219,-0.0893059422273248
5.5088,0.0248333998311154,-0.0900284218866827
5.5104,0.0239394348650314,-0.0907464011090213
5.512,0.0230295678052122,-0.0914593190731148
5.5136,0.0221038138789313,-0.0921666141116455
5.5152,0.0211622111168761,-0.0928677246661073
5.5168,0.0202048203181379,-0.0935620902407513
5.5184,0.0192317249771986,-0.0942491523537308
5.52,0.0182430311709303,-0.0949283554830879
5.5216,0.0172388674085908,-0.0955991480067581
5.5232,0.0162193844348318,-0.096260983135699
5.5248,0.0151847550017008,-0.0969133198328171
5.5264,0.0141351735976557,-0.0975556237260886
5.528,0.0130708561395788,-0.0981873680058775
5.5296,0.011992039622799,-0.0988080343062489
5.5312,0.0108989817471118,-0.0994171135712812
5.5328,0.0097919604878113,-0.100014106905372
5.5344,0.00867127365171815,-0.100598526400543
5.536,0.00753723838222193,-0.10116989594774
5.5376,0.00639019064031622,-0.101727752018133
5.5392,0.00523048465464662,-0.10227164442841
5.5408,0.00405849233255884,-0.102801137081071
5.5424,0.00287460264615462,-0.103315808668717
5.544,0.00167922099134701,-0.103815253365338
5.5456,0.000472768516922651,-0.104299081476602
5.5472,-0.000744318576390238,-0.104766920066136
5.5488,-0.00197158975285124,-0.105218413552809
5.5504,-0.00320858088863448,-0.105653224270013
5.552,-0.00445481504174895,-0.106071033000943
5.5536,-0.00570980323895276,-0.106471539466872
5.5552,-0.00697304528066855,-0.106854462798429
5.5568,-0.00824403057089106,-0.107219541957878
5.5584,-0.00952223895209151,-0.107566536132386
5.56,-0.0108071415671141,-0.107895225085301
5.5616,-0.0120982017240774,-0.108205409479428
5.5632,-0.013394875776263,-0.108496911157296
5.5648,-0.0146966140140048,-0.108769573380435
5.5664,-0.0160028615605704,-0.109023261036645
5.568,-0.0173130592760451,-0.109257860808275
5.5696,-0.0186266446662062,-0.109473281300489
5.5712,-0.0199430527954955,-0.109669453127545
5.5728,-0.021261717200486,-0.109846328970066
5.5744,-0.0225820708015525,-0.110003883582313
5.576,-0.0239035468154281,-0.110142113771465
5.5776,-0.0252255796629652,-0.110261038331892
5.5792,-0.0265476058719861,-0.110360697943433
5.5808,-0.0278690649735398,-0.110441155031678
5.5824,-0.0291894003904468,-0.110502493595244
5.584,-0.0305080603139436,-0.110544818990058
5.5856,-0.0318244985721243,-0.110568257678642
5.5872,-0.0331381754851812,-0.110572956951401
5.5888,-0.0344485587022384,-0.110559084600904
5.5904,-0.0357551240281866,-0.110526828571178
5.592,-0.0370573562285099,-0.110476396569003
5.5936,-0.0383547498191171,-0.110408015648199
5.5952,-0.0396468098381656,-0.110321931749931
5.5968,-0.040933052586883,-0.110218409230003
5.5984,-0.0422130063613876,-0.110097730339164
5.6,-0.0434862121525081,-0.109960194687415
5.6016,-0.0447490170525992,-0.109803359452314
5.6032,-0.0460039946023539,-0.109630581581291
5.6048,-0.0472507443966185,-0.109442220176965
5.6064,-0.0484888817922032,-0.109238648343459
5.608,-0.0497180384256916,-0.109020252496727
5.6096,-0.0509378627042449,-0.108787431654881
5.6112,-0.0521480202634144,-0.108540596715516
5.6128,-0.0533481943929445,-0.108280169709053
5.6144,-0.054538086434578,-0.108006583045071
5.616,-0.0557174161388565,-0.107720278740653
5.6176,-0.0568859219989305,-0.107421707636734
5.6192,-0.0580433615433582,-0.107111328602453
5.6208,-0.0591895115979085,-0.106789607738507
5.6224,-0.0603241685153631,-0.106457017558516
5.624,-0.0614471483663213,-0.106114036176388
5.6256,-0.0625582871010011,-0.105761146485689
5.6272,-0.0636574406760433,-0.105398835328019
5.6288,-0.064744485138313,-0.105027592670395
5.6304,-0.0658193166907084,-0.104647910774637
5.632,-0.0668818517079623,-0.104260283371658
5.6336,-0.0679320267284524,-0.103865204831662
5.6352,-0.0689697984070043,-0.10346316934645
5.6368,-0.0699951434397065,-0.103054670110252
5.6384,-0.0710080584477184,-0.102640198509393
5.64,-0.072008559837085,-0.102220243318616
5.6416,-0.0729966836175495,-0.101795289907403
5.6432,-0.0739724852023747,-0.101365819455156
5.6448,-0.074936039159161,-0.100932308178708
5.6464,-0.0758874389476699,-0.100495226572359
5.648,-0.0768267966166472,-0.100055038661833
5.6496,-0.0777542424756578,-0.099612201271725
5.6512,-0.0786699247389137,-0.0991671633129681
5.6528,-0.0795740091371099,-0.0987203650822971
5.6544,-0.0804666785102665,-0.0982722375837231
5.656,-0.0813481323645723,-0.0978232018690124
5.6576,-0.0822185864172338,-0.0973736683941728
5.6592,-0.0830782721013234,-0.0969240364069458
5.6608,-0.0839274360606432,-0.0964746933423042
5.6624,-0.0847663396165851,-0.0960260142539571
5.664,-0.0855952582159988,-0.0955783612618612
5.6656,-0.0864144808530619,-0.0951320830237383
5.6672,-0.0872243094851653,-0.0946875142395981
5.6688,-0.088025058415794,-0.0942449751722688
5.6704,-0.0888170536674204,-0.0938047711999337
5.672,-0.0896006323463981,-0.093367192395674
5.6736,-0.090376141975872,-0.0929325131300173
5.6752,-0.0911439398326862,-0.0925009917054935
5.6768,-0.0919043922623044,-0.0920728700211962
5.6784,-0.0926578739847331,-0.0916483732573512
5.68,-0.0934047673904593,-0.0912277096008896
5.6816,-0.0941454618333907,-0.0908110699880293
5.6832,-0.0948803529048052,-0.0903986278868609
5.6848,-0.0956098417143096,-0.0899905391009408
5.6864,-0.0963343341558084,-0.0895869416108891
5.688,-0.0970542401744791,-0.0891879554339951
5.6896,-0.097769973029759,-0.0887936825298272
5.6912,-0.0984819485603377,-0.0884042067168504
5.6928,-0.0991905844421667,-0.0880195936370472
5.6944,-0.0998962994544709,-0.0876398907355468
5.696,-0.100599512743377,-0.0872651272752575
5.6976,-0.101300643091046,-0.0868953143835075
5.6992,-0.102000108188816,-0.0865304451236878
5.7008,-0.102698323915305,-0.0861704945949025
5.7024,-0.103395703621984,-0.0858154200606252
5.704,-0.104092657426256,-0.0854651611103574
5.7056,-0.104789591512405,-0.0851196398362948
5.7072,-0.105486907445104,-0.0847787610519973
5.7088,-0.106185001490539,-0.0844424125250641
