"Freq [GHz]","re(S(Antenna1_1_1,Antenna1_1_1)) []","im(S(Antenna1_1_1,Antenna1_1_1)) []"
5,0.0475789721181618,0.179990442625599
5.0016,0.0485145562411198,0.17916006830409
5.0032,0.0494330298781228,0.178318786666765
5.0048,0.0503339521463516,0.177467629944746
5.0064,0.0512169629854292,0.176607658493006
5.008,0.0520817849946365,0.175739954325819
5.0096,0.0529282247501258,0.17486561453772
5.0112,0.0537561736061369,0.173985744651448
5.0128,0.0545656079622083,0.173101451933539
5.0144,0.0553565890133916,0.172213838719669
5.016,0.0561292619724617,0.171323995790283
5.0176,0.0568838547811303,0.170432995836568
5.0192,0.057620676306256,0.169541887058582
5.0208,0.0583401140530568,0.168651686932663
5.0224,0.0590426313933198,0.167763376187243
5.024,0.0597287643336147,0.16687789302087
5.0256,0.0603991178485032,0.165996127605039
5.0272,0.061054361795753,0.165118916893218
5.0288,0.0616952264495477,0.164247039775296
5.0304,0.0623224976607015,0.163381212605422
5.032,0.0629370117058713,0.162522085126858
5.0336,0.0635396498260714,0.161670236819829
5.0352,0.0641313325088865,0.160826173694393
5.0368,0.0647130135459894,0.159990325539295
5.0384,0.0652856738987542,0.159163043661843
5.04,0.0658503154157766,0.158344599099781
5.0416,0.0664079544366889,0.157535181351164
5.0432,0.0669596153255615,0.156734897596244
5.0448,0.0675063239713206,0.155943772438351
5.0464,0.0680491012961715,0.155161748150789
5.048,0.068588956811219,0.154388685432723
5.0496,0.0691268822602924,0.153624364663078
5.0512,0.0696638453881887,0.152868487648437
5.0528,0.0702007838732,0.152120679854945
5.0544,0.0707385994605384,0.151380493097214
5.056,0.0712781523305664,0.150647408680228
5.0576,0.0718202557389258,0.149920840971255
5.0592,0.0723656709530677,0.149200141366761
5.0608,0.0729151025312864,0.148484602646318
5.0624,0.0734691939509507,0.147773463676529
5.064,0.0740285236287408,0.147065914430937
5.0656,0.0745936013528825,0.146361101308652
5.0672,0.0751648651363859,0.145658132704565
5.0688,0.0757426785302826,0.144956084801877
5.0704,0.0763273283968669,0.144254007552914
5.072,0.0769190231529355,0.143550930808658
5.0736,0.0775178915100305,0.142845870559268
5.0752,0.0781239816996825,0.142137835248505
5.0768,0.0787372612006551,0.141425832121759
5.0784,0.0793576169601903,0.140708873570473
5.08,0.0799848561082557,0.139985983432771
5.0816,0.0806187071677913,0.139256203213083
5.0832,0.0812588217379594,0.138518598181867
5.0848,0.0819047766503928,0.137772263319342
5.0864,0.0825560765864462,0.137016329067004
5.088,0.0832121571204471,0.136249966852758
5.0896,0.0838723881949485,0.135472394354833
5.0912,0.0845360779859803,0.134682880472111
5.0928,0.0852024771443042,0.133880749981047
5.0944,0.0858707833766667,0.133065387831584
5.096,0.0865401463570544,0.13223624307808
5.0976,0.0872096729127481,0.131392832406218
5.0992,0.0878784324719789,0.130534743246925
5.1008,0.0885455073871832,0.129661172150285
5.1024,0.0892098023011593,0.128771850545451
5.104,0.0898702288203221,0.127867068599557
5.1056,0.0905257666474605,0.126946735205622
5.1072,0.0911753895838329,0.126010838500461
5.1088,0.0918180717339222,0.125059446018584
5.1104,0.0924527936968933,0.124092704366099
5.112,0.0930785487077464,0.123110838414609
5.1136,0.0936943486899735,0.122114150019113
5.1152,0.0942992301845716,0.121103016264893
5.1168,0.0948922601180981,0.120077887272406
5.1184,0.095472541378722,0.119039283548176
5.12,0.0960392181586783,0.117987792924672
5.1216,0.0965914810435174,0.116924067085194
5.1232,0.0971285718073577,0.115848817715747
5.1248,0.097649787889133,0.114762812294922
5.1264,0.0981544865288419,0.113666869554762
5.128,0.0986420885247939,0.112561854632632
5.1296,0.099112081609855,0.111448673955485
5.1312,0.0995640234076913,0.110328269879721
5.1328,0.0999975439710118,0.109201615119944
5.1344,0.100412347862807,0.108069707004821
5.136,0.10080821579659,0.106933561591122
5.1376,0.10118500580563,0.105794207674228
5.1392,0.101542653942187,0.104652680729464
5.1408,0.101881174506748,0.10351001682309
5.1424,0.102200659797249,0.102367246528137
5.144,0.102501279396309,0.101225388882186
5.1456,0.102783278976451,0.100085445424293
5.1472,0.103046978666324,0.0989483943457636
5.1488,0.103292770946922,0.097815184791168
5.1504,0.103521118130799,0.0966867313421571
5.152,0.103732549410286,0.0955639087183696
5.1536,0.103927657512694,0.0944475467293391
5.1552,0.104107094967523,0.0933384254970943
5.1568,0.104271570027665,0.0922372709979543
5.1584,0.104421842244604,0.0911447509253234
5.16,0.104558717751906,0.0900614709214759
5.1616,0.104683044262017,0.0889879711773424
5.1632,0.104795705825545,0.0879247234462864
5.1648,0.104897617371645,0.0868721284668814
5.1664,0.104989719069099,0.0858305138166789
5.168,0.105072970541786,0.084800132221977
5.1696,0.105148344970917,0.0837811603115783
5.1712,0.105216823123198,0.0827736978395513
5.1728,0.105279387337689,0.0817777673689794
5.1744,0.105337015509662,0.0807933144297124
5.176,0.105390675106848,0.0798202081411076
5.1776,0.105441317254625,0.0788582422887728
5.1792,0.105489870924759,0.0779071368702981
5.1808,0.105537237263733,0.0769665400789906
5.1824,0.105584284092182,0.0760360307185977
5.184,0.105631840615614,0.0751151210450329
5.1856,0.105680692364824,0.0742032600020916
5.1872,0.105731576411013,0.0732998368461674
5.1888,0.105785176875885,0.0724041851199596
5.1904,0.105842120759753,0.0715155869731822
5.192,0.105902974128629,0.0706332777873625
5.1936,0.10596823866231,0.0697564510798422
5.1952,0.106038348599459,0.0688842636649678
5.1968,0.10611366809168,0.0680158410327842
5.1984,0.106194488982582,0.0671502829169166
5.2,0.106281029024839,0.0662866690174574
5.2016,0.106374270985245,0.0654239533866497
5.2032,0.106473418651758,0.0645611771638163
5.2048,0.106578446891538,0.0636973983468292
5.2064,0.10668925427498,0.0628316800936754
5.208,0.106805663734734,0.0619630966529743
5.2096,0.106927423671727,0.0610907392246248
5.2112,0.107054209518165,0.0602137217156666
5.2128,0.107185625739538,0.0593311863562291
5.2144,0.107321208268612,0.0584423091404872
5.216,0.107460427349412,0.0575463050652047
5.2176,0.107602690777201,0.0566424331275826
5.2192,0.107747347519447,0.0557300010598966
5.2208,0.107893691694784,0.0548083697621399
5.2224,0.108040966871966,0.0538769574206557
5.224,0.108188370686306,0.0529352432747732
5.2256,0.108335059728614,0.0519827710174356
5.2272,0.108480154683325,0.0510191518038306
5.2288,0.108622745683711,0.0500440668560136
5.2304,0.108761897853996,0.0490572696395337
5.232,0.108896657003052,0.048058587611052
5.2336,0.109026055435931,0.0470479235149637
5.2352,0.109149117849449,0.0460252562220115
5.2368,0.109264867275453,0.0449906411189048
5.2384,0.109372331036792,0.0439442100299284
5.24,0.109470546679664,0.0428861706715583
5.2416,0.109558567847428,0.0418168056650688
5.2432,0.109635470060033,0.0407364710761428
5.2448,0.109700356365049,0.0396455945304773
5.2464,0.109752362826779,0.0385446728803914
5.248,0.10979066381747,0.0374342694664286
5.2496,0.109814477085006,0.0363150109639641
5.2512,0.109823068556,0.035187583857803
5.2528,0.109815756862568,0.0340527305407869
5.2544,0.109791917545097,0.032911245085394
5.256,0.109750986920004,0.0317639686948377
5.2576,0.109692465583486,0.0306117848626714
5.2592,0.109615921535251,0.029455614281685
5.2608,0.109520992890255,0.0282964095186079
5.2624,0.109407390182412,0.0271351494949075
5.264,0.109274898223306,0.0259728338020908
5.2656,0.109123377521886,0.024810476888603
5.2672,0.108952765251157,0.0236491021508312
5.2688,0.108763075748853,0.0224897359644029
5.2704,0.108554400559107,0.0213334016918909
5.272,0.108326908006104,0.0201811137016135
5.2736,0.108080842308733,0.0190338714350405
5.2752,0.107816522233217,0.0178926535569961
5.2768,0.107534339300741,0.0167584122249673
5.2784,0.107234755549071,0.015632067508908
5.28,0.106918300872152,0.0145145020039507
5.2816,0.106585569945707,0.0134065556534145
5.2832,0.106237218758823,0.0123090208321197
5.2848,0.10587396077252,0.0112226377019984
5.2864,0.105496562729316,0.0101480898787137
5.288,0.105105840131884,0.00908600043827491
5.2896,0.104702652425089,0.00803692827566063
5.2912,0.104287897908324,0.00700136485143792
5.2928,0.103862508402831,0.0059797313343916
5.2944,0.103427443712411,0.00497237617414798
5.296,0.10298368590613,0.00397957309580963
5.2976,0.102532233459034,0.00300151955258508
5.2992,0.102074095285183,0.00203833563042946
5.3008,0.101610402950322,0.00109044873168079
5.3024,0.101142255828039,0.000157793370706204
5.304,0.100670564784366,-0.000760150531452397
5.3056,0.100196313932188,-0.0016635867444291
5.3072,0.0997204663436738,-0.00255279420587665
5.3088,0.0992439582584946,-0.00342812518481202
5.3104,0.0987676934490328,-0.00429000300195102
5.312,0.0982925377714816,-0.0051389193200445
5.3136,0.0978193139450349,-0.00597543101620536
5.3152,0.0973487965817653,-0.00680015665623608
5.3168,0.0968817075039944,-0.00761377259094669
5.3184,0.0964187113716516,-0.00841700869547232
5.32,0.0959604116546244,-0.00921064378648247
5.3216,0.0955073469680971,-0.00999550072378907
5.3232,0.0950599877908827,-0.0107724412507439
5.3248,0.0946187336027413,-0.0115423605830385
5.3264,0.094183910437693,-0.0123061817893905
5.328,0.0937557688853174,-0.0130648499934317
5.3296,0.0933344825430476,-0.0138193264331039
5.3312,0.0929201469344505,-0.014570582411537
5.3328,0.092512778903502,-0.0153195931767117
5.3344,0.0921123164778495,-0.0160673317658257
5.336,0.0917186192170678,-0.016814762852946
5.3376,0.0913314690409041,-0.0175628366341411
5.3392,0.0909505715195155,-0.0183124827909221
5.3408,0.0905755576466956,-0.0190646045642819
5.3424,0.0902059860530949,-0.019820072980223
5.344,0.0898413456834299,-0.0205797212536837
5.3456,0.0894810588846854,-0.0213443394224524
5.3472,0.0891244849193068,-0.0221146692133812
5.3488,0.0887709238673857,-0.0228913992125848
5.3504,0.0884196208948345,-0.0236751603286414
5.352,0.0880697708705557,-0.0244665216137775
5.3536,0.087720523296901,-0.0252659864350517
5.3552,0.0873709875337226,-0.0260739890525293
5.3568,0.0870202382753173,-0.0268908915964481
5.3584,0.0866673212550617,-0.027716981485379
5.36,0.0863112591414412,-0.0285524692863756
5.3616,0.0859510575890387,-0.0293974870461216
5.3632,0.0855857114111991,-0.0302520870860631
5.3648,0.0852142108345333,-0.0311162412895403
5.3664,0.0848355477988169,-0.031989840871905
5.368,0.0844487222653307,-0.0328726966416348
5.3696,0.0840527484933747,-0.0337645397574357
5.3712,0.0836466612484442,-0.0346650229693395
5.3728,0.083229521903301,-0.0355737223387887
5.3744,0.0828004243950344,-0.0364901394397189
5.376,0.0823585010023202,-0.0374137040156264
5.3776,0.0819029279063687,-0.0383437770776328
5.3792,0.0814329304990697,-0.0392796544445363
5.3808,0.0809477884120292,-0.0402205706798583
5.3824,0.080446840226601,-0.0411657034188787
5.384,0.0799294878419125,-0.0421141780595636
5.3856,0.0793952004678835,-0.0430650727828827
5.3872,0.0788435182252399,-0.0440174238797214
5.3888,0.0782740553205233,-0.0449702313508785
5.3904,0.0776865027810916,-0.0459224647463607
5.392,0.0770806307311191,-0.0468730692102621
5.3936,0.0764562901895855,-0.0478209716950225
5.3952,0.0758134143862667,-0.0487650873067831
5.3968,0.0751520195777138,-0.0497043257458551
5.3984,0.0744722053532335,-0.0506375978009522
5.4,0.0737741544468582,-0.0515638218600362
5.4016,0.0730571664923171,-0.0524813597407602
5.4032,0.0723226442039979,-0.0533895873574897
5.4048,0.0715710304369086,-0.0542874952995083
5.4064,0.0708028442286321,-0.0551741088925199
5.408,0.0700186779512774,-0.0560484940847384
5.4096,0.0692191940084291,-0.0569097631021675
5.4112,0.0684051210940914,-0.0577570798396718
5.4128,0.0675772500446278,-0.0585896649428406
5.4144,0.0667364292876997,-0.0594068005658386
5.416,0.0658835599382996,-0.0602078347592503
5.4176,0.0650195905538845,-0.0609921854729114
5.4192,0.0641455115857012,-0.0617593441357355
5.4208,0.0632623495601129,-0.062508878802528
5.4224,0.0623711610222219,-0.0632404368367906
5.424,0.0614730262797917,-0.0639537471175163
5.4256,0.0605690429837005,-0.0646486217489794
5.4272,0.0596603195852605,-0.0653249572725087
5.4288,0.0587479687080299,-0.0659827353572566
5.4304,0.057833100476626,-0.0666220229779565
5.432,0.0569168158407312,-0.0672429720626731
5.4336,0.0560001999377659,-0.0678458186245402
5.4352,0.05508431553329,-0.0684308813714925
5.4368,0.0541701965780138,-0.0689985598059835
5.4384,0.0532588419276962,-0.0695493318227004
5.44,0.0523512092570511,-0.0700837508172644
5.4416,0.0514482092066469,-0.070602442319925
5.4432,0.0505506998108103,-0.0711061001792419
5.4448,0.0496594812215239,-0.0715954823147621
5.4464,0.048775290783326,-0.0720714060556851
5.448,0.047898798472211,-0.0725347431082192
5.4496,0.0470306027425293,-0.072986414166128
5.4512,0.0461712267938831,-0.0734273832048721
5.4528,0.0453211153040263,-0.0738586514921378
5.4544,0.0444806316197656,-0.0742812513479562
5.456,0.043650055459856,-0.0746962396942191
5.4576,0.0428295811059017,-0.0751046914317404
5.4592,0.0420193161382565,-0.0755076926848522
5.4608,0.0412192806869249,-0.0759063339550895
5.4624,0.0404294072284612,-0.0763017032247708
5.464,0.0396495409268713,-0.0766948790549671
5.4656,0.0388794405095188,-0.0770869237172013
5.4672,0.0381187796870275,-0.0774788764047026
5.4688,0.0373671491041853,-0.0778717465615518
5.4704,0.0366240588118519,-0.0782665073776176
5.472,0.0358889412468678,-0.0786640894798848
5.4736,0.035161154705964,-0.0790653748739747
5.4752,0.034439987290671,-0.0794711911556596
5.4768,0.0337246613002342,-0.079882306051367
5.4784,0.0330143380575273,-0.0802994223036773
5.48,0.0323081231204722,-0.0807231729428129
5.4816,0.0316050718665536,-0.0811541169761224
5.4832,0.0309041954084446,-0.0815927355245545
5.4848,0.0302044668064261,-0.0820394284211265
5.4864,0.0295048275413185,-0.082494511311384
5.488,0.0288041942092041,-0.082958213264856
5.4896,0.0281014653957618,-0.083430674909501
5.4912,0.0273955286906994,-0.083911947119147
5.4928,0.0266852677969923,-0.0844019902529241
5.4944,0.0259695696924202,-0.0849006739486919
5.496,0.0252473317999105,-0.0854077774924601
5.4976,0.0245174691205841,-0.0859229907428011
5.4992,0.0237789212860046,-0.0864459156202576
5.5008,0.0230306594863279,-0.0869760681557453
5.5024,0.0222716932271583,-0.0875128810749476
5.504,0.0215010768798083,-0.0880557069177041
5.5056,0.0207179159751584,-0.0886038216733962
5.5072,0.0199213732016219,-0.0891564289003248
5.5088,0.0191106740811154,-0.0897126643250827
5.5104,0.0182851122660314,-0.0902716008749213
5.512,0.0174440544402122,-0.0908322541328148
5.5136,0.0165869447799313,-0.0913935881666155
5.5152,0.0157133089538761,-0.0919545217074073
5.5168,0.0148227576301379,-0.0925139346377513
5.5184,0.0139149894651986,-0.0930706747502308
5.52,0.0129897935579303,-0.0936235647355979
5.5216,0.0120470513525908,-0.0941714093580581
5.5232,0.0110867379628318,-0.094713002773299
5.5248,0.0101089229287008,-0.0952471359458171
5.5264,0.00911377037865573,-0.0957726041171886
5.528,0.00810153859957876,-0.0962882142809775
5.5296,0.00707257902679899,-0.0967927926172489
5.5312,0.00602733463411185,-0.0972851918392812
5.5328,0.0049663377518113,-0.0977642984063717
5.5344,0.00389020731471815,-0.0982290395585426
5.536,0.00279964555922193,-0.0986783901247398
5.5376,0.00169543417431622,-0.0991113790671329
5.5392,0.000578429954646622,-0.0995270957084102
5.5408,-0.000550440054441158,-0.0999246956220713
5.5424,-0.00169018385384538,-0.100303406116717
5.544,-0.00283975023555299,-0.100662531309338
5.5456,-0.00399803491177735,-0.101001456730602
5.5472,-0.00516388700749024,-0.101319653450136
5.5488,-0.00633611587505124,-0.101616681672809
5.5504,-0.00751349818633448,-0.101892193801013
5.552,-0.00869478526146895,-0.102145936928943
5.5536,-0.00987871058995276,-0.102377754752872
5.5552,-0.0110639974954685,-0.102587588884429
5.5568,-0.0122493668994911,-0.102775479560878
5.5584,-0.0134335451335915,-0.102941565727386
5.56,-0.0146152717524141,-0.103086084512301
5.5616,-0.0157933072990774,-0.103209370076428
5.5632,-0.016966440970263,-0.103311851847296
5.5648,-0.0181334981390048,-0.103394052151435
5.5664,-0.0192933476815704,-0.103456583244645
5.568,-0.0204449090590451,-0.103500143773275
5.5696,-0.0215871591192062,-0.103525514665489
5.5712,-0.0227191385643955,-0.103533554492545
5.5728,-0.023839958040386,-0.103525194323066
5.5744,-0.0249488038192525,-0.103501432087313
5.576,-0.0260449430292281,-0.103463326506365
5.5776,-0.0271277283945652,-0.103411990602892
5.5792,-0.0281966024553861,-0.103348584845833
5.5808,-0.0292511012495398,-0.103274309960978
5.5824,-0.0302908574064468,-0.103190399457344
5.584,-0.0313156026559436,-0.103098111912128
5.5856,-0.0323251697161243,-0.102998723063042
5.5872,-0.0333194935521812,-0.102893517755901
5.5888,-0.0342986119972385,-0.102783781799204
5.5904,-0.0352626657191866,-0.102670793774478
5.592,-0.0362118975405099,-0.102555816856003
5.5936,-0.0371466511101171,-0.102440090691199
5.5952,-0.0380673689251656,-0.102324823390931
5.5968,-0.038974589717883,-0.102211183687003
5.5984,-0.0398689452233876,-0.102100293297164
5.6,-0.0407511563435081,-0.101993219558415
5.6016,-0.0416210576175992,-0.101892151987314
5.6032,-0.0424806945763539,-0.101796993971291
5.6048,-0.0433310440806185,-0.101708586220965
5.6064,-0.0441731488312032,-0.101627687388459
5.608,-0.0450081107280916,-0.101554968932727
5.6096,-0.0458370838311449,-0.101491010520881
5.6112,-0.0466612669603144,-0.101436295993516
5.6128,-0.0474818959859445,-0.101391209925053
5.6144,-0.048300235853378,-0.101356034804071
5.616,-0.0491175723935565,-0.101330948851653
5.6176,-0.0499352039685305,-0.101316024488734
5.6192,-0.0507544330063582,-0.101311227481453
5.6208,-0.0515765574766085,-0.101316416753507
5.6224,-0.0524028623623631,-0.101331344880516
5.624,-0.0532346111813213,-0.101355659265388
5.6256,-0.0540730376100011,-0.101388903985689
5.6272,-0.0549193372670433,-0.101430522306019
5.6288,-0.055774659702313,-0.101479859845395
5.6304,-0.0566401006567084,-0.101536168378637
5.632,-0.0575166946219623,-0.101598610246758
5.6336,-0.0584054077724524,-0.101666263362362
5.6352,-0.0593071312960043,-0.10173812676805
5.6368,-0.0602226751827065,-0.101813126719822
5.6384,-0.0611527625007184,-0.101890123261493
5.64,-0.062098024209085,-0.101967917252416
5.6416,-0.0630589945285495,-0.102045257787503
5.6432,-0.0640361069213747,-0.102120849993256
5.6448,-0.065029690691161,-0.102193363126308
5.6464,-0.0660399682286699,-0.102261438937789
5.648,-0.0670670529426473,-0.102323700246333
5.6496,-0.0681109478656578,-0.102378759667525
5.6512,-0.0691715449579137,-0.102425228443968
5.6528,-0.0702486251311099,-0.102461725321097
5.6544,-0.0713418589612665,-0.102486885410723
5.656,-0.0724508081275723,-0.102499368988012
5.6576,-0.0735749275382338,-0.102497870162173
5.6592,-0.0747135681583234,-0.102481125369946
5.6608,-0.0758659804996432,-0.102447921627304
5.6624,-0.0770313187815851,-0.102397104502957
5.664,-0.0782086457139988,-0.102327585739861
5.6656,-0.0793969378860619,-0.102238350493738
5.6672,-0.0805950917271653,-0.102128464124598
5.6688,-0.081801930010794,-0.101997078511269
5.6704,-0.0830162088454204,-0.101843437833934
5.672,-0.0842366251268981,-0.101666883795674
5.6736,-0.085461824399172,-0.101466860232017
5.6752,-0.0866904090728862,-0.101242917102494
5.6768,-0.0879209469550045,-0.100994713802196
5.6784,-0.0891519800342631,-0.100722021801351
5.68,-0.0903820334671593,-0.10042472656989
5.6816,-0.0916096247076907,-0.100102828785029
5.6832,-0.0928332727243052,-0.0997564448078609
5.6848,-0.0940515072429096,-0.0993858064159408
5.6864,-0.0952628779598084,-0.0989912597978891
5.688,-0.0964659636624791,-0.0985732638209951
5.6896,-0.097659381201759,-0.0981323875528272
5.6912,-0.0988417942543377,-0.0976693070828504
5.6928,-0.100011921822167,-0.0971848016390472
5.6944,-0.101168546411471,-0.0966797490255468
5.696,-0.102310521833777,-0.0961551204152575
5.6976,-0.103436780585947,-0.0956119745225075
5.6992,-0.104546340747226,-0.0950514511886878
5.7008,-0.105638312365305,-0.0944747644199025
5.7024,-0.106711903265384,-0.0938831949327252
5.704,-0.107766424264256,-0.0932780822249574
5.7056,-0.108801293735405,-0.0926608162523948
5.7072,-0.109816041508104,-0.0920328287414973
5.7088,-0.110810312064539,-0.0913955842008641
