"Freq [GHz]","re(S(Antenna1_1_1,Antenna1_1_1)) []","im(S(Antenna1_1_1,Antenna1_1_1)) []"
5,0.0465308135164618,0.176457746396599
5.0016,0.0471844944128198,0.17572699530259
5.0032,0.0478303314490228,0.175007749456465
5.0048,0.0484696586439516,0.174300193188146
5.0064,0.0491038142518182,0.173604398989806
5.008,0.0497341316126365,0.172920327901619
5.0096,0.0503619300943258,0.17224783063552
5.0112,0.0509885061861369,0.171586649426972
5.0128,0.0516151248012083,0.170936420612739
5.0144,0.0522430108464916,0.170296677883669
5.016,0.0528733411124617,0.169666856214483
5.0176,0.0535072365381303,0.169046296426568
5.0192,0.054145754894256,0.168434250343782
5.0208,0.0547898839410568,0.167829886520263
5.0224,0.0554405350893198,0.167232296475243
5.024,0.0560985376156147,0.16664050141487
5.0256,0.0567646334645033,0.166053459370039
5.0272,0.057439472654753,0.165470072713218
5.0288,0.0581236093435477,0.164889196003196
5.0304,0.0588174985387015,0.164309644093522
5.032,0.0595214934968713,0.163730200453358
5.0336,0.0602358438247714,0.163149625648329
5.0352,0.0609606942603865,0.162566665918593
5.0368,0.0616960841831894,0.161980061797565
5.0384,0.0624419478063542,0.161388556715343
5.04,0.0631981150799766,0.160790905528381
5.0416,0.0639643132742889,0.160185882920164
5.0432,0.0647401692338815,0.159572291617244
5.0448,0.0655252122859206,0.158948970369051
5.0464,0.0663188777703715,0.158314801638789
5.048,0.067120511181219,0.157668718954723
5.0496,0.0679293728626924,0.157009713885078
5.0512,0.0687446432484887,0.156336842573437
5.0528,0.069565428591,0.155649231821945
5.0544,0.0703907671505384,0.154946084655214
5.056,0.0712196357875664,0.154226685359228
5.0576,0.0720509569199258,0.153490403947255
5.0592,0.0728836058020677,0.152736700029761
5.0608,0.0737164180595864,0.151965126081318
5.0624,0.0745481974452507,0.151175330064529
5.064,0.0753777237517408,0.150367057416937
5.0656,0.0762037608344825,0.149540152384952
5.0672,0.0770250646882659,0.148694558696765
5.0688,0.0778403915250326,0.147830319584277
5.0704,0.0786485058001669,0.146947577148014
5.072,0.0794481881341355,0.146046571082058
5.0736,0.0802382430792305,0.145127636764968
5.0752,0.0810175066802825,0.144191202738705
5.0768,0.0817848537832551,0.143237787597559
5.0784,0.0825392050431903,0.142267996300073
5.08,0.0832795335922557,0.141282515950971
5.0816,0.0840048713157913,0.140282111068082
5.0832,0.0847143147159594,0.139267618371267
5.0848,0.0854070303133928,0.138239941144342
5.0864,0.0860822595524462,0.137200043191004
5.088,0.0867393231994471,0.136148942437758
5.0896,0.0873776251899485,0.135087704226833
5.0912,0.0879966559109803,0.134017434342311
5.0928,0.0885959949073042,0.132939271819847
5.0944,0.0891753129846667,0.131854381585984
5.096,0.0897343737120544,0.13076394697608
5.0976,0.0902730343139481,0.129669162181318
5.0992,0.0907912459455789,0.128571224674245
5.1008,0.0912885312511832,0.127471493663985
5.1024,0.0917650761282593,0.126371270904351
5.104,0.0922216626728221,0.125271585283057
5.1056,0.0926586258286605,0.124173562206222
5.1072,0.0930763856335928,0.123078292128961
5.1088,0.0934754438597222,0.121986823993584
5.1104,0.0938563801366933,0.120900158983099
5.112,0.0942198476129464,0.119819244621609
5.1136,0.0945665681759734,0.118744969274113
5.1152,0.0948973272555716,0.117678157051893
5.1168,0.0952129682710981,0.116619563180406
5.1184,0.095514386732722,0.115569869835176
5.12,0.0958025240636783,0.114529682478672
5.1216,0.0960783611637174,0.113499526717194
5.1232,0.0963429117676577,0.112479845692747
5.1248,0.096597215647333,0.111470998016922
5.1264,0.0968423316888419,0.110473256269762
5.128,0.0970793309008939,0.109486806053632
5.1296,0.097309289394505,0.108511745614085
5.1312,0.0975332813813913,0.107548086017721
5.1328,0.0977523722335118,0.106595751897044
5.1344,0.0979676116495071,0.105654582727321
5.136,0.09818002696949,0.104724334654422
5.1376,0.0983906166799295,0.103804682825678
5.1392,0.0986003441488872,0.102895224237714
5.1408,0.0988101316297477,0.10199548105229
5.1424,0.099020854567249,0.101104904366137
5.144,0.0992333362463091,0.100222878417786
5.1456,0.0994483428054511,0.0993487251763928
5.1472,0.0996665786483237,0.0984817093085636
5.1488,0.0998886822869215,0.097621043468168
5.1504,0.100115222626799,0.0967658938871571
5.152,0.100346695718286,0.0959153862115696
5.1536,0.100583521996694,0.0950686115734391
5.1552,0.100826044024523,0.0942246328259943
5.1568,0.101074524734665,0.0933824909245543
5.1584,0.101329146198604,0.0925412114014234
5.16,0.101590008907606,0.0916998108966759
5.1616,0.101857131586917,0.0908573037017924
5.1632,0.102130451517945,0.0900127082754864
5.1648,0.102409825377445,0.0891650536913814
5.1664,0.102695030585699,0.0883133859764789
5.168,0.102985767142686,0.087456774302477
5.1696,0.103281659939257,0.0865943169907783
5.1712,0.103582261534298,0.0857251472965513
5.1728,0.103887055366889,0.0848484389349794
5.1744,0.104195459382462,0.0839634113207123
5.176,0.104506830054948,0.0830693344811076
5.1776,0.104820466762925,0.0821655336307728
5.1792,0.105135616505759,0.0812513933592981
5.1808,0.105451478916733,0.0803263614329906
5.1824,0.105767211541782,0.0793899521635977
5.184,0.106081935355414,0.0784417493520329
5.1856,0.106394740468924,0.0774814087740916
5.1872,0.106704692000013,0.0765086601961674
5.1888,0.107010836064985,0.0755233089209596
5.1904,0.107312205853553,0.0745252368581822
5.192,0.107607827750669,0.0735144030932625
5.1936,0.10789672746474,0.0724908439910422
5.1952,0.108177936125859,0.0714546727994678
5.1968,0.10845049631508,0.0704060787922842
5.1984,0.108713467989282,0.0693453259287166
5.2,0.108965934263639,0.0682727510641574
5.2016,0.109206463906745,0.0671880984288397
5.2032,0.109434649565358,0.0660925981495163
5.2048,0.109649687996538,0.0649868010541293
5.2064,0.10985082112998,0.0638713181984754
5.208,0.110037340525734,0.0627468169708743
5.2096,0.110208591494727,0.0616140168678248
5.2112,0.110363976866165,0.0604736849766666
5.2128,0.110502960375538,0.0593266311902291
5.2144,0.110625069656612,0.0581737031863872
5.216,0.110729898830412,0.0570157812073047
5.2176,0.110817110654201,0.0558537726666826
5.2192,0.110886438251447,0.0546886066233966
5.2208,0.110937686392784,0.0535212281544399
5.2224,0.110970732325966,0.0523525926618557
5.224,0.110985526163806,0.0511836601506432
5.2256,0.110982090819114,0.0500153895103356
5.2272,0.110960521495625,0.0488487328375306
5.2288,0.110920984732911,0.0476846298316136
5.2304,0.110863717034296,0.0465240022995337
5.232,0.110789023053752,0.045367748800352
5.2336,0.110697273397791,0.0442167394626637
5.2352,0.110588902023349,0.0430718110053115
5.2368,0.110464403264653,0.0419337619899048
5.2384,0.110324328511092,0.0408033483299284
5.24,0.110169282555064,0.0396812790955583
5.2416,0.109999919630828,0.0385682126090688
5.2432,0.109816939178333,0.0374647528901428
5.2448,0.109621081346549,0.0363714464414773
5.2464,0.109413122282979,0.0352887794033914
5.248,0.10919386922027,0.0342171750914286
5.2496,0.108964155404506,0.0331569919369641
5.2512,0.1087248348904,0.032108521821803
5.2528,0.108476777236968,0.0310719888347869
5.2544,0.108220862136297,0.030047548450394
5.256,0.107957974008795,0.0290352871193377
5.2576,0.107688996597186,0.0280352222911714
5.2592,0.107414807591351,0.027047302850885
5.2608,0.107136273318255,0.0260714099725079
5.2624,0.106854243525612,0.0251073583797075
5.264,0.106569546293706,0.0241548980073908
5.2656,0.106282983102586,0.023213716044303
5.2672,0.105995324085257,0.0222834393486312
5.2688,0.105707303493853,0.0213636372246029
5.2704,0.105419615403107,0.0204538245280909
5.272,0.105132909685104,0.0195534650922135
5.2736,0.104847788257733,0.0186619754499405
5.2752,0.104564801657217,0.0177787288226961
5.2768,0.104284445925741,0.0169030593579673
5.2784,0.104007159848071,0.016034266583808
5.28,0.103733322549152,0.0151716200559507
5.2816,0.103463251463707,0.0143143641666145
5.2832,0.103197200685823,0.0134617230859197
5.2848,0.10293535971252,0.0126129058065984
5.2864,0.102677852583316,0.0117671112605137
5.288,0.102424737424784,0.0109235334756549
5.2896,0.102176006385089,0.0100813667438606
5.2912,0.101931585987524,0.00923981076663792
5.2928,0.101691337858031,0.0083980757500916
5.2944,0.101455059866711,0.00755538741674798
5.296,0.10122248763233,0.00671099190640963
5.2976,0.100993296413804,0.00586416053608508
5.2992,0.100767103348683,0.00501419439112946
5.3008,0.100543679984622,0.00416018256668079
5.3024,0.100322476495839,0.0033014538297062
5.304,0.100102717708566,0.0024376629885476
5.3056,0.0998838119184876,0.0015682816225709
5.3072,0.0996651263471738,0.000692831109123352
5.3088,0.0994459912035946,-0.000189114408812016
5.3104,0.0992257039631328,-0.00107792538495102
5.312,0.0990035338270816,-0.0019739145700445
5.3136,0.0987787263394349,-0.00287733507220536
5.3152,0.0985505081313653,-0.00378837877923608
5.3168,0.0983180917663944,-0.00470717515994669
5.3184,0.0980806806548616,-0.00563379043947232
5.32,0.0978374740102544,-0.00656822716158247
5.3216,0.0975876718162971,-0.00751042413398907
5.3232,0.0973304797758827,-0.00846025675964387
5.3248,0.0970651142128413,-0.00941753774303847
5.3264,0.096790806896193,-0.0103820181814905
5.328,0.0965068097595174,-0.0113533890154317
5.3296,0.0962123994882477,-0.0123312828376839
5.3312,0.0959068819454505,-0.013315276054737
5.3328,0.095589596413502,-0.0143048913760117
5.3344,0.0952599196248495,-0.0152996006171257
5.336,0.0949172695570678,-0.016298827809146
5.3376,0.0945611089769041,-0.0173019525818411
5.3392,0.0941909487025155,-0.0183083138106221
5.3408,0.0938063505746956,-0.0193172134940819
5.3424,0.0934069301120949,-0.020327920852523
5.344,0.0929923588484299,-0.0213396766084837
5.3456,0.0925623663156854,-0.0223516974321524
5.3472,0.0921167416913068,-0.0233631805224812
5.3488,0.0916553350713857,-0.0243733082958848
5.3504,0.0911780583898344,-0.0253812531550214
5.352,0.0906848859545557,-0.0263861823096275
5.3536,0.090175854618601,-0.0273872626194517
5.3552,0.0896510635703226,-0.0283836654317293
5.3568,0.0891106737525173,-0.0293745713832481
5.3584,0.0885549069175617,-0.030359175140379
5.36,0.0879840443175412,-0.0313366900460756
5.3616,0.0873984250353687,-0.0323063526502216
5.3632,0.0867984439818991,-0.0332674270923631
5.3648,0.0861845495590333,-0.0342192093155403
5.3664,0.0855572409988169,-0.035161031080905
5.368,0.0849170654175307,-0.0360922637686348
5.3696,0.0842646145697747,-0.0370123219264357
5.3712,0.0836005213583442,-0.0379206665673395
5.3728,0.082925456083701,-0.0388168081797887
5.3744,0.0822401224905344,-0.0397003094357189
5.376,0.0815452536095202,-0.0405707875876264
5.3776,0.0808416074320687,-0.0414279165346328
5.3792,0.0801299624402697,-0.0422714285505363
5.3808,0.0794111130185292,-0.0431011156528584
5.3824,0.0786858647754311,-0.0439168306228788
5.384,0.0779550298028125,-0.0447184876546636
5.3856,0.0772194219003835,-0.0455060626370827
5.3872,0.0764798517950399,-0.0462795930678214
5.3888,0.0757371223817233,-0.0470391775943785
5.3904,0.0749920240164916,-0.0477849751960607
5.392,0.0742453298875191,-0.0485172039989621
5.3936,0.0734977914924855,-0.0492361397349415
5.3952,0.0727501342491667,-0.0499421138705831
5.3968,0.0720030532657138,-0.0506355113811551
5.3984,0.0712572092952335,-0.0513167682245522
5.4,0.0705132248988582,-0.0519863685002362
5.4016,0.0697724395173171,-0.0526444900161602
5.4032,0.0690346797839978,-0.0532921727533897
5.4048,0.0683004193979086,-0.0539300306566083
5.4064,0.0675700805516321,-0.0545587103717199
5.408,0.0668440315772774,-0.0551788871259384
5.4096,0.0661225849234291,-0.0557912604427675
5.4112,0.0654059954800914,-0.0563965497129718
5.4128,0.0646944592296278,-0.0569954896516406
5.4144,0.0639881122746997,-0.0575888256655886
5.416,0.0632870302161996,-0.0581773091606703
5.4176,0.0625912278951845,-0.0587616928157114
5.4192,0.0619006595068012,-0.0593427258519355
5.4208,0.0612152190752129,-0.0599211493261279
5.4224,0.0605347412935219,-0.0604976914748906
5.424,0.0598590027196917,-0.0610730631388163
5.4256,0.0591877233204605,-0.0616479532923794
5.4272,0.0585205683622605,-0.0622230247082087
5.4288,0.0578571506261299,-0.0627989097792566
5.4304,0.057197032945626,-0.0633762065259565
5.432,0.0565397310337312,-0.0639554748116731
5.4336,0.0558847166118659,-0.0645372327865402
5.4352,0.05523142078899,-0.0651219535874925
5.4368,0.0545792376970138,-0.0657100623009835
5.4384,0.0539275283448962,-0.0663019332317004
5.44,0.0532756246767511,-0.0668978874582644
5.4416,0.0526228338055469,-0.067498190721925
5.4432,0.0519684423995103,-0.0681030516512419
5.4448,0.0513117211944239,-0.0687126203207621
5.4464,0.050651929603726,-0.0693269871696851
5.448,0.049988320401141,-0.0699461822845192
5.4496,0.0493201444458293,-0.070570175036728
5.4512,0.0486466554230831,-0.0711988740973721
5.4528,0.0479671145711263,-0.0718321278097378
5.4544,0.0472807953672656,-0.0724697249359562
5.456,0.046586988143256,-0.0731113957596191
5.4576,0.0458850046040017,-0.0737568135463804
5.4592,0.0451741822212565,-0.0744055963455522
5.4608,0.0444538884759249,-0.0750573091376895
5.4624,0.0437235249254612,-0.0757114662991708
5.464,0.0429825310668713,-0.0763675343707671
5.4656,0.0422303879765188,-0.0770249351374013
5.4672,0.0414666217060275,-0.0776830489598026
5.4688,0.0406908064031853,-0.0783412183799518
5.4704,0.039902567154852,-0.0789987519511176
5.472,0.0391015825198678,-0.0796549282816848
5.4736,0.038287586744964,-0.0803090002662747
5.4752,0.037460371645671,-0.0809601994794596
5.4768,0.0366197881382342,-0.081607740704367
5.4784,0.0357657474295273,-0.0822508265718273
5.48,0.0348982218239722,-0.0828886522795329
5.4816,0.0340172451814536,-0.0835204103650224
5.4832,0.0331229129892446,-0.0841452955030545
5.4848,0.0322153820699261,-0.0847625092980265
5.4864,0.0312948699143185,-0.085371265043684
5.488,0.0303616536404041,-0.085970792421156
5.4896,0.0294160686012618,-0.086560342105201
5.4912,0.0284585066289994,-0.087139190253847
5.4928,0.0274894139316923,-0.087706642850924
5.4944,0.0265092886673202,-0.0882620398766919
5.496,0.0255186781827105,-0.0888047592834601
5.4976,0.0245181759659841,-0.0893342207438011
5.4992,0.0235084182991046,-0.0898498891562576
5.5008,0.0224900806516279,-0.0903512778887453
5.5024,0.0214638738273583,-0.0908379517259476
5.504,0.0204305398888083,-0.0913095295167041
5.5056,0.0193908478830584,-0.0917656864993962
5.5072,0.0183455893949219,-0.0922061562863248
5.5088,0.0172955739535154,-0.0926307325040827
5.5104,0.0162416243205214,-0.0930392700649213
5.512,0.0151845716861122,-0.0934316860751148
5.5136,0.0141252508045313,-0.0938079603653155
5.5152,0.0130644950957761,-0.0941681356419073
5.5168,0.0120031317453379,-0.0945123172523513
5.5184,0.0109419768292986,-0.0948406725735308
5.52,0.0098818304968303,-0.0951534300190879
5.5216,0.00882347223759081,-0.0954508776727581
5.5232,0.00776765626443183,-0.095733361551699
5.5248,0.00671510703770084,-0.0960012835198172
5.5264,0.00566651496365573,-0.0962550988470886
5.528,0.00462253228357876,-0.0964953134428775
5.5296,0.00358376919279899,-0.0967224807688489
5.5312,0.00255079020511185,-0.0969371984570812
5.5328,0.0015241107798113,-0.0971401046460717
5.5344,0.000504194254718152,-0.0973318740617426
5.536,-0.000508550924778071,-0.0975132138631398
5.5376,-0.00151377364068378,-0.0976848592782329
5.5392,-0.00251118218735338,-0.0978475690565102
5.5408,-0.00350054601044116,-0.0980021207640713
5.5424,-0.00448169706484538,-0.0981493059504488
5.544,-0.00545453079565299,-0.098289925216238
5.5456,-0.00641900673407735,-0.0984247832102021
5.5472,-0.00737514869739024,-0.0985546835875362
5.5488,-0.00832304459585124,-0.0986804239588092
5.5504,-0.00926284584463448,-0.0988027908617133
5.552,-0.010194766383749,-0.0989225547848431
5.5536,-0.0111190813039528,-0.0990404652752715
5.5552,-0.0120361250956685,-0.0991572461604291
5.5568,-0.0129462895318911,-0.0992735909128775
5.5584,-0.0138500211720915,-0.0993901581863855
5.56,-0.0147478185421141,-0.0995075675563015
5.5616,-0.0156402289631774,-0.0996263954824285
5.5632,-0.016527845083063,-0.0997471715282964
5.5648,-0.0174113011060048,-0.0998703748524346
5.5664,-0.0182912687552704,-0.099996431012645
5.568,-0.0191684529884451,-0.100125709069275
5.5696,-0.0200435874911062,-0.100258519052489
5.5712,-0.0209174299758955,-0.100395109764545
5.5728,-0.021790757314786,-0.100535666973066
5.5744,-0.0226643605337425,-0.100680311970313
5.576,-0.0235390397014281,-0.100829100541465
5.5776,-0.0244155987402652,-0.100982022332892
5.5792,-0.0252948401944861,-0.101139000620433
5.5808,-0.0261775599849398,-0.101299892499678
5.5824,-0.0270645421843468,-0.101464489485244
5.584,-0.0279565538449436,-0.101632518519058
5.5856,-0.0288543399099243,-0.101803643381642
5.5872,-0.0297586182421812,-0.101977466515401
5.5888,-0.0306700748012384,-0.102153531218904
5.5904,-0.0315893589921866,-0.102331324233178
5.592,-0.0325170792365099,-0.102510278690003
5.5936,-0.0334537987591171,-0.102689777395699
5.5952,-0.0344000316561656,-0.102869156460131
5.5968,-0.035356239243883,-0.103047709219303
5.5984,-0.0363228267153876,-0.103224690448764
5.6,-0.0373001401465081,-0.103399320835615
5.6016,-0.0382894313595992,-0.103570966801414
5.6032,-0.0392899773693539,-0.103738467687291
5.6048,-0.0403019145316185,-0.103900968422935
5.6064,-0.0413253115632032,-0.104057601661109
5.608,-0.0423601686556916,-0.104207493140127
5.6096,-0.0434064170182449,-0.104349767108781
5.6112,-0.0444639188454144,-0.104483551780516
5.6128,-0.0455324677179445,-0.104607984783753
5.6144,-0.046611789432578,-0.104722218572971
5.616,-0.0477015432598565,-0.104825425767953
5.6176,-0.0488013236159305,-0.104916804387134
5.6192,-0.0499106621583582,-0.104995582942453
5.6208,-0.0510290302659085,-0.105061025361507
5.6224,-0.0521558419173631,-0.105112435710516
5.624,-0.0532904569373213,-0.105149162678388
5.6256,-0.0544321845846011,-0.105170603806689
5.6272,-0.0555802874863433,-0.105176209422019
5.6288,-0.056733985863813,-0.105165486262395
5.6304,-0.0578924620489084,-0.105138000754637
5.632,-0.0590548652524623,-0.105093381935758
5.6336,-0.0602203165588524,-0.105031323996362
5.6352,-0.0613879141158043,-0.10495158841905
5.6368,-0.0625567384885665,-0.104854005707822
5.6384,-0.0637258581445184,-0.104738476689493
5.64,-0.064894335035185,-0.104604973379116
5.6416,-0.0660612302410495,-0.104453539401403
5.6432,-0.0672256096427747,-0.104284289966156
5.6448,-0.068386549585161,-0.104097411391708
5.6464,-0.0695431424964699,-0.103893160179359
5.648,-0.0706945024292473,-0.103671861643833
5.6496,-0.0718397704846578,-0.103433908105725
5.6512,-0.0729781200919137,-0.103179756652968
5.6528,-0.0741087620951099,-0.102909926490297
5.6544,-0.0752309496382665,-0.102624995877723
5.656,-0.0763439827875723,-0.102325598698012
5.6576,-0.0774472128852338,-0.102012420643473
5.6592,-0.0785400465943234,-0.101686195078046
5.6608,-0.0796219496046432,-0.101347698567504
5.6624,-0.0806924499875851,-0.100997746127457
5.664,-0.0817511411659988,-0.100637186206061
5.6656,-0.0827976844760619,-0.100266895437238
5.6672,-0.0838318113201653,-0.0998877731929981
5.6688,-0.084853324875794,-0.0995007359720288
5.6704,-0.0858621013544204,-0.0991067116556337
5.672,-0.0868580908113981,-0.098706633670474
5.6736,-0.087841317477872,-0.0983014350916173
5.6752,-0.0888118796296862,-0.0978920427254935
5.6768,-0.0897699489823044,-0.0974793712083962
5.6784,-0.0907157696197331,-0.0970643171588512
5.68,-0.0916496564464593,-0.0966477534220896
5.6816,-0.0925719931983907,-0.0962305234420293
5.6832,-0.0934832299908052,-0.0958134357988609
5.6848,-0.0943838804443096,-0.0953972589449408
5.6864,-0.0952745183818084,-0.0949827161798891
5.688,-0.0961557741414791,-0.0945704808869951
5.6896,-0.097028330499159,-0.0941611720768272
5.6912,-0.0978929182435377,-0.0937553502558504
5.6928,-0.0987503114285667,-0.0933535136490472
5.6944,-0.0996013223232709,-0.0929560948165468
5.696,-0.100446796097577,-0.0925634576662575
5.6976,-0.101287605273947,-0.0921758949005075
5.6992,-0.102124643979456,-0.0917936259036878
5.7008,-0.102958822034595,-0.0914167950999025
5.7024,-0.103791058914884,-0.0910454707776252
5.704,-0.104622277624556,-0.0906796443993574
5.7056,-0.105453398520505,-0.0903192304102948
5.7072,-0.106285333125404,-0.0899640665309973
