"Freq [GHz]","re(S(Antenna1_1_1,Antenna1_1_1)) []","im(S(Antenna1_1_1,Antenna1_1_1)) []"
5,0.0481881452601618,0.178375714983899
5.0016,0.0489967127881198,0.17750066180749
5.0032,0.0497848907341228,0.176624599804265
5.0048,0.0505530011913516,0.175748803268146
5.0064,0.0513014651884292,0.174874516579806
5.008,0.0520308001756365,0.174002946357619
5.0096,0.0527416168991258,0.17313525380952
5.0112,0.0534346156551369,0.172272547334972
5.0128,0.0541105819592083,0.171415875441739
5.0144,0.0547703816513916,0.170566219996669
5.016,0.0554149554584617,0.169724489885483
5.0176,0.0560453130591303,0.168891515102568
5.0192,0.056662526667256,0.168068041322782
5.0208,0.0572677241918568,0.167254724993263
5.0224,0.0578620820046198,0.166452128972243
5.024,0.0584468173556147,0.16566071875287
5.0256,0.0590231804957033,0.164880859303039
5.0272,0.059592446544853,0.164112812536218
5.0288,0.0601559071632477,0.163356735436296
5.0304,0.0607148620752015,0.162612678864422
5.032,0.0612706105016713,0.161880587036858
5.0336,0.0618244425562714,0.161160297706829
5.0352,0.0623776306604865,0.160451543033393
5.0368,0.0629314210351894,0.159753951142295
5.0384,0.0634870253213542,0.159067048381843
5.04,0.0640456123929766,0.158390262244781
5.0416,0.0646083004102889,0.157722924958164
5.0432,0.0651761491618815,0.157064277712244
5.0448,0.0657501527699206,0.156413475506351
5.0464,0.0663312327763715,0.155769592580789
5.048,0.066920231692219,0.155131628411723
5.0496,0.0675179070186924,0.154498514218078
5.0512,0.0681249258214887,0.153869119951837
5.0528,0.068741859862,0.153242261727445
5.0544,0.0693691813445384,0.152616709633814
5.056,0.0700072592995664,0.151991195890828
5.0576,0.0706563566349258,0.151364423291655
5.0592,0.0713166278750677,0.150735073877571
5.0608,0.0719881176102864,0.150101817790018
5.0624,0.0726707596729507,0.149463322239429
5.064,0.0733643770357408,0.148818260534837
5.0656,0.0740686824558825,0.148165321110952
5.0672,0.0747832798513859,0.147503216494765
5.0688,0.0755076664082826,0.146830692153277
5.0704,0.0762412354078669,0.146146535151014
5.072,0.0769832797619355,0.145449582582058
5.0736,0.0777329962260305,0.144738729688968
5.0752,0.0784894902816825,0.144012937637705
5.0768,0.0792517816396551,0.143271240881559
5.0784,0.0800188103471903,0.142512754064073
5.08,0.0807894434472557,0.141736678417971
5.0816,0.0815624821607913,0.140942307606083
5.0832,0.0823366695287594,0.140129032971267
5.0848,0.0831106984828928,0.139296348149342
5.0864,0.0838832202826462,0.138443853016004
5.088,0.0846528532624471,0.137571256939758
5.0896,0.0854181918354805,0.136678381305833
5.0912,0.0861778156918803,0.135765161301111
5.0928,0.0869302991309042,0.134831646945047
5.0944,0.0876742204638667,0.133878003348584
5.096,0.0884081714249544,0.13290451019808
5.0976,0.0891307665249481,0.131911560475218
5.0992,0.0898406522865789,0.130899658397925
5.1008,0.0905361151381832,0.129868923764285
5.1024,0.0912157774412593,0.128820172742451
5.104,0.0918788112468221,0.127754764204557
5.1056,0.0925240966506605,0.126673628416622
5.1072,0.0931505896925929,0.125577783757461
5.1088,0.0937573293927222,0.124468330306584
5.1104,0.0943434442596933,0.123346442859099
5.112,0.0949081581909464,0.122213363424609
5.1136,0.0954507957619734,0.121070393253713
5.1152,0.0959707868295716,0.119918884446893
5.1168,0.0964676704440981,0.118760231205206
5.1184,0.0969410980307221,0.117595860776776
5.12,0.0973908358106783,0.116427224162522
5.1216,0.0978167664575174,0.115255786644094
5.1232,0.0982188899663577,0.114083018198347
5.1248,0.098597323727133,0.112910383862522
5.1264,0.0989523018088419,0.111739334118262
5.128,0.0992841734477938,0.110571295357432
5.1296,0.099593400751855,0.109407660497085
5.1312,0.0998805556426913,0.108249779809721
5.1328,0.100146316043012,0.107098952024044
5.1344,0.100391461337807,0.105956415772321
5.136,0.10061686714959,0.104823341428422
5.1376,0.10082349944663,0.103700823400678
5.1392,0.101012408031187,0.102589872934714
5.1408,0.101184719455748,0.10149141147129
5.1424,0.101341629405249,0.100406264609137
5.144,0.101484394604609,0.0993351567127856
5.1456,0.101614324303551,0.0982787062083928
5.1472,0.101732771397424,0.0972374215895636
5.1488,0.101841123242922,0.096211698179168
5.1504,0.101940792233999,0.0952018156441571
5.152,0.102033206200586,0.0942079363173696
5.1536,0.102119798696694,0.0932301042963391
5.1552,0.102201999244823,0.0922682453660943
5.1568,0.102281223602965,0.0913221677159543
5.1584,0.102358864121804,0.0903915634673234
5.16,0.102436280258606,0.0894760109874759
5.1616,0.102514789310917,0.0885749779823424
5.1632,0.102595657438945,0.0876878253522863
5.1648,0.102680091034445,0.0868138117648815
5.1664,0.102769228491699,0.0859520989376789
5.168,0.102864132450686,0.085101757579977
5.1696,0.102965782552257,0.0842617739545783
5.1712,0.103075068759298,0.0834310570195513
5.1728,0.103192785295889,0.0826084460969794
5.1744,0.103319625235462,0.0817927190131124
5.176,0.103456175787948,0.0809826006673076
5.1776,0.103602914306925,0.0801767719497728
5.1792,0.103760205046759,0.0793738789653981
5.1808,0.103928296701733,0.0785725424901906
5.1824,0.104107320725182,0.0777713675978077
5.184,0.104297290463614,0.0769689533905329
5.1856,0.104498101083824,0.0761639027663916
5.1872,0.104709530322013,0.0753548321558674
5.1888,0.104931240023885,0.0745403811612596
5.1904,0.105162778483753,0.0737192220331822
5.192,0.105403583552629,0.0728900689152625
5.1936,0.10565298650331,0.0720516868020422
5.1952,0.105910216615459,0.0712029001384678
5.1968,0.10617440646068,0.0703426010092842
5.1984,0.106444597835582,0.0694697568587166
5.2,0.106719748319839,0.0685834176931574
5.2016,0.106999246924245,0.0676815805928397
5.2032,0.107281209363758,0.0667645484405163
5.2048,0.107564377401538,0.0658316791431292
5.2064,0.10784744247818,0.0648824365854754
5.208,0.108129054637734,0.0639163943228743
5.2096,0.108407831726427,0.0629332385138248
5.2112,0.108682368789065,0.0619327700886666
5.2128,0.108951247600598,0.0609149061262291
5.2144,0.109213046268512,0.0598796804414872
5.216,0.109466348839012,0.0588272433792047
5.2176,0.109709754841501,0.0577578608175826
5.2192,0.109941888706247,0.0566719123868966
5.2208,0.110161408990784,0.0555698889231399
5.2224,0.110367017353966,0.0544523891746557
5.224,0.110557467212806,0.0533201157817732
5.2256,0.110731572033114,0.0521738705654356
5.2272,0.110888213183625,0.0510145491548306
5.2288,0.111026347317911,0.0498431349990136
5.2304,0.111145013222296,0.0486606927905337
5.232,0.111243338092752,0.047468361371052
5.2336,0.111320543193791,0.0462673461409637
5.2352,0.111375948867349,0.0450589110560115
5.2368,0.111408978857653,0.0438443702412048
5.2384,0.111419163928092,0.0426250792957284
5.24,0.111406144738064,0.0414024263447583
5.2416,0.111369673979828,0.0401778228985688
5.2432,0.111309617748333,0.0389526945845228
5.2448,0.111225956139049,0.0377284718128773
5.2464,0.111118783086779,0.0365065804417914
5.248,0.11098830543047,0.0352884325041286
5.2496,0.110834841225006,0.0340754170595641
5.2512,0.110658817314,0.032868891231803
5.2528,0.110460766174568,0.0316701714927869
5.2544,0.110241322073097,0.030480525252394
5.256,0.110001216543004,0.0293011628043377
5.2576,0.109741273230486,0.0281332296911714
5.2592,0.109462402148251,0.026977799523885
5.2608,0.109165593359255,0.025835867323508
5.2624,0.108851910166412,0.0247083433977075
5.264,0.108522481821306,0.0235960478243908
5.2656,0.108178495834886,0.022499705553303
5.2672,0.107821189919957,0.0214199421636312
5.2688,0.107451843639753,0.0203572803066029
5.2704,0.107071769804407,0.0193121368430909
5.272,0.106682305685604,0.0182848207122135
5.2736,0.106284804104833,0.0172755315119405
5.2752,0.105880624454747,0.0162843588336961
5.2768,0.105471123717841,0.0153112823149673
5.2784,0.105057647538771,0.014356172441908
5.28,0.104641521412352,0.0134187920579507
5.2816,0.104224042045207,0.0124987985954145
5.2832,0.103806468946823,0.0115957469911197
5.2848,0.10339001630752,0.0107090932729984
5.2864,0.102975845213316,0.00983819878571371
5.288,0.102565056246784,0.00898233502527491
5.2896,0.102158682533089,0.00814068905066063
5.2912,0.101757683250524,0.00731236942643792
5.2928,0.101362937677031,0.0064964126603916
5.2944,0.100975239782711,0.00569179008314798
5.296,0.10059529341633,0.00489741513780963
5.2976,0.100223708113804,0.00411215100178508
5.2992,0.0998609955466829,0.00333481852012946
5.3008,0.0995081094826218,0.00256420835978079
5.3024,0.0991653508148387,0.0017989518892062
5.304,0.0988323606965655,0.0010377475523476
5.3056,0.0985092171204876,0.0002793344854409
5.3072,0.0981958932561738,-0.000477546257276648
5.3088,0.0978922582274946,-0.00123414324631202
5.3104,0.0975980785650328,-0.00199168633465102
5.312,0.0973130203224816,-0.0027513784858445
5.3136,0.0970366518380349,-0.00351438782320536
5.3152,0.0967684471217653,-0.00428183995223608
5.3168,0.0965077898349944,-0.00505481060394669
5.3184,0.0962539778446516,-0.00583431864347232
5.32,0.0960062283036244,-0.00662131949258247
5.3216,0.0957636832320971,-0.00741669899798907
5.3232,0.0955254155518827,-0.00822126778864387
5.3248,0.0952904355467413,-0.00903575615503847
5.3264,0.095057697679693,-0.00986080947849046
5.328,0.0948261077413174,-0.0106969842314317
5.3296,0.0945945302753476,-0.0115447445836839
5.3312,0.0943617962233505,-0.012404459622737
5.3328,0.094126710748502,-0.0132764012000117
5.3344,0.0938880611813495,-0.0141607424201257
5.336,0.0936446250355178,-0.015057556780146
5.3376,0.0933951780432041,-0.0159668179438411
5.3392,0.0931385021568155,-0.0168884001679221
5.3408,0.0928733934672956,-0.0178220793652819
5.3424,0.0925986699874949,-0.018767534788223
5.344,0.0923131792522299,-0.0197243513266837
5.3456,0.0920158056886854,-0.0206920223934524
5.3472,0.0917054777083068,-0.0216699533843812
5.3488,0.0913811744843857,-0.0226574656765848
5.3504,0.0910419323608345,-0.0236538011426414
5.352,0.0906868508685557,-0.0246581271507775
5.3536,0.090315098306601,-0.0256695420030517
5.3552,0.0899259168563226,-0.0266870807915293
5.3568,0.0895186271925173,-0.0277097216224481
5.3584,0.0890926325855617,-0.028736392163379
5.36,0.0886474224445412,-0.0297659764813756
5.3616,0.0881825753093687,-0.0307973221172216
5.3632,0.0876977612548991,-0.0318292473521631
5.3648,0.0871927437120333,-0.0328605486233403
5.3664,0.0866673806868169,-0.033890008036505
5.368,0.0861216253805307,-0.0349164009300948
5.3696,0.0855555262047747,-0.0359385034429357
5.3712,0.0849692262075442,-0.0369551000370395
5.3728,0.084362961898301,-0.0379649909308887
5.3744,0.0837370615010344,-0.0389669993950189
5.376,0.0830919426423202,-0.0399599788669264
5.3776,0.0824281094843687,-0.0409428198416328
5.3792,0.0817461493490697,-0.0419144564975363
5.3808,0.0810467288210292,-0.0428738730138584
5.3824,0.0803305893906011,-0.0438201095488788
5.384,0.0795985426479125,-0.0447522678426636
5.3856,0.0788514650618835,-0.0456695164010827
5.3872,0.0780902923862399,-0.0465710952518214
5.3888,0.0773160137215233,-0.0474563202243785
5.3904,0.0765296652768916,-0.0483245867490607
5.392,0.0757323238694191,-0.0491753731359621
5.3936,0.0749251001999855,-0.0500082433379415
5.3952,0.0741091319535667,-0.0508228491605831
5.3968,0.0732855767633138,-0.0516189319271551
5.3984,0.0724556050826835,-0.0523963235805522
5.4,0.0716203930107182,-0.0531549472262362
5.4016,0.0707816289844171,-0.0538937091151602
5.4032,0.0699401312448978,-0.0546139127916897
5.4048,0.0690970381224086,-0.0553157709325083
5.4064,0.0682534634992321,-0.0559995825935199
5.408,0.0674104901916774,-0.0566657308367384
5.4096,0.0665691635524291,-0.0573146798561675
5.4112,0.0657304853310914,-0.0579469716186718
5.4128,0.0648954078316278,-0.0585632220518406
5.4144,0.0640648283886997,-0.0591641167948386
5.416,0.0632395842141996,-0.0597504065462503
5.4176,0.0624204476251845,-0.0603229020309114
5.4192,0.0616081216818012,-0.0608824686277355
5.4208,0.0608032362792129,-0.0614300206885279
5.4224,0.0600063446835219,-0.0619665155747906
5.424,0.0592179205576917,-0.0624929474645163
5.4256,0.0584383554764605,-0.0630103409540794
5.4272,0.0576679569522605,-0.0635197445013087
5.4288,0.0569069469791299,-0.0640222237467566
5.4304,0.056155461092626,-0.0645188547545365
5.432,0.0554135479707312,-0.0650107172121731
5.4336,0.0546811695517659,-0.0654988876317402
5.4352,0.05395820168329,-0.0659844325908925
5.4368,0.0532444352870138,-0.0664684020553835
5.4384,0.0525395780406962,-0.0669518228221004
5.44,0.0518432565570511,-0.0674356921201644
5.4416,0.0511550190426469,-0.067920971409925
5.4432,0.0504743384338103,-0.0684085804122419
5.4448,0.0498006159795239,-0.0688993914087621
5.4464,0.049133185239326,-0.0693942238416851
5.448,0.048471316499211,-0.0698938392445192
5.4496,0.0478142215465293,-0.070398936532728
5.4512,0.0471610588008831,-0.0709101476903721
5.4528,0.0465109387500263,-0.0714280338587378
5.4544,0.0458629296709656,-0.0719530818749562
5.456,0.045216063598856,-0.0724857012506191
5.4576,0.0445693425028017,-0.0730262216373804
5.4592,0.0439217446371565,-0.0735748907705522
5.4608,0.0432722310284249,-0.0741318729146895
5.4624,0.0426197520590565,-0.0746972478181708
5.464,0.0419632541084713,-0.0752710101777671
5.4656,0.0413016862133188,-0.0758530696212013
5.4672,0.0406340067055275,-0.0764432512027026
5.4688,0.0399591897900853,-0.0770412964175518
5.4704,0.039276232022852,-0.0776468647116176
5.472,0.0385841586502678,-0.0782595354978848
5.4736,0.037882029771964,-0.0788788106519747
5.4752,0.037168946292671,-0.0795041174786596
5.4768,0.0364440556222342,-0.080134812131367
5.4784,0.0357065571005273,-0.0807701834626773
5.48,0.0349557070959722,-0.0814094572858129
5.4816,0.0341908237734536,-0.0820518010141224
5.4832,0.0334112914752446,-0.0826963286615544
5.4848,0.0326165647079261,-0.0833421061696265
5.4864,0.0318061717073185,-0.083988157027984
5.488,0.0309797175524041,-0.084633468154456
5.4896,0.0301368868102618,-0.085276996004801
5.4912,0.0292774457159994,-0.085917672870947
5.4928,0.0284012438336923,-0.086554413331724
5.4944,0.0275082152313202,-0.0871861208178419
5.496,0.0265983791347105,-0.0878116942512601
5.4976,0.0256718400564841,-0.0884300347195011
5.4992,0.0247287874170046,-0.0890400521449576
5.5008,0.0237694946383279,-0.0896406719076453
5.5024,0.0227943177261583,-0.0902308413832476
5.504,0.0218036933478083,-0.0908095363557041
5.5056,0.0207981364061584,-0.0913757672633962
5.5072,0.0197782371426219,-0.0919285852483248
5.5088,0.0187446577651154,-0.0924670879580827
5.5104,0.0176981286340314,-0.0929904250779213
5.512,0.0166394440202122,-0.0934978035521148
5.5136,0.0155694574679313,-0.0939884924593155
5.5152,0.0144890767828761,-0.0944618275229073
5.5168,0.0133992586763379,-0.0949172152103513
5.5184,0.0123010030983986,-0.0953541364145308
5.52,0.0111953472976303,-0.0957721496750879
5.5216,0.0100833596341908,-0.0961708939357581
5.5232,0.00896613319113183,-0.096550090807699
5.5248,0.00784477921853084,-0.0969095463228171
5.5264,0.00672042045223573,-0.0972491521790886
5.528,0.00559418434657876,-0.0975688864498775
5.5296,0.00446719626339899,-0.0978688137622489
5.5312,0.00334057265821185,-0.0981490849412812
5.5328,0.0022154143068113,-0.0984099361183717
5.5344,0.00109279961341815,-0.0986516873035426
5.536,-2.62219577780707E-05,-0.0988747404367398
5.5376,-0.00114063628668378,-0.0990795769251329
5.5392,-0.00224947079335338,-0.0992667546764102
5.5408,-0.00335180039944116,-0.0994369046460713
5.5424,-0.00444675319084538,-0.0995907269277168
5.544,-0.00553351577965299,-0.099728986392338
5.5456,-0.00661133830407735,-0.0998525079186021
5.5472,-0.00767953903839024,-0.0999621712251362
5.5488,-0.00873750859885124,-0.100058905360509
5.5504,-0.00978471369963448,-0.100143682853713
5.552,-0.0108207004357489,-0.100217513585943
5.5536,-0.0118450970829528,-0.100281438406972
5.5552,-0.0128576163806685,-0.100336522541029
5.5568,-0.0138580572928911,-0.100383848820528
5.5584,-0.0148463062250915,-0.100424510790286
5.56,-0.0158223376961141,-0.100459605726201
5.5616,-0.0167862144430774,-0.100490227610328
5.5632,-0.017738086984263,-0.100517460108296
5.5648,-0.0186781926070048,-0.100542369592035
5.5664,-0.0196068538135704,-0.100565998254145
5.568,-0.0205244762130451,-0.100589357355275
5.5696,-0.0214315458842062,-0.100613420651489
5.5712,-0.0223286262083955,-0.100639118039545
5.5728,-0.023216354216386,-0.100667329467066
5.5744,-0.0240954364352525,-0.100698879139313
5.576,-0.0249666442942281,-0.100734530073465
5.5776,-0.0258308090915652,-0.100774979020892
5.5792,-0.0266888165724861,-0.100820851805433
5.5808,-0.0275416011350398,-0.100872699096678
5.5824,-0.0283901397086468,-0.100930992659244
5.584,-0.0292354453433436,-0.100996122096058
5.5856,-0.0300785605463243,-0.101068392106642
5.5872,-0.0309205504098812,-0.101148020288401
5.5888,-0.0317624955735685,-0.101235135493904
5.5904,-0.0326054850653866,-0.101329776745178
5.592,-0.0334506090674099,-0.101431892737003
5.5936,-0.0342989516535171,-0.101541341914199
5.5952,-0.0351515835437656,-0.101657893132931
5.5968,-0.036009554924783,-0.101781226905003
5.5984,-0.0368738883813876,-0.101910937217164
5.6,-0.0377455719855081,-0.102046533912415
5.6016,-0.0386263476415992,-0.102188395722314
5.6032,-0.0395164664283539,-0.102334793711291
5.6048,-0.0404167578336185,-0.102484987890964
5.6064,-0.0413279898682032,-0.102638170714459
5.608,-0.0422508637706916,-0.102793472188727
5.6096,-0.0431860091432449,-0.102949965406881
5.6112,-0.0441339795354144,-0.103106672458116
5.6128,-0.0450952485219445,-0.103262570678353
5.6144,-0.046070206290578,-0.103416599205871
5.616,-0.0470591567698565,-0.103567665794453
5.6176,-0.0480623153159305,-0.103714653843534
5.6192,-0.0490798069613582,-0.103856429597743
5.6208,-0.0501116652659085,-0.103991849470007
5.6224,-0.0511578317513631,-0.104119767440616
5.624,-0.0522181559353213,-0.104239042482288
5.6256,-0.0532923959740011,-0.104348545964889
5.6272,-0.0543802198950433,-0.104447168989119
5.6288,-0.055481207419313,-0.104533829601395
5.6304,-0.0565948523677084,-0.104607479843637
5.632,-0.0577205656299623,-0.104667112588758
5.6336,-0.0588576786734524,-0.104711768117362
5.6352,-0.0600054475860043,-0.10474054039805
5.6368,-0.0611630576047065,-0.104752583013822
5.6384,-0.0623296281237184,-0.104747114714493
5.64,-0.063504218127085,-0.104723424546116
5.6416,-0.0646858320310495,-0.104680876521403
5.6432,-0.0658734258840747,-0.104618913809156
5.6448,-0.067065913890661,-0.104537062406708
5.6464,-0.0682621752134699,-0.104434934275359
5.648,-0.0694610610101472,-0.104312229911833
5.6496,-0.0706614016590578,-0.104168740344725
5.6512,-0.0718620141250337,-0.104004348535968
5.6528,-0.0730617094176099,-0.103819030185297
5.6544,-0.0742593000916665,-0.103612853922723
5.656,-0.0754536077419723,-0.103385980895012
5.6576,-0.0766434704403338,-0.103138663742173
5.6592,-0.0778277500681234,-0.102871244978946
5.6608,-0.0790053394936432,-0.102584154779304
5.6624,-0.0801751695475851,-0.102277908188957
5.664,-0.0813362157519988,-0.101953101782861
5.6656,-0.0824875047530619,-0.101610409782738
5.6672,-0.0836281204191653,-0.101250579665598
5.6688,-0.084757209566794,-0.100874427295269
5.6704,-0.0858739872664204,-0.100482831596934
5.672,-0.0869777417013981,-0.100076728829674
5.6736,-0.088067838546872,-0.0996571064725173
5.6752,-0.0891437248346862,-0.0992249967805935
5.6768,-0.0902049322833045,-0.0987814700506962
5.6784,-0.0912510800717331,-0.0983276276358512
5.68,-0.0922818770284593,-0.0978645947602896
5.6816,-0.0932971232443907,-0.0973935131810293
5.6832,-0.0942967110668052,-0.0969155337449609
5.6848,-0.0952806254973096,-0.0964318088903408
5.6864,-0.0962489439758084,-0.0959434851429891
5.688,-0.0972018355544791,-0.0954516956573951
5.6896,-0.098139559469759,-0.0949575528506272
5.6912,-0.0990624631253377,-0.0944621411798504
5.6928,-0.0999709794871667,-0.0939665101100472
5.6944,-0.100865623927471,-0.0934716673175468
5.696,-0.101746990520777,-0.0929785721792575
5.6976,-0.102615747829946,-0.0924881295815075
5.6992,-0.103472634199226,-0.0920011840966878
5.7008,-0.104318452605305,-0.0915185145649025
5.7024,-0.105154065069384,-0.0910408291166252
5.704,-0.105980386704756,-0.0905687606603574
5.7056,-0.106798379411305,-0.0901028628752948
5.7072,-0.107609045270904,-0.0896436067349973
