"Freq [GHz]","re(S(Antenna1_1_1,Antenna1_1_1)) []","im(S(Antenna1_1_1,Antenna1_1_1)) []"
5,0.0446472467521618,0.180081837765599
5.0016,0.0456097583589198,0.17948732414659
5.0032,0.0465740138736228,0.178878098172465
5.0048,0.0475391294205516,0.178253695287146
5.0064,0.0485041840331292,0.177613726106806
5.008,0.0494682262235365,0.176957879166619
5.0096,0.0504302807497258,0.17628592308752
5.0112,0.0513893555281369,0.175597708159972
5.0128,0.0523444486408983,0.174893167328739
5.0144,0.0532945553876916,0.174172316577669
5.016,0.0542386753289617,0.173435254708483
5.0176,0.0551758192703303,0.172682162531568
5.0192,0.056105016137856,0.171913301459782
5.0208,0.0570253196930568,0.171129011526263
5.0224,0.0579358150423198,0.170329708854243
5.024,0.0588356248910147,0.16951588257187
5.0256,0.0597239155006032,0.168688091228039
5.0272,0.060599902305753,0.167846958719218
5.0288,0.0614628551535477,0.166993169758296
5.0304,0.0623121031237015,0.166127464932422
5.032,0.0631470389038713,0.165250635380258
5.0336,0.0639671226877714,0.164363517125229
5.0352,0.0647718855633865,0.163466985115793
5.0368,0.0655609323821894,0.162561947012895
5.0384,0.0663339440793542,0.161649336771943
5.04,0.0670906794379766,0.160730108066281
5.0416,0.0678309762812889,0.159805227601664
5.0432,0.0685547520958815,0.158875668370014
5.0448,0.0692620040729206,0.157942402891651
5.0464,0.0699528085813715,0.157006396496189
5.048,0.070627320073219,0.156068600688523
5.0496,0.0712857694316924,0.155129946649978
5.0512,0.0719284617774887,0.154191338919137
5.0528,0.072555773762,0.153253649297345
5.0544,0.0731681503485384,0.152317711023414
5.056,0.0737661011285664,0.151384313256228
5.0576,0.0743501961939258,0.150454195904255
5.0592,0.0749210615920677,0.149528044839761
5.0608,0.0754793744091864,0.148606487521318
5.0624,0.0760258575114507,0.147690089072529
5.064,0.0765612739909408,0.146779348817937
5.0656,0.0770864213504825,0.145874697319952
5.0672,0.0776021254776859,0.144976493926765
5.0688,0.0781092344484826,0.144085024837277
5.0704,0.0786086122087669,0.143200501716014
5.072,0.0791011321787355,0.142323060840058
5.0736,0.0795876708272605,0.141452762801968
5.0752,0.0800691012628825,0.140589592748705
5.0768,0.0805462868874551,0.139733461168559
5.0784,0.0810200751579903,0.138884205207073
5.08,0.0814912915002557,0.138041590499971
5.0816,0.0819607334188913,0.137205313509082
5.0832,0.0824291648427594,0.136375004343267
5.0848,0.0828973107474928,0.135550230032342
5.0864,0.0833658520897462,0.134730498244004
5.088,0.0838354210894471,0.133915261388758
5.0896,0.0843065968909485,0.133103921109133
5.0912,0.0847799016329803,0.132295833098111
5.0928,0.0852557969493042,0.131490312218247
5.0944,0.0857346809276667,0.130686637881384
5.096,0.0862168855460544,0.12988405964848
5.0976,0.0867026745899481,0.129081803007418
5.0992,0.0871922420835789,0.128279075286625
5.1008,0.0876860966671832,0.127475038773485
5.1024,0.0881842747782593,0.126668788611011
5.104,0.0886863535668221,0.125859518532807
5.1056,0.0891922277556605,0.125046428728122
5.1072,0.0897017227905929,0.124228732873661
5.1088,0.0902145964697222,0.123405663863984
5.1104,0.0907305410356933,0.122576479362199
5.112,0.0912491857279464,0.121740467133309
5.1136,0.0917700997559734,0.120896950123613
5.1152,0.0922927956795716,0.120045291251993
5.1168,0.0928167331720981,0.119184897881406
5.1184,0.0933413231208221,0.118315225940676
5.12,0.0938659320510783,0.117435783670672
5.1216,0.0943898868272174,0.116546134971194
5.1232,0.0949124795997577,0.115645902326747
5.1248,0.095432972960933,0.114734769298922
5.1264,0.0959506052690419,0.113812482557762
5.128,0.0964645961034938,0.112878853465632
5.1296,0.096974151810055,0.111933759177085
5.1312,0.0974784710957913,0.110977143274721
5.1328,0.0979767506347818,0.110009015927044
5.1344,0.0984681906429071,0.109029453577321
5.136,0.09895200038369,0.108038598167422
5.1376,0.0994274035665295,0.107036655906678
5.1392,0.0998936435991872,0.106023895598714
5.1408,0.100349988659948,0.10500064654029
5.1424,0.100795736553449,0.103967296014137
5.144,0.101230219319609,0.102924286393786
5.1456,0.101652807562651,0.101872111889393
5.1472,0.102062914475824,0.100811314953764
5.1488,0.102459999531722,0.099742482379368
5.1504,0.102843571818799,0.0986662411234571
5.152,0.103213193003286,0.0975832538837696
5.1536,0.103568479894694,0.0964942144638391
5.1552,0.103909106605523,0.0953998429603943
5.1568,0.104234806298665,0.0943008808106543
5.1584,0.104545372493604,0.0931980857328234
5.16,0.104840659952606,0.0920922265992759
5.1616,0.105120585127917,0.0909840782767424
5.1632,0.105385126175945,0.0898744164724364
5.1648,0.105634322537445,0.0887640126197414
5.1664,0.105868274106699,0.0876536288415789
5.168,0.106087139973686,0.086544013024477
5.1696,0.106291136778257,0.0854358940365783
5.1712,0.106480536674298,0.0843299771240513
5.1728,0.106655664931889,0.0832269395126794
5.1744,0.106816897187462,0.0821274262474124
5.176,0.106964656380748,0.0810320462933076
5.1776,0.107099409380925,0.0799413689247728
5.1792,0.107221663353859,0.0788559204243981
5.1808,0.107331961877733,0.0777761811109906
5.1824,0.107430880847082,0.0767025827155977
5.184,0.107519024194514,0.0756355061200329
5.1856,0.107597019459824,0.0745752794650916
5.1872,0.107665513241013,0.0735221766501673
5.1888,0.107725166559085,0.0724764162109596
5.1904,0.107776650169853,0.0714381606051822
5.192,0.107820639855929,0.0704075158772625
5.1936,0.10785781173232,0.0693845317270422
5.1952,0.107888837597719,0.0683692019614679
5.1968,0.10791438036268,0.0673614653252842
5.1984,0.107935089586682,0.0663612067067166
5.2,0.107951597152939,0.0653682586971574
5.2016,0.107964873565945,0.0643828391918397
5.2032,0.107975207039858,0.0634041821535163
5.2048,0.107983143752938,0.0624319690099293
5.2064,0.10798919617768,0.0614658393915754
5.208,0.107993839947034,0.0605053942724743
5.2096,0.107997511008827,0.0595501993469248
5.2112,0.108000603082765,0.0585997886061666
5.2128,0.108003465435438,0.0576536680921291
5.2144,0.108006400983112,0.0567113197988872
5.216,0.108009664733412,0.0557722056942047
5.2176,0.108013462568201,0.0548357718313826
5.2192,0.108017950379447,0.0539014525228966
5.2208,0.108023233550784,0.0529686745466399
5.2224,0.108029366793966,0.0520368613545557
5.224,0.108036354318806,0.0511054372571932
5.2256,0.108044150364114,0.0501738315531256
5.2272,0.108052660038625,0.0492414825786306
5.2288,0.108061740504911,0.0483078416492136
5.2304,0.108071202461296,0.0473723768683337
5.232,0.108080811922752,0.046434576779352
5.2336,0.108090292290691,0.0454939538372637
5.2352,0.108099326675149,0.0445500476802115
5.2368,0.108107560470553,0.0436024281798048
5.2384,0.108114604151292,0.0426506982534284
5.24,0.108120036270264,0.0416944964222583
5.2416,0.108123406637828,0.0407334991018688
5.2432,0.108124239656633,0.0397674226113428
5.2448,0.108122037787549,0.0387960248939773
5.2464,0.108116285122879,0.0378191069391914
5.248,0.10810645104017,0.0368365139017286
5.2496,0.108091993913206,0.0358481359133641
5.2512,0.1080723648518,0.034853908586803
5.2528,0.108047011447968,0.0338538132117869
5.2544,0.108015381501277,0.032847876646394
5.256,0.107976926700144,0.0318361709063377
5.2576,0.107931106234686,0.0308188124661714
5.2592,0.107877390318251,0.029795961269885
5.2608,0.107815263595355,0.028767819466308
5.2624,0.107744228415212,0.0277346298903075
5.264,0.107663807951106,0.0266966742848908
5.2656,0.107573549146686,0.025654271296103
5.2672,0.107473025472557,0.0246077742467312
5.2688,0.107361839477653,0.0235575687125029
5.2704,0.107239625121207,0.0225040699148909
5.272,0.107106049872604,0.0214477199532135
5.2736,0.106960816569633,0.0203889848948405
5.2752,0.106803665025517,0.0193283517446961
5.2768,0.106634373377741,0.0182663253154673
5.2784,0.106452759173671,0.017203425020508
5.28,0.106258680189152,0.0161401816109507
5.2816,0.106052034979007,0.0150771338795145
5.2832,0.105832763159723,0.0140148253515197
5.2848,0.10560084542432,0.0129538009866584
5.2864,0.105356303296116,0.0118946039106837
5.288,0.105099198624184,0.0108377721989649
5.2896,0.104829632827589,0.00978383573116063
5.2912,0.104547745898324,0.00873331313673792
5.2928,0.104253715170731,0.0076867088485916
5.2944,0.103947753870011,0.00664451028374798
5.296,0.10363010945093,0.00560718516560963
5.2976,0.103301061741604,0.00457517900408508
5.2992,0.102960920905283,0.00354891274652946
5.3008,0.102609937469522,0.00252894037578079
5.3024,0.102248514607739,0.0015156439395062
5.304,0.101877142048566,0.000509198988547603
5.3056,0.101496229139588,-0.000490097837629099
5.3072,0.101106202553974,-0.00148198330387665
5.3088,0.100707503518095,-0.00246622862361202
5.3104,0.100300584984033,-0.00344264027495102
5.312,0.0998859087665816,-0.0044110605885445
5.3136,0.0994639426623349,-0.00537136810550536
5.3152,0.0990351575696653,-0.00632347770633608
5.3168,0.0986000246255444,-0.00726734051544669
5.3184,0.0981590123792716,-0.00820294358167232
5.32,0.0977125840177044,-0.00913030934338247
5.3216,0.0972611946593971,-0.0100494948822891
5.3232,0.0968052887328827,-0.0109605909747439
5.3248,0.0963452974541413,-0.0118637209481385
5.3264,0.095881636416493,-0.0127590393532905
5.328,0.0954147033071174,-0.0136467304630317
5.3296,0.0949448757615476,-0.0145270066077839
5.3312,0.0944725093665505,-0.015400106361937
5.3328,0.093997935822802,-0.0162662925933117
5.3344,0.0935214612751495,-0.0171258503884257
5.336,0.0930433648185678,-0.017979084869746
5.3376,0.0925638971855041,-0.0188263189177411
5.3392,0.0920832796220155,-0.0196678908137221
5.3408,0.0916017029534956,-0.0205041518177819
5.3424,0.091119326846695,-0.021335463697923
5.344,0.0906362792670299,-0.0221621962247837
5.3456,0.0901526561324854,-0.0229847246484524
5.3472,0.0896685211643068,-0.0238034271704812
5.3488,0.0891839059317857,-0.0246186824291548
5.3504,0.0886988100886344,-0.0254308670086414
5.352,0.0882132017977557,-0.0262403529899875
5.3536,0.087727018337601,-0.0270475055552518
5.3552,0.0872401668869226,-0.0278526806592293
5.3568,0.0867525254788173,-0.0286562227806481
5.3584,0.0862639441178617,-0.029458462765979
5.36,0.0857742460502412,-0.0302597157755756
5.3616,0.0852832291805687,-0.0310602793444216
5.3632,0.0847906676213991,-0.0318604315657631
5.3648,0.0842963133694333,-0.0326604294076403
5.3664,0.0837998980933169,-0.033460507169505
5.368,0.0833011350240307,-0.0342608750870348
5.3696,0.0827997209356747,-0.0350617180901357
5.3712,0.0822953382031442,-0.0358631947208395
5.3728,0.081787656925301,-0.0366654362142887
5.3744,0.0812763371010344,-0.0374685457466189
5.376,0.0807610308440202,-0.0382725978520264
5.3776,0.0802413846253687,-0.0390776380115328
5.3792,0.0797170415292997,-0.0398836824115363
5.3808,0.0791876435108092,-0.0406907178746584
5.3824,0.0786528336412211,-0.0414987019593787
5.384,0.0781122583304225,-0.0423075632271636
5.3856,0.0775655695130835,-0.0431172016737827
5.3872,0.0770124267869399,-0.0439274893211214
5.3888,0.0764524994925233,-0.0447382709641785
5.3904,0.0758854687225916,-0.0455493650685607
5.392,0.0753110292510191,-0.0463605648108621
5.3936,0.0747288913712855,-0.0471716392569415
5.3952,0.0741387826359667,-0.0479823346685831
5.3968,0.0735404494868138,-0.0487923759313551
5.3984,0.0729336587690335,-0.0496014680946522
5.4,0.0723181991214582,-0.0504092980152362
5.4016,0.0716935291640171,-0.0512156454166602
5.4032,0.0710598245957978,-0.0520200030046897
5.4048,0.0704169524822086,-0.0528220126804083
5.4064,0.0697648059567321,-0.0536213061462199
5.408,0.0691033048536775,-0.0544175069137384
5.4096,0.0684323961889291,-0.0552102323485675
5.4112,0.0677520544863914,-0.0559990957375918
5.4128,0.0670622819494278,-0.0567837083702606
5.4144,0.0663631084773997,-0.0575636816206486
5.416,0.0656545915280996,-0.0583386290199403
5.4176,0.0649368158267845,-0.0591081683079114
5.4192,0.0642098929263012,-0.0598719234525355
5.4208,0.0634739606182129,-0.0606295266271279
5.4224,0.0627291822015219,-0.0613806201336906
5.424,0.0619757456124917,-0.0621248582643163
5.4256,0.0612138624198605,-0.0628619090879794
5.4272,0.0604437666932605,-0.0635914561561087
5.4288,0.0596657137499299,-0.0643132001163566
5.4304,0.058879978787026,-0.0650268602264565
5.432,0.0580868554081312,-0.0657321757609731
5.4336,0.0572866540510659,-0.0664289073023402
5.4352,0.05647970032619,-0.0671168379112925
5.4368,0.0556663332749138,-0.0677957741685835
5.4384,0.0548469035570962,-0.0684655470840004
5.44,0.0540217715774511,-0.0691260128679644
5.4416,0.0531913055614469,-0.069777053560325
5.4432,0.0523558795919703,-0.0704185775152419
5.4448,0.0515158716149339,-0.0710505197378621
5.4464,0.050671661427866,-0.0716728420715851
5.448,0.049823628660071,-0.0722855332355192
5.4496,0.0489721507564293,-0.072888608711328
5.4512,0.0481176009754831,-0.0734821104799721
5.4528,0.0472603464133263,-0.0740661066107378
5.4544,0.0464007460626656,-0.0746406907031562
5.456,0.045539148919856,-0.0752059811861191
5.4576,0.0446758921486017,-0.0757621204778804
5.4592,0.0438112993106565,-0.0763092740096522
5.4608,0.0429456786750249,-0.0768476291205895
5.4624,0.0420793216123612,-0.0773773938280708
5.464,0.0412125010860713,-0.0778987954805671
5.4656,0.0403454702473188,-0.0784120793008013
5.4672,0.0394784611425275,-0.0789175068256026
5.4688,0.0386116835402853,-0.0794153542529518
5.4704,0.037745323884652,-0.0799059107031176
5.472,0.0368795443819678,-0.0803894764048848
5.4736,0.036014482224764,-0.0808663608161747
5.4752,0.035150248959671,-0.0813368806888396
5.4768,0.0342869300014342,-0.081801358090107
5.4784,0.0334245842977273,-0.0822601183891973
5.48,0.0325632441459722,-0.0827134882225029
5.4816,0.0317029151649536,-0.0831617934475224
5.4832,0.0308435764211446,-0.0836053570973544
5.4848,0.0299851807093261,-0.0840444973478265
5.4864,0.0291276549881185,-0.084479525508284
5.488,0.0282709009662041,-0.084910744047456
5.4896,0.0274147958391618,-0.085338444666701
5.4912,0.0265591931710994,-0.085762906431247
5.4928,0.0257039239180923,-0.086184393970324
5.4944,0.0248487975878202,-0.0866031557569919
5.496,0.0239936035290105,-0.0870194224784601
5.4976,0.0231381123443841,-0.0874334055055011
5.4992,0.0222820774196046,-0.0878452954721577
5.5008,0.0214252365588279,-0.0882552609726453
5.5024,0.0205673137198583,-0.0886634473849476
5.504,0.0197080208375083,-0.0890699758280041
5.5056,0.0188470597261584,-0.0894749422594962
5.5072,0.0179841240497919,-0.0898784167202248
5.5088,0.0171189013494554,-0.0902804427305827
5.5104,0.0162510751159314,-0.0906810368428213
5.512,0.0153803268955922,-0.0910801883536148
5.5136,0.0145063384174313,-0.0914778591788155
5.5152,0.0136287937288761,-0.0918739838918073
5.5168,0.0127473813274379,-0.0922684699279513
5.5184,0.0118617962759986,-0.0926611979519308
5.52,0.0109717422888303,-0.0930520223903879
5.5216,0.0100769337752908,-0.0934407721236581
5.5232,0.00917709782983183,-0.093827251337699
5.5248,0.00827197615480084,-0.0942112405282172
5.5264,0.00736132690535573,-0.0945924976549886
5.528,0.00644492644327876,-0.0949707594379775
5.5296,0.00552257099099899,-0.0953457427902489
5.5312,0.00459407817251185,-0.0957171463786812
5.5328,0.0036592884335113,-0.0960846523042717
5.5344,0.00271806632921815,-0.0964479278928426
5.536,0.00177030167372193,-0.0968066275855398
5.5376,0.000815910540416217,-0.0971603949186329
5.5392,-0.000145163891353378,-0.0975088645811402
5.5408,-0.00111295065124116,-0.0978516645382713
5.5424,-0.00208745045824538,-0.0981884182076668
5.544,-0.00306863537205299,-0.098518746676338
5.5456,-0.00405644861727735,-0.0988422709443021
5.5472,-0.00505080458419024,-0.0991586141816362
5.5488,-0.00605158900595124,-0.0994674039852092
5.5504,-0.00705865931223448,-0.0997682746214133
5.552,-0.00807184516054895,-0.100060869239643
5.5536,-0.00909094913925276,-0.100344842045672
5.5552,-0.0101157476424685,-0.100619860417429
5.5568,-0.0111459919112911,-0.100885606952878
5.5584,-0.0121814092352915,-0.101141781435186
5.56,-0.0132217043092141,-0.101388102703401
5.5616,-0.0142665607361774,-0.101624310414828
5.5632,-0.015315642670163,-0.101850166690196
5.5648,-0.0163685965876048,-0.102065457627435
5.5664,-0.0174250531781704,-0.102269994676445
5.568,-0.0184846293439451,-0.102463615863775
5.5696,-0.0195469302947062,-0.102646186858989
5.5712,-0.0206115517269755,-0.102817601875445
5.5728,-0.021678082074597,-0.102977784398666
5.5744,-0.0227461048154225,-0.103126687735513
5.576,-0.0238152008216281,-0.103264295381765
5.5776,-0.0248849507384652,-0.103390621202592
5.5792,-0.0259549373764861,-0.103505709424433
5.5808,-0.0270247481026398,-0.103609634437478
5.5824,-0.0280939772150468,-0.103702500408244
5.584,-0.0291622282864436,-0.103784440703658
5.5856,-0.0302291164608243,-0.103855617129242
5.5872,-0.0312942706890812,-0.103916218984901
5.5888,-0.0323573358890384,-0.103966461943504
5.5904,-0.0334179750148866,-0.104006586757378
5.592,-0.0344758710236099,-0.104036857801403
5.5936,-0.0355307287244171,-0.104057561459199
5.5952,-0.0365822764990656,-0.104069004363231
5.5968,-0.037630267880883,-0.104071511497903
5.5984,-0.0386744829825876,-0.104065424177964
5.6,-0.0397147297613081,-0.104051097913415
5.6016,-0.0407504184079992,-0.104028831487414
5.6032,-0.0417818327571539,-0.103999138372981
5.6048,-0.0428088781992185,-0.103962403938954
5.6064,-0.0438314913436032,-0.103919017495779
5.608,-0.0448496402757916,-0.103869369794327
5.6096,-0.0458633246148449,-0.103813850506681
5.6112,-0.0468725753685144,-0.103752845704616
5.6128,-0.0478774545875445,-0.103686735352353
5.6144,-0.048878054819078,-0.103615890830071
5.616,-0.0498744983625565,-0.103540672502653
5.6176,-0.0508669363318305,-0.103461427351934
5.6192,-0.0518555475280582,-0.103378486685453
5.6208,-0.0528405371308085,-0.103292163938907
5.6224,-0.0538221352138631,-0.103202752585116
5.624,-0.0548005950951213,-0.103110524164888
5.6256,-0.0557761915305011,-0.103015726452589
5.6272,-0.0567492187624433,-0.102918581767719
5.6288,-0.057719988435013,-0.102819285446295
5.6304,-0.0586888273888084,-0.102718004480437
5.632,-0.0596560753490623,-0.102614876336958
5.6336,-0.0606220825211424,-0.102510007963262
5.6352,-0.0615872071098443,-0.10240347498685
5.6368,-0.0625518127761665,-0.102295321116622
5.6384,-0.0635162660496184,-0.102185557747293
5.64,-0.064480933711385,-0.102074163774416
5.6416,-0.0654461801664495,-0.101961085618903
5.6432,-0.0664123648197747,-0.101846237462856
5.6448,-0.067379839475561,-0.101729501697508
5.6464,-0.0683489457751699,-0.101610729578259
5.648,-0.0693200126913473,-0.101489742086133
5.6496,-0.0702933540947578,-0.101366330990125
5.6512,-0.0712692664088137,-0.101240260103468
5.6528,-0.0722480263689099,-0.101111266727897
5.6544,-0.0732298889012665,-0.100979063275823
5.656,-0.0742150851340723,-0.100843339062112
5.6576,-0.0752038205569338,-0.100703762253573
5.6592,-0.0761962733385234,-0.100559981964046
5.6608,-0.0771925928164432,-0.100411630482604
5.6624,-0.0781928981678851,-0.100258325620257
5.664,-0.0791972772713988,-0.100099673161661
5.6656,-0.0802057857688619,-0.0999352694039683
5.6672,-0.0812184463314653,-0.0997647037689831
5.6688,-0.082235248139894,-0.0995875614705988
5.6704,-0.0832561465780204,-0.0994034262206337
5.672,-0.0842810631470981,-0.099211882955474
5.6736,-0.085309885599272,-0.0990125205661173
5.6752,-0.0863424682910862,-0.0988049346136935
5.6768,-0.0873786327563044,-0.0985887300122962
5.6784,-0.0884181684939331,-0.0983635236619512
5.68,-0.0894608339678593,-0.0981289470144896
5.6816,-0.0905063578120907,-0.0978846485545293
5.6832,-0.0915544402350052,-0.0976302961803609
5.6848,-0.0926047546131096,-0.0973655794669408
5.6864,-0.0936569492657084,-0.0970902117974891
5.688,-0.0947106493991791,-0.0968039323487951
5.6896,-0.095765459208559,-0.0965065079162272
5.6912,-0.0968209641231377,-0.0961977345658504
5.6928,-0.0978767331826667,-0.0958774391035472
5.6944,-0.0989323215284709,-0.0955454803492468
5.696,-0.0999872729933572,-0.0952017502081575
5.6976,-0.101041122774897,-0.0948461745310075
5.6992,-0.102093400173386,-0.0944787137568878
5.7008,-0.103143631377805,-0.0940993633337025
5.7024,-0.104191342281684,-0.0937081539131252
5.704,-0.105236061309356,-0.0933051513173574
5.7056,-0.106277322236605,-0.0928904562768948
5.7072,-0.107314666984104,-0.0924642039420973
