"Freq [GHz]","re(S(Antenna1_1_1,Antenna1_1_1)) []","im(S(Antenna1_1_1,Antenna1_1_1)) []"
3,-0.196340091169988,-0.174009177146434
3.014,-0.204937663394747,-0.163161797583158
3.028,-0.213157651925388,-0.151421013878664
3.042,-0.220771204644436,-0.138707105376439
3.056,-0.22752078284307,-0.125028216574411
3.07,-0.233155199395212,-0.110483047615446
3.084,-0.237461597900208,-0.0952503229323507
3.098,-0.240289821849923,-0.079567911837334
3.112,-0.241566375767844,-0.0637058149265406
3.126,-0.241297201074139,-0.0479376726056518
3.14,-0.239560368873347,-0.0325150256532188
3.154,-0.236491195895555,-0.0176474590775428
3.168,-0.232263020045306,-0.00349029630465386
3.182,-0.227066892221273,0.0098599773586198
3.196,-0.221092867589314,0.0223635937738529
3.21,-0.214514639851221,0.0340304483004012
3.224,-0.207480579398461,0.044894246982461
3.238,-0.200121544470831,0.0550279651504024
3.252,-0.192509107300574,0.0645646973161694
3.266,-0.184664463822104,0.0736138780118589
3.28,-0.176564989873805,0.0822746327215899
3.294,-0.16814864686293,0.0906233574800662
3.308,-0.159321418645509,0.098701914046712
3.322,-0.149968317788654,0.106507154054419
3.336,-0.139968256896228,0.113983101479311
3.35,-0.129212415253919,0.121017583145718
3.364,-0.117624762251092,0.127445164077064
3.378,-0.105182364114812,0.133057765587992
3.392,-0.091932300001791,0.137623304134407
3.406,-0.0780017354275975,0.140911230941274
3.42,-0.0635981416684683,0.142722258325802
3.434,-0.048997851581004,0.14291819226356
3.448,-0.0345117891812896,0.141317709083272
3.462,-0.0205875983839594,0.138062847011271
3.476,-0.0075431549755457,0.133407937474553
3.49,0.00441212500621702,0.127650820445356
3.504,0.0151848891068384,0.121132763852251
3.518,0.0248065074848556,0.114191653907805
3.532,0.0334226772741852,0.107114705210097
3.546,0.0412650388147764,0.100098479566807
3.56,0.0486090475478998,0.093222986762111
3.574,0.0557248269721922,0.0864443474817648
3.588,0.0628290182902823,0.0796073498752505
3.602,0.0700454842630261,0.0724758273937878
3.616,0.0773811544525648,0.0647757779139388
3.63,0.0847206367912814,0.056244096836196
3.644,0.0918399970879702,0.0466750683895701
3.658,0.0984369480323738,0.0359574334736184
3.672,0.104172174827678,0.0240967304966502
3.686,0.1087150757258,0.0112202632332708
3.7,0.111786991654226,-0.00243506072843375
3.714,0.113195957590683,-0.016549201109054
3.728,0.112858826462058,-0.0307551098361146
3.742,0.11080885725805,-0.0446789871482817
3.756,0.107189063217514,-0.0579792525193926
3.77,0.102233405714443,-0.0703797001561631
3.784,0.0962390732932883,-0.0816936587330251
3.798,0.0895335640409628,-0.0918374439011818
3.812,0.0824402124985509,-0.10083269758858
3.826,0.0752453837001344,-0.108798191766509
3.84,0.068170023791782,-0.115932320463761
3.854,0.0613477730587174,-0.122487912639539
3.868,0.054811467207938,-0.128741325032151
3.882,0.0486054824354101,-0.135068882276484
3.896,0.0424316992704742,-0.141788289606487
3.91,0.0358411191650696,-0.148883973953081
3.924,0.0285255596475686,-0.156285098200521
3.938,0.0202144176614362,-0.163803473354868
3.952,0.0107147206539602,-0.171152001554036
3.966,-5.66149340125348E-05,-0.177976691377572
3.98,-0.0120531674629598,-0.183899208312568
3.994,-0.025095704343559,-0.188565011566528
4.008,-0.0388868386758186,-0.191690722154009
4.022,-0.0530427032237417,-0.193103853277373
4.036,-0.0671379523827873,-0.192768653552086
4.05,-0.080758035902451,-0.190793583342866
4.064,-0.0935511961264315,-0.187418630417816
4.078,-0.105272374368077,-0.182983824439336
4.092,-0.115812287238819,-0.177883356666511
4.106,-0.12520719472281,-0.172512076347709
4.12,-0.133627929333551,-0.167212368273212
4.134,-0.14135003115781,-0.162229289881704
4.148,-0.148709739338664,-0.157680404802817
4.162,-0.156052616951633,-0.153544292178679
4.176,-0.163682415457143,-0.14966872013436
4.19,-0.17181734718815,-0.145796504126468
4.204,-0.180559406126322,-0.14160463605024
4.218,-0.189880123896909,-0.136750729097141
4.232,-0.199623629582582,-0.130920328819488
4.246,-0.209525545659286,-0.123869128726347
4.26,-0.219244439747431,-0.115455362561606
4.274,-0.228401442303953,-0.105659293930325
4.288,-0.236623241026593,-0.0945884522902931
4.302,-0.243583843080989,-0.0824688118617852
4.316,-0.248969460611292,-0.0696187258913847
4.33,-0.252518726372773,-0.0565373880750981
4.344,-0.254521740481048,-0.0437061028983334
4.358,-0.255188027939928,-0.0314654033573935
4.372,-0.254819800661419,-0.0200646015975781
4.386,-0.253777124937468,-0.00963622190061241
4.4,-0.252436046933979,-0.000182621627826392
4.414,-0.251143618595642,0.00842305889676465
4.428,-0.250174611457053,0.0164206745734784
4.442,-0.249695185876354,0.0241322741659363
4.456,-0.249738646346055,0.0319193517681796
4.47,-0.250197475996516,0.0401327533105164
4.484,-0.250834063846603,0.0490614667957862
4.498,-0.251310063804819,0.0588874162639671
4.512,-0.251231491234569,0.0696532224889067
4.526,-0.250203947890293,0.0812485442197424
4.54,-0.247890296910769,0.0934181576206978
4.554,-0.244062151625635,0.105791694246253
4.568,-0.238636988589079,0.117931461671571
4.582,-0.231694586942457,0.129391641700072
4.596,-0.22346959011799,0.139780004672487
4.61,-0.214320785330717,0.148812551926703
4.624,-0.20468153756107,0.156352406549889
4.638,-0.194998994352763,0.162426711811072
4.652,-0.185671594139666,0.16721886331642
4.666,-0.17699468998802,0.171037462388725
4.68,-0.169122677539143,0.174267195214979
4.694,-0.162053153240646,0.177309716378308
4.708,-0.155634866867819,0.180524030123943
4.722,-0.149597279892165,0.184175589011389
4.736,-0.143596131174088,0.188401469834596
4.75,-0.137267150405958,0.193195949743816
4.764,-0.130021992849416,0.198569129644829
4.778,-0.121805358041772,0.203926582614588
4.792,-0.112571942272316,0.208936803784682
4.806,-0.102390758677708,0.213282102370452
4.82,-0.0914272468559982,0.216693870947066
4.834,-0.0799165512810768,0.218977253667354
4.848,-0.0681328601279028,0.220024080387655
4.862,-0.0563591374128507,0.219814834323698
4.876,-0.0448604194683786,0.218411699840509
4.89,-0.0338624745555065,0.215945272321505
4.904,-0.0235364125632791,0.212597384562011
4.918,-0.0139890371502604,0.208581951188664
4.932,-0.00525844354579537,0.204125064981873
4.946,0.00268550462979721,0.19944508518735
4.96,0.00993585501000271,0.194733319866292
4.974,0.0166381784003005,0.190136148833032
4.988,0.0229749372830117,0.185739929226477
5.002,0.0291449139795323,0.181560526843117
5.016,0.0353388741659265,0.177539541223762
5.03,0.0417137143138434,0.173549013485589
5.044,0.0483683124535036,0.169405526422928
5.058,0.055324841191853,0.164893204375332
5.072,0.062519148336815,0.159793443581166
5.086,0.0698028508888983,0.153917618370008
5.1,0.0769581044118772,0.147137911727376
5.114,0.0837238763948303,0.139411137576465
5.128,0.0898303834008954,0.130791124692639
5.142,0.095036610996596,0.121426873803031
5.156,0.0991649277653582,0.111546018461195
5.17,0.102126978541041,0.101425686908122
5.184,0.103936324747879,0.0913551683159526
5.198,0.104705482796848,0.0815963579513787
5.212,0.104627689781823,0.0723484569149493
5.226,0.103946382543361,0.063722713805344
5.24,0.102917493444874,0.0557312424043401
5.254,0.101770836087963,0.0482914732734413
5.268,0.100676864338678,0.0412450832566819
5.282,0.0997239637928914,0.0343878193791837
5.296,0.0989094280619389,0.0275049442806577
5.31,0.0981448014181865,0.0204063667587625
5.324,0.0972738257684478,0.0129559531811385
5.338,0.0960992719713982,0.00509089184216332
5.352,0.0944137951453636,-0.00317102655746312
5.366,0.0920297754640631,-0.0117361704102197
5.38,0.088803830302957,-0.0204498911831549
5.394,0.0846530750992545,-0.0291180741948783
5.408,0.0795619228182866,-0.0375314930625795
5.422,0.0735798728413301,-0.0454892347481395
5.436,0.0668120333680926,-0.0528182756097609
5.45,0.0594048511720975,-0.05938745996256
5.464,0.0515296437220643,-0.0651153557196513
5.478,0.0433661398952538,-0.0699724657213126
5.492,0.0350875394952011,-0.0739788822417269
5.506,0.0268478436033891,-0.0771986358369417
5.52,0.0187716089031708,-0.0797317834407988
5.534,0.0109459814662189,-0.0817048716908023
5.548,0.00341490076294974,-0.0832600058322596
5.562,-0.00382434698314679,-0.0845425362133369
5.576,-0.0108216681759931,-0.0856874533089976
5.59,-0.0176709628885886,-0.0868049637113988
5.604,-0.0245023601735767,-0.0879663020630083
5.618,-0.0314694366212914,-0.0891914353394947
5.632,-0.0387729144542862,-0.0904949894122239
5.646,-0.0466056392321123,-0.0917280392740794
5.66,-0.0550205523442872,-0.092638638165215
5.674,-0.064022326425784,-0.0930121196389354
5.688,-0.0735384602750282,-0.0926330753491645
5.702,-0.0834214408681453,-0.0913133092009323
5.716,-0.0934613059717107,-0.0889180126460417
5.73,-0.103407508069393,-0.0853861548581664
5.744,-0.112997392480653,-0.0807417241481643
5.758,-0.121987385926024,-0.0750937345123542
5.772,-0.130182394940451,-0.0686246128319939
5.786,-0.137459068889414,-0.0615684051741278
5.8,-0.143779475725245,-0.0541818527035537
5.814,-0.149193211830957,-0.0467124957165312
5.828,-0.153827751098259,-0.0393683749939311
5.842,-0.15786860990111,-0.0322935572809395
5.856,-0.161540912252235,-0.0255915228403902
5.87,-0.165080864986607,-0.0191986722592958
5.884,-0.168669973581414,-0.0129996543642776
5.898,-0.1724312204377,-0.00682749034543559
5.912,-0.176414745116444,-0.000482255722776926
5.926,-0.180592246501517,0.00624169527443629
5.94,-0.184860770375245,0.013528974577123
5.954,-0.189054806327206,0.0215197983227471
5.968,-0.192964865060837,0.0302922524116307
5.982,-0.196360285576238,0.039851627571699
5.996,-0.199013882146475,0.0501275007960903
6.01,-0.200726095910586,0.0609785733455361
6.024,-0.201346478849533,0.0722047160447482
6.038,-0.200790556078848,0.0835651852806185
6.052,-0.199050383010763,0.0948015102443844
6.066,-0.196180158073254,0.105651445568044
6.08,-0.192314708349603,0.115849245213265
6.094,-0.187738967939186,0.12527159837521
6.108,-0.182705247826037,0.133861758864173
6.122,-0.177464007843792,0.141650679164659
6.136,-0.172233423444937,0.14875180555313
6.15,-0.167172002047903,0.155345276780084
6.164,-0.162358030579815,0.161652954400767
6.178,-0.157779007454684,0.167907129840675
6.192,-0.1533330185305,0.174316886812164
6.206,-0.148842396131572,0.18103670917688
6.22,-0.144078195392544,0.188141849704564
6.234,-0.138792336111136,0.195614168642897
6.248,-0.132752996080757,0.203340705669682
6.262,-0.125778245614768,0.211125385889733
6.276,-0.117763108948333,0.218712290526704
6.29,-0.108696207227393,0.225817184678875
6.304,-0.0986637162634406,0.232162787415049
6.318,-0.0878402846203992,0.237512793866384
6.332,-0.0764684725605378,0.241699976984109
6.346,-0.0648298689841024,0.244644724261234
6.36,-0.0532120742930717,0.246361893454502
6.374,-0.0418760720281723,0.246955616533131
6.388,-0.0310281557709919,0.246603342048786
6.402,-0.0207996571934461,0.245531726924673
6.416,-0.0112364479599501,0.243987803275005
6.43,-0.00229880727536131,0.242209100548341
6.444,0.00612901801094114,0.240396151593662
6.458,0.0142212217956148,0.238690185790396
6.472,0.0221871124943087,0.237157982631654
6.486,0.0302446411962879,0.235784985747444
6.5,0.0385933919290205,0.23447697713897
6.514,0.0475228594898087,0.23316688291912
6.528,0.0570407196682731,0.231442972863071
6.542,0.0671073746484233,0.229042313468378
6.556,0.0775926556592426,0.225722749039071
6.57,0.0882867415808657,0.221291901549072
6.584,0.0989200052614169,0.215631621184799
6.598,0.109190240914438,0.208715155029037
6.612,0.118794834097305,0.200614705873065
6.626,0.127464596926329,0.191497801010557
6.64,0.134995368034403,0.181612004445302
6.654,0.14127325385621,0.171258919055157
6.668,0.146289721696947,0.160759973918817
6.682,0.150143722990868,0.150417930866804
6.696,0.153029585576064,0.140479090746293
6.71,0.155211391522199,0.131101573734185
6.724,0.156986659499186,0.122334616806783
6.738,0.158644015285181,0.114112542263442
6.752,0.16042079727501,0.106265037007266
6.766,0.162466919232249,0.0985429332594571
6.78,0.164820657560829,0.0906562001933411
6.794,0.167400389443255,0.0823187842410395
6.808,0.170013916813297,0.073293667561888
6.822,0.172384260589736,0.0634313125985913
6.836,0.174188176442272,0.0526955992285891
6.85,0.175101597827156,0.0411733009737786
6.864,0.174845124797447,0.0290657580261737
6.878,0.173222743637655,0.0166642277365146
6.892,0.17014816289378,0.00431292727988804
6.906,0.165655253775693,-0.00763441383693396
6.92,0.159891690700581,-0.0188578993437227
6.934,0.153097520680224,-0.0291084678829255
6.948,0.145559153750194,-0.0380766314374872
6.962,0.13772859365058,-0.0458382154993496
6.976,0.12990988240334,-0.0525692327725785
6.99,0.122308690291507,-0.0584703284710476
7.004,0.115039065016481,-0.063781867478913
7.018,0.108121044204543,-0.0687497281252431
7.032,0.101489427274708,-0.073594650241914
7.046,0.0950108942587708,-0.0784881095921442
7.06,0.0885062231695828,-0.0835362132566299
7.074,0.0817745551938729,-0.0887718061608978
7.088,0.0746172696389594,-0.0941540721260465
7.102,0.0668597822670928,-0.099574480260872
7.116,0.0583702199844728,-0.104867898702146
7.13,0.0490742914988249,-0.109827893312779
7.144,0.038965737074557,-0.114225427088374
7.158,0.0281115981616422,-0.117830186141395
7.172,0.0166513872204201,-0.120433483427723
7.186,0.00478927242842865,-0.121871162131168
7.2,-0.00722121260174792,-0.12204428997479
7.214,-0.0190996089842773,-0.120934938384029
7.228,-0.0305666438581557,-0.118614225357587
7.242,-0.0413752557002336,-0.115240255044876
7.256,-0.0513406749608881,-0.111044671422362
7.27,-0.0603650935046099,-0.106308158224741
7.284,-0.0684525909545617,-0.101327107273993
7.298,-0.0757109714579851,-0.0963754783715924
7.312,-0.0823389261779632,-0.091667190463146
7.326,-0.0885992161986268,-0.0873248802059939
7.34,-0.0947809687654602,-0.0833603477625053
7.354,-0.101156235976182,-0.0796704859039689
7.368,-0.107937254801257,-0.0760501724193617
7.382,-0.115339545142486,-0.0721949250290036
7.396,-0.123318131878832,-0.0676975348482374
7.41,-0.131586464554008,-0.0622896024520417
7.424,-0.139872937392413,-0.0557955626500381
7.438,-0.14785701033131,-0.0481483216519384
7.452,-0.155212533197511,-0.0393979671494455
7.466,-0.161650228992646,-0.0297038298033247
7.48,-0.16695324217913,-0.0193119008216189
7.494,-0.171001096713864,-0.00852169223748306
7.508,-0.173779477573708,0.00235210412775175
7.522,-0.175375540983955,0.0130174890989869
7.536,-0.175960563875871,0.0232374861591987
7.55,-0.175763333377692,0.0328531558798653
7.564,-0.175038558120844,0.0417952194182214
7.578,-0.174034717100638,0.0500839751185697
7.592,-0.172965252457093,0.0578187204423214
7.606,-0.171986062262157,0.0651589909604734
7.62,-0.171181099802423,0.0723005208437684
7.634,-0.170556759147763,0.0794489501163337
7.648,-0.170044780506299,0.0867940683828253
7.662,-0.16951271466746,0.0944869429457463
7.676,-0.168780533932669,0.102621768561419
7.69,-0.167641702215955,0.111223786051282
7.704,-0.165886837276567,0.120244174274543
7.718,-0.163327951573515,0.129562395748653
7.732,-0.159821130284285,0.138996012001466
7.746,-0.155285434993594,0.148317427414006
7.76,-0.14971589022432,0.157276355053267
7.774,-0.143188709478736,0.165626068938466
7.788,-0.135857515011902,0.173150819039484
7.802,-0.127940209481451,0.179691283907145
7.816,-0.119713246966052,0.185133877329765
7.83,-0.111530784877274,0.189457446868163
7.844,-0.10360588687857,0.192896929707258
7.858,-0.0961038310967761,0.195648343500198
7.872,-0.0891093151893806,0.197945992837944
7.886,-0.0826182459318131,0.200031708889228
7.9,-0.0765410249644017,0.202123009144855
7.914,-0.0707170256160207,0.204384442724757
7.928,-0.0649383775571349,0.20690599646829
7.942,-0.0589798618540033,0.209691467383391
7.956,-0.0526308760657505,0.212658310385305
7.97,-0.0457251829589179,0.215648868490866
7.984,-0.0381645311849989,0.21845133547724
7.998,-0.029933154442804,0.220827521239404
8.012,-0.0211014576552761,0.222543664295196
8.026,-0.0118186754356419,0.22340025870856
8.04,-0.00229572020231311,0.223257138158758
8.054,0.00721936847222404,0.222050809761351
8.068,0.0164701444063861,0.219802116428733
8.082,0.0252210470262536,0.21661356029608
8.096,0.0332837481919282,0.212656872090314
8.11,0.0405375143879013,0.20815251719395
8.124,0.0469413279228384,0.203343682747988
8.138,0.0525364898019265,0.198467828942276
8.152,0.0574394928066829,0.193729088442227
8.166,0.0618260067453188,0.189274667344404
8.18,0.0659077731811772,0.185177965881907
8.194,0.069904990509824,0.181430437024594
8.208,0.0740173167621731,0.17794328765033
8.222,0.0783968691936495,0.174559065361434
8.236,0.0831265093041865,0.171072048558666
8.25,0.0882062420379471,0.167255273738215
8.264,0.0936230259601113,0.162797052340272
8.278,0.0990660447653615,0.157575767233188
8.292,0.10429671107546,0.151519803396757
8.306,0.109061416894769,0.144644880398181
8.32,0.113123313801936,0.137053842822664
8.334,0.116292003338305,0.128925128857608
8.348,0.118447161988091,0.120491357457341
8.362,0.119552884368216,0.112010864936524
8.376,0.119660776832275,0.103736047972712
8.39,0.118901402152356,0.0958828575231664
8.404,0.11746533184212,0.088605641481027
8.418,0.115576548263792,0.0819807593644342
8.432,0.11346201624213,0.0760011018273998
8.446,0.111321739223306,0.0705820431199105
8.46,0.109303450996188,0.0655776928221063
8.474,0.107485305717158,0.0608048610422353
8.488,0.105868657688685,0.0560711363007733
8.502,0.104381488332655,0.0512030448486088
8.516,0.102891498497125,0.0460704562361928
8.53,0.101226585288535,0.0406041550950632
8.544,0.0991995532891012,0.0348046543357763
8.558,0.0966335717850243,0.0287416646758592
8.572,0.0933850834556433,0.0225449320985128
8.586,0.0893615057509482,0.0163882124276499
8.6,0.0845319892016797,0.0104688404889369
8.614,0.0789305256527891,0.00498562212858287
8.628,0.0726516650884688,0.000117662565590094
8.642,0.0658398773609164,-0.00399366375943187
8.656,0.0586741216340389,-0.00725797675127596
8.67,0.0513494599216958,-0.00964339566152933
8.684,0.0440576164261563,-0.0111778907932583
8.698,0.0370345180449537,-0.0119040278180322
8.712,0.030389193821899,-0.0120330739824563
8.726,0.0241529978842561,-0.0117510993864307
8.74,0.0183151782984789,-0.0112215613596887
8.754,0.0128111648178422,-0.0105862908272297
8.768,0.00753334339395023,-0.00994889154037916
8.782,0.00234680244830479,-0.00936250745729621
8.796,-0.00289154266092683,-0.00882347385735497
8.81,-0.00831254986690392,-0.00827182185306414
8.824,-0.0140156014688929,-0.00759885703298685
8.838,-0.0200529747543437,-0.0066611508377399
8.852,-0.026420000061795,-0.00529938507376079
8.866,-0.0330525226575445,-0.00335972248619781
8.88,-0.0398322435411272,-0.000714887251047781
8.894,-0.0465994096788492,0.00271795577243756
8.908,-0.0531712296075418,0.00696508115804201
8.922,-0.0593634946223933,0.0119916253936215
8.936,-0.0650123550810396,0.0177052449945035
8.95,-0.0699931440954515,0.023967472662701
8.964,-0.0742335820204721,0.0306110695349649
8.978,-0.07771956809055,0.0374607757787423
8.992,-0.0804929226261334,0.0443543909908002
9.006,-0.082641683236023,0.0511611488367503
9.02,-0.0842846661310691,0.0577948729742842
9.034,-0.0855527916254386,0.0642203094343766
9.048,-0.0865700178244904,0.070452151991025
9.062,-0.0874365915552124,0.0765474068960668
9.076,-0.0882167646056178,0.0825926853306822
9.09,-0.088932265957198,0.0886886166412877
9.104,-0.0895618428477646,0.0949337672115005
9.118,-0.0900462691735919,0.101410237292488
9.132,-0.0903074241901893,0.108206962044311
9.146,-0.0902061733084753,0.11534642344804
9.16,-0.0896141715197468,0.122760942619405
9.174,-0.0884387296125925,0.130380674638015
9.188,-0.0866102011504442,0.138110840445141
9.202,-0.0840871291747775,0.145840311064768
9.216,-0.0808586193359956,0.1534505959665
9.23,-0.0769442710091763,0.160824567856427
9.244,-0.0723920347548172,0.167854502014695
9.258,-0.0672742965391601,0.174449164466296
9.272,-0.0616823944261862,0.180539722372678
9.286,-0.0557197286470215,0.18608419087332
9.3,-0.0494936822673129,0.191070030190192
9.314,-0.0431067381727026,0.195514441238653
9.328,-0.0366474248092419,0.199461948657901
9.342,-0.0301819779363889,0.202979051163616
9.356,-0.0237477807180115,0.206146061383603
9.37,-0.0173496583991678,0.209046704396999
