"Freq [GHz]","re(S(Antenna1_1_1,Antenna1_1_1)) []","im(S(Antenna1_1_1,Antenna1_1_1)) []"
1,-0.798399664449623,-0.496065339928678
1.01,-0.818017376403511,-0.456482415396162
1.02,-0.836028494958772,-0.41464412913871
1.03,-0.852183785899961,-0.370482908768226
1.04,-0.86619938162489,-0.32394246822826
1.05,-0.877752513591087,-0.274983247934515
1.06,-0.886477169289983,-0.223589496921582
1.07,-0.891959939866584,-0.169778384831501
1.08,-0.893736476186414,-0.113611578003302
1.09,-0.891289180081943,-0.0552097360266954
1.1,-0.884047035681152,0.00522964242865004
1.11,-0.871388840633191,0.067410711909826
1.12,-0.852651524292527,0.130914059248758
1.13,-0.827145710672743,0.195168199860953
1.14,-0.794181126186683,0.25941901500036
1.15,-0.753104725743026,0.322699548929706
1.16,-0.703355296592125,0.38371056172283
1.17,-0.644583037401347,0.440928700599615
1.18,-0.576658089558603,0.492810279426136
1.19,-0.499779136437737,0.537441205556222
1.2,-0.414599972480537,0.572761408654685
1.21,-0.322323894964673,0.59668390207276
1.22,-0.224764697272525,0.607262576632303
1.23,-0.124348797941709,0.602899033064694
1.24,-0.0240358076338072,0.582564469230834
1.25,0.072853598894237,0.545999100240468
1.26,0.162893555485223,0.493844777070138
1.27,0.242859792523175,0.427672018229861
1.28,0.310035383367148,0.349882324359769
1.29,0.362457909228742,0.263495738597535
1.3,0.399062507783841,0.171862026315627
1.31,0.419701157340473,0.078350767756858
1.32,0.425464750323301,-0.013891795564148
1.33,0.41740758667433,-0.102342559620759
1.34,0.397132454586408,-0.1849463766934
1.35,0.366604661882733,-0.260219361986636
1.36,0.32783754667829,-0.327237955285229
1.37,0.282758158498816,-0.385560299971158
1.38,0.233119386811476,-0.435128950460455
1.39,0.180452861948554,-0.476172166322151
1.4,0.126053366846206,-0.509114710397438
1.41,0.0709849821050847,-0.534503542414424
1.42,0.0161004381481677,-0.552949807188332
1.43,-0.0379328926707441,-0.565086075391537
1.44,-0.0906049398222362,-0.571536586941072
1.45,-0.141535703498267,-0.572897872958367
1.46,-0.190450463416177,-0.569727244318537
1.47,-0.237158160209056,-0.562536980851266
1.48,-0.281533119123074,-0.551792475690161
1.49,-0.323499957929555,-0.537912995677759
1.5,-0.363021353595825,-0.521274070033886
1.51,-0.400088277351959,-0.502210803307392
1.52,-0.434712303590171,-0.481021627194591
1.53,-0.466919626552216,-0.457972168265065
1.54,-0.496746462251327,-0.433299025828262
1.55,-0.524235560782404,-0.407213336528292
1.56,-0.549433600313159,-0.379904058644698
1.57,-0.572389275643871,-0.351540946615451
1.58,-0.593151930126185,-0.322277210482589
1.59,-0.611770609924105,-0.29225186985761
1.6,-0.628293444393174,-0.261591820526924
1.61,-0.642767276500104,-0.23041363620548
1.62,-0.655237483331068,-0.198825129557278
1.63,-0.665704302789259,-0.166865762196615
1.64,-0.674190924908978,-0.134644888793885
1.65,-0.680778665396045,-0.102320411526073
1.66,-0.685511496139319,-0.0699799049147664
1.67,-0.688432901452391,-0.0377066001800737
1.68,-0.689586061676849,-0.00557992190861997
1.69,-0.689014045936387,0.0263240712544063
1.7,-0.686760006567597,0.0579323293688339
1.71,-0.682867369540135,0.0891745264076374
1.72,-0.677380016608812,0.119982838250335
1.73,-0.67034245603749,0.15029177501079
1.74,-0.661799979550093,0.180038060265018
1.75,-0.651798803858243,0.209160550660892
1.76,-0.64038619558589,0.237600190165583
1.77,-0.627610578826932,0.265299993886927
1.78,-0.613521624870827,0.292205056973895
1.79,-0.598170323846529,0.318262584619931
1.8,-0.581609038267837,0.343421939589556
1.81,-0.563891538551093,0.367634704088571
1.82,-0.545073020740741,0.390854753094957
1.83,-0.525210106756905,0.413038336536208
1.84,-0.504360827551769,0.434144167947104
1.85,-0.482584589650978,0.45413351742242
1.86,-0.45994212560663,0.472970306878603
1.87,-0.436495428954369,0.490621205780638
1.88,-0.412307674321449,0.50705572561268
1.89,-0.387443123389659,0.522246311535986
1.9,-0.361967017475033,0.536168429739779
1.91,-0.335945457535595,0.548800649139289
1.92,-0.309445272485432,0.560124716158934
1.93,-0.282533876739505,0.57012562142603
1.94,-0.255291484389461,0.578776890134199
1.95,-0.227817358552569,0.586047476067523
1.96,-0.200145152210502,0.591981699156412
1.97,-0.172341180421304,0.596578978640539
1.98,-0.14447143290351,0.59984191151435
1.99,-0.116601418968407,0.601776270456848
2,-0.0887960088660163,0.602390991670963
2.01,-0.0611192724788916,0.601698152126042
2.02,-0.033634316354779,0.599712935788665
2.03,-0.00640312013021695,0.596453588519558
2.04,0.0205136265998993,0.591941361421517
2.05,0.0470566858556287,0.586200442516242
2.06,0.0731684301985179,0.579257876761327
2.07,0.0987929978819163,0.571143474511047
2.08,0.123876443142435,0.561889708649775
2.09,0.148366880536778,0.551531600736326
2.1,0.172214622307049,0.540106596615849
2.11,0.195372307759254,0.527654432050786
2.12,0.217795023735486,0.51421698904228
2.13,0.239440415312366,0.499838143582549
2.14,0.26026878594585,0.484563605695697
2.15,0.280243186372605,0.468440752678272
2.16,0.299329491673318,0.451518456523409
2.17,0.317496466011067,0.43384690656141
2.18,0.334715814663833,0.41547742841144
2.19,0.350962223083165,0.396462300336946
2.2,0.366213382824086,0.376854568138564
2.21,0.380450004312482,0.356707859714304
2.22,0.393655816504343,0.336076200394435
2.23,0.405817553635025,0.315013830173186
2.24,0.416924929334755,0.293575023878972
2.25,0.42697059848666,0.271813915325694
2.26,0.436022029168711,0.249789984337078
2.27,0.444005377853229,0.227538200884879
2.28,0.450920229087427,0.205111537838243
2.29,0.456768904144453,0.182562331618387
2.3,0.461556381251453,0.159942129877435
2.31,0.465290206259342,0.137301547605072
2.32,0.467980394650543,0.114690132341568
2.33,0.469639325861429,0.0921562390487929
2.34,0.47028163093412,0.0697469151069931
2.35,0.469924074496548,0.047507795776761
2.36,0.468585432123003,0.0254830103578391
2.37,0.466286364084078,0.00371509918805866
2.38,0.463049286521234,-0.0177550585026632
2.39,0.45889824100819,-0.0388883059427552
2.4,0.45385876347647,-0.059647259541458
2.41,0.447957753408212,-0.0799963492464074
2.42,0.441223344160684,-0.0999018488332095
2.43,0.433684775232391,-0.119331896576878
2.44,0.425372267213625,-0.138256506726432
2.45,0.416316900102528,-0.15664757234096
2.46,0.406550495592467,-0.174478860050345
2.47,0.396105503870306,-0.19172599734604
2.48,0.38501489538059,-0.208366453061139
2.49,0.373312057944809,-0.224379511700087
2.5,0.361030699540792,-0.239746242300084
2.51,0.348204756982142,-0.254449462528266
2.52,0.334868310638659,-0.268473698689047
2.53,0.321055505312317,-0.281805142331179
2.54,0.306800477260555,-0.294431604127831
2.55,0.29213728733922,-0.30634246566495
2.56,0.277099860136769,-0.31752862976527
2.57,0.26168892288409,-0.327963834938736
2.58,0.245963788332577,-0.33764796882448
2.59,0.229969975683722,-0.346581968657929
2.6,0.213741162454449,-0.354762900182944
2.61,0.197310618971349,-0.362189177014771
2.62,0.180711171565936,-0.368860510855959
2.63,0.163975169467629,-0.374777862856589
2.64,0.147134455014266,-0.379943396279726
2.65,0.130220336849331,-0.384360430597685
2.66,0.113263565737464,-0.38803339706621
2.67,0.0962943126960718,-0.39096779582437
2.68,0.0793421491158004,-0.393170154491644
2.69,0.0624360286144248,-0.394647988218547
2.7,0.0456042703536909,-0.395409761109371
2.71,0.0288745436141564,-0.395464848921085
2.72,0.0122738534379765,-0.394823502911272
2.73,-0.00417147281001423,-0.39349681469205
2.74,-0.0204357980768898,-0.391496681960339
2.75,-0.0364941875308069,-0.388835774938357
2.76,-0.0523224197914271,-0.385527503394989
2.77,-0.0678969974897123,-0.381585984085464
2.78,-0.0831951571419776,-0.377026008510528
2.79,-0.0981948782851107,-0.371863010853018
2.8,-0.112874891802299,-0.366113036030105
2.81,-0.127214687344988,-0.359792707765639
2.82,-0.141194519734609,-0.352919196677561
2.83,-0.154795414223946,-0.345510188333083
2.84,-0.167999170478902,-0.337583851331996
2.85,-0.18078836514728,-0.329158805453761
2.86,-0.193146352888186,-0.320254089967722
2.87,-0.205057265726825,-0.310889132236161
2.88,-0.216502641753793,-0.301094835971569
2.89,-0.227470733277493,-0.290892258683698
2.9,-0.237952374716099,-0.280290702240969
2.91,-0.247934936530412,-0.269310453961678
2.92,-0.257406501116055,-0.257972014226853
2.93,-0.266355846012622,-0.246296073663158
2.94,-0.274772425386546,-0.234303493049698
2.95,-0.282646350039387,-0.222015286297419
2.96,-0.289968366244885,-0.209452606777148
2.97,-0.296729833769103,-0.196636737312337
2.98,-0.302922703482128,-0.183589084088108
2.99,-0.308539495028181,-0.170331174696079
3,-0.313573275071993,-0.156884660508201
3.01,-0.31801763669075,-0.143271323502198
3.02,-0.321866680528178,-0.129513087610847
3.03,-0.325114998364588,-0.115632034595969
3.04,-0.327757659800569,-0.101650424361422
3.05,-0.329790202774077,-0.0875907195524207
3.06,-0.331208628655416,-0.0734756141701552
3.07,-0.332009402670454,-0.0593280658388375
3.08,-0.332189460414254,-0.04517133126943
3.09,-0.331746221177684,-0.0310290043035169
3.1,-0.330677608815035,-0.0169250558628752
3.11,-0.328982080805166,-0.00288387493300404
3.12,-0.326658666123799,0.0110696903495674
3.13,-0.323707012432711,0.0249102926195795
3.14,-0.320127443023716,0.0386120474193564
3.15,-0.315921023803611,0.0521484988931755
3.16,-0.311089640469377,0.0654925904873763
3.17,-0.305636085861927,0.0786166422243661
3.18,-0.299564157265069,0.0914923361740943
3.19,-0.292873634672968,0.104080420760804
3.2,-0.28556508972786,0.116328534083023
3.21,-0.277664529290421,0.128236788460716
3.22,-0.269181248395213,0.139775443064277
3.23,-0.260126034912347,0.150914263253559
3.24,-0.250511305361399,0.161622578262887
3.25,-0.240351243244249,0.171869358545702
3.26,-0.229661937480194,0.181623314109406
3.27,-0.218461518174476,0.19085301492674
3.28,-0.206770286703304,0.199527034154757
3.29,-0.194610836824102,0.207614114527624
3.3,-0.182008163303042,0.215083357797797
3.31,-0.168989754437014,0.221904436650334
3.32,-0.155585664741348,0.228047827895676
3.33,-0.141828564091238,0.233485065197442
3.34,-0.127753759717798,0.23818900894303
3.35,-0.113399187662724,0.242134130233415
3.36,-0.0988053706261179,0.245296805349779
3.37,-0.0840153395811443,0.247655616440203
3.38,-0.0690745171041975,0.249191653634313
3.39,-0.054030561016696,0.249888813310278
3.4,-0.0389331677640446,0.249734086876889
3.41,-0.0238338357658884,0.248717834175526
3.42,-0.00878558995704918,0.246834035507212
3.43,0.00615733029674362,0.244080516343561
3.44,0.0209398167541363,0.240459139019185
3.45,0.0355062671707648,0.235975956115609
3.46,0.0498009844504103,0.23064132082855
3.47,0.0637685942005581,0.22446995038357
3.48,0.0773544741613593,0.217480939491516
3.49,0.090505188424131,0.20969772185198
3.5,0.103168919040726,0.201147978892806
3.51,0.1153690065036,0.191979913779987
3.52,0.127007249681093,0.182099521148325
3.53,0.138037296627788,0.171543058694761
3.54,0.148415588358972,0.160350393422627
3.55,0.158101696342459,0.148564718294714
3.56,0.167058622314257,0.13623223251645
3.57,0.175253056125106,0.123401791460068
3.58,0.18265558839343,0.110124532782197
3.59,0.189240875909992,0.0964534856216556
3.6,0.194987758853193,0.0824431698296336
3.61,0.19987933004067,0.0681491921046161
3.62,0.203902957507498,0.0536278455848252
3.63,0.207050262635853,0.0389357190017679
3.64,0.209317056941532,0.0241293208350741
3.65,0.210703241281898,0.00926472321777094
3.66,0.211215063037142,-0.00565457671134775
3.67,0.21084318619944,-0.0206097489158199
3.68,0.209586345377374,-0.0354589099380762
3.69,0.207459487537874,-0.0501469222380224
3.7,0.204481219238693,-0.0646205095660464
3.71,0.200673570465382,-0.0788284968582506
3.72,0.196061747257081,-0.0927220193387548
3.73,0.190673877086969,-0.106254701624452
3.74,0.184540750536068,-0.119382808048172
3.75,0.177695562335202,-0.132065365801031
3.76,0.170173654437489,-0.144264262750274
3.77,0.162012263253052,-0.155944321954098
3.78,0.153250272770245,-0.167073354969172
3.79,0.143927974859416,-0.177622196068807
3.8,0.134086837661802,-0.187564719414817
3.81,0.123769282644638,-0.196877841134285
3.82,0.112931966280183,-0.205447134233716
3.83,0.101698351939896,-0.213299781018333
3.84,0.0901470783083971,-0.220453892319777
3.85,0.0783247372738435,-0.22690233867275
3.86,0.0662773866598615,-0.232641147223663
3.87,0.054050350474493,-0.237669385289911
3.88,0.0416880330758279,-0.241989034678114
3.89,0.0292337470705587,-0.24560485795686
3.9,0.016729554741894,-0.248524257722707
3.91,0.00421612278358541,-0.250757129820673
3.92,-0.00826740988581181,-0.252315711367669
3.93,-0.0206835514434645,-0.253214424358693
3.94,-0.0329965637988103,-0.253469715579244
3.95,-0.0451725567313095,-0.253099893485344
3.96,-0.0571795696864232,-0.252124962719064
3.97,-0.0689876413599726,-0.250566456849617
3.98,-0.080568867194402,-0.248447269980797
3.99,-0.0918974449217817,-0.245791487832387
4,-0.102949708240422,-0.24262421888981
4.01,-0.113704148780008,-0.23897142629227
4.02,-0.124141426460298,-0.234859761048775
4.03,-0.134244368422348,-0.23031639727314
4.04,-0.143997956699441,-0.225368870079756
4.05,-0.153389304845898,-0.220044916820211
4.06,-0.162407623786664,-0.214372322342402
4.07,-0.171044177180271,-0.208378768949489
4.08,-0.179292226630291,-0.202091691754806
4.09,-0.18714696717263,-0.195538140086331
4.1,-0.194605453450725,-0.18874464561928
4.11,-0.201666517118736,-0.181737097868661
4.12,-0.208330676004804,-0.174540627652729
4.13,-0.214583705236213,-0.167249667225064
4.14,-0.220449196352373,-0.159891236887388
4.15,-0.225955527736884,-0.152415566763718
4.16,-0.231109025836002,-0.144840030338933
4.17,-0.235916700238648,-0.137180805395935
4.18,-0.24038612146984,-0.12945286553437
4.19,-0.244525300976507,-0.12166998202398
4.2,-0.248342574106629,-0.11384473569322
4.21,-0.251846486843564,-0.105988538455526
4.22,-0.255045687020627,-0.0981116640437187
4.23,-0.257948820720303,-0.0902232874572604
4.24,-0.260564434495607,-0.0823315325706074
4.25,-0.262900884021479,-0.0744435273295872
4.26,-0.264966249726551,-0.0665654658706978
4.27,-0.266768259902139,-0.0587026769044414
4.28,-0.268314221724401,-0.0508596976462632
4.29,-0.269610960560167,-0.0430403525395233
4.3,-0.270664767888873,-0.0352478360060354
4.31,-0.271481358055327,-0.027484798427492
4.32,-0.272065834071551,-0.0197534345578187
4.33,-0.272422662539673,-0.0120555735303283
4.34,-0.27255565777074,-0.00439276965545712
4.35,-0.272467975046348,0.00323360682912104
4.36,-0.272162112943046,0.0108222798514171
4.37,-0.271639924538677,0.0183719792677039
4.38,-0.270902637287932,0.025881355049603
4.39,-0.269950881242657,0.0333488946766565
4.4,-0.268784725278586,0.0407728444544479
4.41,-0.267403720890343,0.0481511354491194
4.42,-0.265806953083714,0.0554813147021557
4.43,-0.263993097824215,0.0627604823236332
4.44,-0.26196254152707,0.070008534823631
4.45,-0.25970663583763,0.0772686309982748
4.46,-0.257210559184003,0.0844648660327849
4.47,-0.254472241602676,0.0915897146730451
4.48,-0.251489844250286,0.098635030030459
4.49,-0.248261837784373,0.105592055787298
4.5,-0.244787079329963,0.112451446419289
4.51,-0.241064887308562,0.119203295227892
4.52,-0.237095113400394,0.125837169976483
4.53,-0.232878210938504,0.132342155791573
4.54,-0.228415299088607,0.138706905005173
4.55,-0.223708222158445,0.144919693485478
4.56,-0.218759603463489,0.150968483004202
4.57,-0.21357289319094,0.156840989091082
4.58,-0.208152409761941,0.162524753830375
4.59,-0.202503374252832,0.168007222956456
4.6,-0.196631937476133,0.173275826602031
4.61,-0.190545199395683,0.178318063016165
4.62,-0.184251220598074,0.183121584519688
4.63,-0.177759025631144,0.18767428496801
4.64,-0.171078598058836,0.191964387954474
4.65,-0.164220867172231,0.195980534987112
4.66,-0.157197686356974,0.199711872857385
4.67,-0.150021803189691,0.203148139431648
4.68,-0.142706821398258,0.206279747085641
4.69,-0.135267154918053,0.20909786303573
4.7,-0.12771797430047,0.21159448581854
4.71,-0.120075145841116,0.213762517214095
4.72,-0.112355163838176,0.215595828925192
4.73,-0.104575076447405,0.217089323375224
4.74,-0.0967524056892395,0.218238988015204
4.75,-0.0889050621773675,0.219041942599232
4.76,-0.0810500148630689,0.219407435390132
4.77,-0.0732234895768092,0.219424272037435
4.78,-0.0654439123490721,0.219095446080319
4.79,-0.0577294449415176,0.218425175648523
4.8,-0.0500978861286724,0.217418878921603
4.81,-0.0425665753681902,0.21608314079227
4.82,-0.0351522996938958,0.214425670945818
4.83,-0.0278712046080895,0.212455253683953
4.84,-0.0207387097390607,0.210181689871532
4.85,-0.013769429993239,0.207615731460938
4.86,-0.00697710287595627,0.204769009120962
4.87,-0.000374522622352602,0.20165395355115
4.88,0.0060265182835231,0.198283711131676
4.89,0.0122152796968331,0.194672054617795
4.9,0.0181821160291999,0.190833289606721
4.91,0.0239185097464677,0.186782157589108
4.92,0.0294170958118466,0.182533736402198
4.93,0.0346716768637923,0.178103338940149
4.94,0.0396772289694369,0.173506411008036
4.95,0.0444298979028528,0.168758429200008
4.96,0.048926985953871,0.163874799708347
4.97,0.0531669293776087,0.158870758956873
4.98,0.0571492666832513,0.153761276944146
4.99,0.0608745980230403,0.148560964167295
5,0.0643445360567387,0.143283982971831
5.01,0.0675616487091883,0.13794396412133
5.02,0.0705293943558516,0.132553929378265
5.03,0.0732520500184675,0.127126220794761
5.04,0.0757346332291724,0.121672437373367
5.05,0.0779828182809688,0.116203379720322
5.06,0.0800028476596632,0.110729003186097
5.07,0.0818145413582195,0.10532712472229
5.08,0.0834312447314974,0.0999566416241958
5.09,0.084857536371469,0.0945992094156476
5.1,0.0861000825574899,0.0892588322068932
5.11,0.0871653550394063,0.0839386916965241
5.12,0.0880595462212248,0.0786411894686232
5.13,0.0887884894147274,0.0733679975824992
5.14,0.0893575849503153,0.0681201169335504
5.15,0.0897717329068635,0.0628979427549652
5.16,0.090035273119801,0.0577013366011703
5.17,0.0901519331019722,0.0525297040571157
5.18,0.0901247844060844,0.0473820773717109
5.19,0.0899562078957097,0.0422572021619672
5.2,0.0896478683018822,0.0371536272952599
5.21,0.0892006983542979,0.0320697970075578
5.22,0.0886148926860088,0.0270041443094084
5.23,0.0878899116092813,0.021955184692499
5.24,0.0870244947849737,0.0169216091636943
5.25,0.0860166846813668,0.0119023756084068
5.26,0.0848638596518808,0.0068967975192182
5.27,0.0835627763444951,0.00190462913880594
5.28,0.0821096210719935,-0.00307385392251174
5.29,0.0805000696923696,-0.0080377794734127
5.3,0.0787293554288493,-0.0129856097750854
5.31,0.0767923440300421,-0.0179150796050516
5.32,0.0746836155397,-0.0228231420853026
5.33,0.0723975519094857,-0.0277059229251669
5.34,0.0699284296240009,-0.0325586836505279
5.35,0.0672705164335557,-0.0373757943250361
5.36,0.0644181712565308,-0.0421507161667594
5.37,0.0613659462767937,-0.0468759943712612
5.38,0.0580898013863758,-0.0515774126504647
5.39,0.0545755964966588,-0.0562397865956923
5.4,0.0508358492637554,-0.0608154354561116
5.41,0.0468683004431032,-0.0652918211223379
5.42,0.0426715766675161,-0.0696557931692066
5.43,0.0382452618370838,-0.0738936645596876
5.44,0.0335899613654314,-0.0779912943905895
5.45,0.0287073586473312,-0.0819341769930838
5.46,0.0236002631364024,-0.0857075366161625
5.47,0.0182726495436163,-0.0892964268859414
5.48,0.0127296877226067,-0.0926858341922497
5.49,0.00697776288142917,-0.0958607841002004
5.5,0.00102448587841979,-0.0988064498665411
5.51,-0.0051213065847629,-0.10150826212548
5.52,-0.0114495619509204,-0.103952018783861
5.53,-0.0179490319585228,-0.106123994172605
5.54,-0.0246073028829987,-0.108011046500208
5.55,-0.0314108356482185,-0.109600722670756
5.56,-0.0383450155621367,-0.110881359556487
5.57,-0.0453942112977577,-0.111842180834578
5.58,-0.0525418426911218,-0.11247338853709
5.59,-0.0597704568298342,-0.112766248524371
5.6,-0.0670618118477847,-0.112713169128024
5.61,-0.0743969677651315,-0.112307772269578
5.62,-0.0817563836553086,-0.111544956433527
5.63,-0.0891200203668191,-0.110420950944409
5.64,-0.096467447982921,-0.10893336106715
5.65,-0.103777957148682,-0.107081203520253
5.66,-0.111030673377476,-0.104864932101425
5.67,-0.118204673424374,-0.102286453181223
5.68,-0.125279102777546,-0.0993491309222093
5.69,-0.132228051086964,-0.0960482408550665
