"Freq [GHz]","re(S(Antenna1_1_1,Antenna1_1_1)) []","im(S(Antenna1_1_1,Antenna1_1_1)) []"
1,-0.798466903551123,-0.496116474807368
1.01,-0.818111299315011,-0.456522216304022
1.02,-0.836149141607272,-0.41466590105211
1.03,-0.852330038796561,-0.370479718463926
1.04,-0.86636890894569,-0.32390731172216
1.05,-0.877941734235987,-0.274909227799315
1.06,-0.886681241403823,-0.223470006757582
1.07,-0.892172773984559,-0.169607297959801
1.08,-0.893950773810034,-0.113383437281902
1.09,-0.891496498115623,-0.0549199415660954
1.1,-0.884237876766321,0.00558465095705004
1.11,-0.871552769011791,0.067833281710826
1.12,-0.852777306416527,0.131405162913558
1.13,-0.827221479363843,0.195727289206753
1.14,-0.794194566741284,0.26004389339106
1.15,-0.753043281977226,0.323386265060006
1.16,-0.703158770214125,0.38441497531953
1.17,-0.644177503674347,0.441551032647515
1.18,-0.576063774176603,0.493303395624436
1.19,-0.499024327384737,0.537761445047022
1.2,-0.413720523163737,0.572869771381185
1.21,-0.321362567005773,0.59654717197776
1.22,-0.223770350773325,0.606854360193303
1.23,-0.123375439558879,0.602200693569694
1.24,-0.0231415092294072,0.581565938442834
1.25,0.073607895983027,0.544699550607468
1.26,0.163445333417823,0.492253139414138
1.27,0.243146328132175,0.425807331921861
1.28,0.309995176846148,0.347773909241769
1.29,0.362032148267742,0.261183180402535
1.3,0.398196543974841,0.169394969976627
1.31,0.418345970912473,0.075788515790958
1.32,0.423759609767301,-0.016217493590948
1.33,0.41545572283433,-0.104309812535359
1.34,0.394990654854408,-0.1865335262835
1.35,0.364331315300733,-0.261412608097896
1.36,0.32549163665529,-0.328031444523529
1.37,0.280398254742816,-0.385956091228158
1.38,0.230802651100476,-0.435136858064455
1.39,0.178234082154554,-0.475809483348151
1.4,0.123984033275106,-0.508405816286438
1.41,0.0691124196261847,-0.533479400711424
1.42,0.0144670068741877,-0.551647360728332
1.43,-0.0392905163536441,-0.563547547717537
1.44,-0.0916563911224362,-0.569808700075072
1.45,-0.142257456483967,-0.571030992854367
1.46,-0.190826249544977,-0.567774466394537
1.47,-0.237179271454056,-0.560553168868266
1.48,-0.281198590633074,-0.549833268019161
1.49,-0.322816626792555,-0.536033793483459
1.5,-0.362003792011825,-0.519529022292886
1.51,-0.398758600253959,-0.500651803705572
1.52,-0.433099852512171,-0.479697337907491
1.53,-0.465060533308216,-0.456927085364465
1.54,-0.494683097684327,-0.432572600611262
1.55,-0.522015875508404,-0.406839166411292
1.56,-0.547110365964159,-0.379909160423698
1.57,-0.570019236590871,-0.351945123884451
1.58,-0.590794877030285,-0.323092525818589
1.59,-0.609488387659005,-0.29348223101861
1.6,-0.626148907986875,-0.263232688467924
1.61,-0.640823209594164,-0.23245186110648
1.62,-0.653555494399468,-0.201238919353278
1.63,-0.664357450247559,-0.169547571469615
1.64,-0.673222252887378,-0.137472994311885
1.65,-0.680202999668045,-0.105245284346073
1.66,-0.685337518156319,-0.0729506063657663
1.67,-0.688663023399391,-0.0406715149510737
1.68,-0.690216386565849,-0.00848750117861997
1.69,-0.690034413403387,0.0235245663174063
1.7,-0.688154123968597,0.0552900934104339
1.71,-0.684613026853135,0.0867364945917374
1.72,-0.679449382600812,0.117792999247735
1.73,-0.67270245209849,0.14839052131019
1.74,-0.664412726634093,0.178461584425818
1.75,-0.654622137000243,0.207940295547292
1.76,-0.64337423962089,0.236762360585283
1.77,-0.630714378116932,0.264865136280127
1.78,-0.616689819142827,0.292187712995895
1.79,-0.601349861632529,0.318671023532931
1.8,-0.584745918913837,0.344257973436556
1.81,-0.566931573358093,0.368893588585571
1.82,-0.547962603517941,0.392525176108957
1.83,-0.527896983879905,0.415102494951208
1.84,-0.506794857577769,0.436577932601104
1.85,-0.484718482602328,0.45690668469242
1.86,-0.46173215223513,0.476046934403603
1.87,-0.437902090595369,0.493960028743638
1.88,-0.413296324385349,0.51061064896468
1.89,-0.387984532066359,0.525966972577986
1.9,-0.362037871875033,0.540000824550779
1.91,-0.335528790237595,0.552687815500289
1.92,-0.308530812280432,0.564007464858934
1.93,-0.281118316286505,0.57394330717803
1.94,-0.253381619293461,0.582438353920199
1.95,-0.225449266522569,0.589403943774524
1.96,-0.197362481237502,0.594979172596512
1.97,-0.169193645673304,0.599169256472739
1.98,-0.14101408602051,0.60198324536815
1.99,-0.112893848652406,0.603433932345248
2,-0.0849014832120163,0.603537745707963
2.01,-0.0571038342298916,0.602314624754342
2.02,-0.029565842799779,0.599787880016365
2.03,-0.00235035977521695,0.595984038984559
2.04,0.0244820281898993,0.590932678468517
2.05,0.0508731585416287,0.584666244858242
2.06,0.0767674375985179,0.577219863674327
2.07,0.102111969287916,0.568631139891047
2.08,0.126856667073735,0.558939950596775
2.09,0.150954348495878,0.548188231619326
2.1,0.174360811890049,0.536419759814849
2.11,0.197034895060054,0.523679932723786
2.12,0.218938515838986,0.51001554732128
2.13,0.240036694659366,0.495474579587549
2.14,0.26029755944295,0.480105966576697
2.15,0.279692333280305,0.463959392648272
2.16,0.298195305559318,0.447085081411409
2.17,0.315783787338067,0.42953359489841
2.18,0.332438051943833,0.41135564134544
2.19,0.348141261874165,0.392601892844946
2.2,0.362879383229086,0.373322814019564
2.21,0.376641089014482,0.353568502699304
2.22,0.389417652708343,0.333388543434435
2.23,0.401202833600025,0.312831874517886
2.24,0.411992755421755,0.291946669005272
2.25,0.42178577984566,0.270780230066294
2.26,0.430801946725711,0.249420793099778
2.27,0.438830145790229,0.227827518101379
2.28,0.445868183604427,0.206044160249543
2.29,0.451915580995453,0.184114152986987
2.3,0.456973540015453,0.162080565801435
2.31,0.461044912901342,0.139986064121072
2.32,0.464134173132543,0.117872870776568
2.33,0.466247388635429,0.0957827285417929
2.34,0.46739219709412,0.0737568631969931
2.35,0.467577783264548,0.051835946628761
2.36,0.466814858107003,0.0300600594658391
2.37,0.465115639484878,0.00846865279105866
2.38,0.462493834123834,-0.0128994914726632
2.39,0.45896462043969,-0.0340063018837552
2.4,0.45454463183007,-0.054814460809458
2.41,0.449251939943972,-0.0752874500174074
2.42,0.443106037429784,-0.0953895986942095
2.43,0.436127819629091,-0.115086134017878
2.44,0.428339564665025,-0.134343234281432
2.45,0.419764911367528,-0.15312808454896
2.46,0.410428834487467,-0.171408934691345
2.47,0.400357616657306,-0.18915515960604
2.48,0.38957881658159,-0.206337321334139
2.49,0.378121232973809,-0.222927232716087
2.5,0.366014863800792,-0.238898022156084
2.51,0.353290860451142,-0.254224199024266
2.52,0.339981476480659,-0.268881719121847
2.53,0.326120010682317,-0.282848049639779
2.54,0.311740744290555,-0.296102232959531
2.55,0.29687887218022,-0.30862494863345
2.56,0.281570428051769,-0.32039857284017
2.57,0.26576052778809,-0.331321952374536
2.58,0.249568650556577,-0.34141856293378
2.59,0.233069000100722,-0.350705208753729
2.6,0.216302501089449,-0.359175519791944
2.61,0.199309943166349,-0.366825315582771
2.62,0.182131849532936,-0.373652573341959
2.63,0.164808348562629,-0.379657386852589
2.64,0.147379049185266,-0.384841916374726
2.65,0.129882920795331,-0.389210329860685
2.66,0.112358178369364,-0.39276873583721
2.67,0.0948421734975718,-0.39552510838937
2.68,0.0773712919726004,-0.397489204728644
2.69,0.0599808585432248,-0.398672475901547
2.7,0.0427050494119909,-0.399087971228371
2.71,0.0255768129666364,-0.398750237156085
2.72,0.0086277992342765,-0.397675211210272
2.73,-0.00811170156841423,-0.39588011180305
2.74,-0.0246128110500898,-0.393383324702339
2.75,-0.0408481049563069,-0.390204286951357
2.76,-0.0567916455944271,-0.386363369115989
2.77,-0.0724190042527123,-0.381881756707464
2.78,-0.0877072735749776,-0.376781331675528
2.79,-0.102635069929111,-0.371084554834018
2.8,-0.117182525893299,-0.364814350136905
2.81,-0.131331273038988,-0.357993991651139
2.82,-0.145064415342609,-0.350646994097561
2.83,-0.158366493463946,-0.342797007828383
2.84,-0.171223440465902,-0.334467719003896
2.85,-0.18362252936928,-0.325682755783561
2.86,-0.195552313177186,-0.316465601254122
2.87,-0.207002557971825,-0.306839513785861
2.88,-0.217969616703793,-0.296869816224169
2.89,-0.228457202854493,-0.286576561476698
2.9,-0.238456174106099,-0.275936965681969
2.91,-0.247959482824412,-0.264970738580678
2.92,-0.256960648433055,-0.253697228297853
2.93,-0.265453683110622,-0.242135422235158
2.94,-0.273433019080846,-0.230303956288698
2.95,-0.280893438280587,-0.218221132289419
2.96,-0.287830005175885,-0.205904943494148
2.97,-0.294238003499603,-0.193373107907337
2.98,-0.300112877681128,-0.180643109135108
2.99,-0.305450179732681,-0.167732244420079
3,-0.310245522330193,-0.154657679440201
3.01,-0.31449453884995,-0.141436509381198
3.02,-0.318192851042158,-0.128085825723847
3.03,-0.321336045059588,-0.114622788125969
3.04,-0.323919656501969,-0.101064700698422
3.05,-0.325939165082677,-0.0874290919054207
3.06,-0.327389999535416,-0.0737337972331552
3.07,-0.328267553284454,-0.0599970437158375
3.08,-0.328567211359254,-0.04623753529843
3.09,-0.328284388993684,-0.0324745379635169
3.1,-0.327414582231035,-0.0187279634481752
3.11,-0.325953430816166,-0.00501845031438404
3.12,-0.323896793524799,0.00863255897016736
3.13,-0.321240835985711,0.0222027463265795
3.14,-0.317982130914716,0.0356688532223564
3.15,-0.314117770542611,0.0490066242301755
3.16,-0.309645490864377,0.0621907605952763
3.17,-0.304563807130927,0.0751948854463661
3.18,-0.298872159850069,0.0879915223438843
3.19,-0.292564618168968,0.100537078607804
3.2,-0.28563697686486,0.112769130760823
3.21,-0.278116324181421,0.124701470236716
3.22,-0.270007804467213,0.136303896335277
3.23,-0.261318145280347,0.147545293890559
3.24,-0.252055834920399,0.158393705073887
3.25,-0.242231300532249,0.168816424889702
3.26,-0.231857083953194,0.178780121461406
3.27,-0.220948012210176,0.18825098188474
3.28,-0.209521359323204,0.197194884069757
3.29,-0.197596995840102,0.205577594586624
3.3,-0.185197522376042,0.213364992036797
3.31,-0.172348383307414,0.220523314954334
3.32,-0.159077956753448,0.227019432673676
3.33,-0.145417617017438,0.232821136990442
3.34,-0.131401765806498,0.23789745180603
3.35,-0.117067828812724,0.242218957320415
3.36,-0.102456214607118,0.245758124702779
3.37,-0.0876102332681443,0.248489656600203
3.38,-0.0725759727811975,0.250390828254313
3.39,-0.057402131968696,0.251441823621278
3.4,-0.0421398095010446,0.251626060445889
3.41,-0.0268422494648884,0.250930498086526
3.42,-0.0115645449200492,0.249345921763912
3.43,0.00363669810574362,0.246867197023761
3.44,0.0187037327371363,0.243493488430985
3.45,0.0335780750347648,0.239228436993609
3.46,0.0482009340674103,0.23408029141855
3.47,0.0625136620715581,0.22806198910917
3.48,0.0764582178073593,0.221191183759326
3.49,0.089977635676131,0.21349021749868
3.5,0.103016492836726,0.204986036696806
3.51,0.1156626566056,0.195826147893987
3.52,0.127745152962093,0.185904112808326
3.53,0.139212260482788,0.175256837144761
3.54,0.150015180400972,0.163925395035627
3.55,0.160108430289459,0.151954724761714
3.56,0.169450197079257,0.13939328265545
3.57,0.178002644610006,0.126292661613068
3.58,0.18573217204753,0.112707181203197
3.59,0.192609620681992,0.0986934567166556
3.6,0.198610427858193,0.0843099546526336
3.61,0.20371472795347,0.0696165420076161
3.62,0.207907401465228,0.0546740365188252
3.63,0.211178074274153,0.0395437644817679
3.64,0.213521070072532,0.0242871322060741
3.65,0.214935319681898,0.00896521639177094
3.66,0.215404791980142,-0.00642707057834775
3.67,0.21490147773944,-0.0218668777008199
3.68,0.213460555719374,-0.0371803817250762
3.69,0.211099850105874,-0.0523070579850224
3.7,0.207841363321693,-0.0671886227000464
3.71,0.203710992733382,-0.0817693194562506
3.72,0.198738232308081,-0.0959961693310548
3.73,0.192955863873969,-0.109819185195452
3.74,0.186399642064068,-0.123191551200172
3.75,0.179107976797202,-0.136069768924831
3.76,0.171121616449489,-0.148413771969374
3.77,0.162483334625052,-0.160187011002098
3.78,0.153237622790245,-0.171356511442172
3.79,0.143430390705416,-0.181892905980807
3.8,0.133108676121802,-0.191770444196817
3.81,0.122320364885638,-0.200966981413285
3.82,0.111046673441183,-0.209311978254716
3.83,0.0994156066018962,-0.216878713437333
3.84,0.0875049137773971,-0.223709478562777
3.85,0.0753643737684435,-0.22980176448775
3.86,0.0630427081638615,-0.235156453870664
3.87,0.050587368543493,-0.239777648977911
3.88,0.0380443432248279,-0.243672490004114
3.89,0.0254579832612587,-0.24685096594186
3.9,0.012870847313994,-0.249325719240707
3.91,0.000323564975585409,-0.251111845882673
3.92,-0.0121452819128118,-0.252226692116669
3.93,-0.0244992604684645,-0.252689649060693
3.94,-0.0367041709688103,-0.252521946272244
3.95,-0.0487281145933095,-0.251746445307344
3.96,-0.0605415452134232,-0.250387434220064
3.97,-0.0721173057439726,-0.248470423882617
3.98,-0.083430649594402,-0.246021946969797
3.99,-0.0944592477387817,-0.243069360405287
4,-0.105183181925422,-0.23964065201691
4.01,-0.115584924610008,-0.23576425213727
4.02,-0.125649306090298,-0.231468850840475
4.03,-0.135363469490348,-0.22678322149948
4.04,-0.144716814138441,-0.221736051290756
4.05,-0.153700927954898,-0.216355779286211
4.06,-0.162309509493664,-0.210670442722402
4.07,-0.170538280299271,-0.204707532003489
4.08,-0.178384888268291,-0.198493854986806
4.09,-0.18584880274763,-0.192055411041331
4.1,-0.192931202120725,-0.18541727534428
4.11,-0.199634854658736,-0.178603493836661
4.12,-0.205963993466804,-0.171636989221729
4.13,-0.211930649740213,-0.164630411028064
4.14,-0.217566667824333,-0.157601028462388
4.15,-0.222881082811884,-0.150472234753718
4.16,-0.227881367611002,-0.143257397366933
4.17,-0.232575275929548,-0.135968642551935
4.18,-0.23697072227824,-0.12861688491337
4.19,-0.241075667553507,-0.12121186657498
4.2,-0.244898010867629,-0.11376220524622
4.21,-0.248445488236564,-0.106275450571526
4.22,-0.251725578697627,-0.0987581480907187
4.23,-0.254745418361303,-0.0912159100722604
4.24,-0.257511722839607,-0.0836534924816074
4.25,-0.260030718454479,-0.0760748772915872
4.26,-0.262308082537551,-0.0684833593326978
4.27,-0.264348893099139,-0.0608816368574414
4.28,-0.266157588039401,-0.0532719049803632
4.29,-0.267737934029167,-0.0456559511300233
4.3,-0.269093005178873,-0.0380352516740354
4.31,-0.270225171339327,-0.030411068849292
4.32,-0.271136096145551,-0.0227845471494187
4.33,-0.271826744476673,-0.0151568083413283
4.34,-0.27229739922274,-0.00752904426845712
4.35,-0.272547687035348,9.73933291210432E-05
4.36,-0.272576612712046,0.00772090677341707
4.37,-0.272382601797677,0.0153395709147039
4.38,-0.271963550949932,0.022951056797603
4.39,-0.271316885511657,0.0305525611986565
4.4,-0.270439623723586,0.0381407426274479
4.41,-0.269328446940343,0.0457116643641194
4.42,-0.267979775168714,0.0532607450191557
4.43,-0.266389847210615,0.0607827170436332
4.44,-0.26454890352117,0.068299876664631
4.45,-0.26242852303863,0.0758586991482748
4.46,-0.260035610859203,0.0833628139687849
4.47,-0.257367652687076,0.0908013710980451
4.48,-0.254422691738286,0.098162899355459
4.49,-0.251199403257373,0.105435349408298
4.5,-0.247697164810963,0.112606144096289
4.51,-0.243916121736562,0.119662235673892
4.52,-0.239857247097394,0.126590169484483
4.53,-0.235522395587504,0.133376153540573
4.54,-0.230914350866607,0.140006133434173
4.55,-0.226036865838445,0.146465871945478
4.56,-0.220894695482489,0.152741032684202
4.57,-0.21549362186394,0.158817267087082
4.58,-0.209840471049941,0.164680304011275
4.59,-0.203943121705832,0.170316041206456
4.6,-0.197810505200133,0.175710637869031
4.61,-0.191452597160683,0.180850607517865
4.62,-0.184880400439074,0.185722910393388
4.63,-0.178105919549144,0.19031504459601
4.64,-0.171142126711836,0.194615135191474
4.65,-0.164002919685231,0.198612020501112
4.66,-0.156703071655974,0.202295334844385
4.67,-0.149258173519691,0.205655587002648
4.68,-0.141684568940258,0.208684233708641
4.69,-0.133999282655053,0.21137374751073
4.7,-0.12621994253547,0.21371767840654
4.71,-0.118364695973116,0.215710708653095
4.72,-0.110452121217176,0.217348700273192
4.73,-0.102501134330505,0.218628734775224
4.74,-0.0945308924680395,0.219549144695204
4.75,-0.0865606942263675,0.220109536651232
4.76,-0.0786375790639998,0.220211379534132
4.77,-0.0707710274449092,0.219962172553435
4.78,-0.0629792528180721,0.219367763145319
4.79,-0.0552799237855176,0.218435159486523
4.8,-0.0476900754866724,0.217172479076603
4.81,-0.0402260259251902,0.21558888982027
4.82,-0.0329032978848958,0.213694544101818
4.83,-0.0257365470570895,0.211500506353953
4.84,-0.0187394969300607,0.209018674742532
4.85,-0.011924880973239,0.206261697571938
4.86,-0.00530439254495627,0.203242885113962
4.87,0.0011113570896474,0.19997611756715
4.88,0.0073128722855231,0.196475749907576
4.89,0.0132917978718331,0.192756514409095
4.9,0.0190409351341999,0.188833421630921
4.91,0.0245542488224677,0.184721660697308
4.92,0.0298268651618466,0.180436499682198
4.93,0.0348550609037923,0.175993186932149
4.94,0.0396362435494369,0.171406854144036
4.95,0.0441689229218528,0.166692421994008
4.96,0.048452674383871,0.161864509121347
4.97,0.0524880940166087,0.156937345200873
4.98,0.0562767461842513,0.151924688857146
4.99,0.0598211039560403,0.146839751085295
5,0.0631244829287387,0.141695124835831
5.01,0.0661909690331883,0.13650272133933
5.02,0.0690253409948516,0.131273713714265
5.03,0.0716329881285675,0.126018488338761
5.04,0.0740198242183724,0.120746604363367
5.05,0.0761921982555688,0.115466761744322
5.06,0.0781568028413632,0.110186778066097
5.07,0.0799518027292195,0.10498173002329
5.08,0.0815776722294974,0.0998048353761958
5.09,0.083032060808469,0.0946354910166476
5.1,0.0843206355464899,0.0894759495208932
5.11,0.0854487154884063,0.0843277828695241
5.12,0.0864212047842248,0.0791919374386232
5.13,0.0872425318847274,0.0740687951624992
5.14,0.0879165953283153,0.0689582402525504
5.15,0.0884467166358635,0.0638597308279652
5.16,0.088835600730801,0.0587723747671703
5.17,0.0890853042609722,0.0536950090451157
5.18,0.0891972121240844,0.0486262817857109
5.19,0.0891720224167097,0.0435647362540672
5.2,0.0890097399728822,0.0385088959631599
5.21,0.0887096785542979,0.0334573500916578
5.22,0.0882704717170087,0.0284088383764084
5.23,0.0876900922552813,0.023362334657499
5.24,0.0869658800969737,0.0183171282686943
5.25,0.0860945784073668,0.0132729024644068
5.26,0.0850723776118808,0.0082298091192182
5.27,0.0838949669654951,0.00318853894380594
5.28,0.0825575932329935,-0.00184961348951174
5.29,0.0810551259743696,-0.0068826905754127
5.3,0.0793821288698493,-0.0119080189880854
5.31,0.0775329364750421,-0.0169221640310516
5.32,0.0755017357177,-0.0219208915533026
5.33,0.0732826514384857,-0.0268991378551669
5.34,0.0708698351990009,-0.0318509879795279
5.35,0.0682575565828557,-0.0367696626880361
5.36,0.0654402961597308,-0.0416475143607594
5.37,0.0624128392767937,-0.0464760319782612
5.38,0.0591472983743758,-0.0512761195014647
5.39,0.0556314593816588,-0.0560308513936923
5.4,0.0518830919187554,-0.0606956147361116
5.41,0.0479005413501032,-0.0652574708593379
5.42,0.0436830437745161,-0.0697029534052066
5.43,0.0392307869670838,-0.0740181406336876
5.44,0.0345449649284314,-0.0781887335735895
5.45,0.0296278255283312,-0.0822001394370838
5.46,0.0244827107654024,-0.0860375596741625
5.47,0.0191140892436163,-0.0896860819839414
5.48,0.0135275805006067,-0.0931307756022497
5.49,0.00772997091142917,-0.0963567891080004
5.5,0.00172922094541979,-0.0993494500200411
5.51,-0.0044655363807629,-0.10209436538358
5.52,-0.0108440059369204,-0.104577522584861
5.53,-0.0173947498155228,-0.106785389586605
5.54,-0.0241052155039987,-0.108705013806208
5.55,-0.0309617727852185,-0.110324118846756
5.56,-0.0379497591621367,-0.111631198314487
5.57,-0.0450535335397577,-0.112615605970578
5.58,-0.0522565378441218,-0.11326764149209
5.59,-0.0595413661948342,-0.113578631145371
5.6,-0.0668898411557848,-0.113541002714024
5.61,-0.0742830965871315,-0.113148354059578
5.62,-0.0817016665133086,-0.112395514744527
5.63,-0.0891255794008191,-0.111278600197409
5.64,-0.096534457208921,-0.10979505794915
5.65,-0.103907618483782,-0.107943705523253
5.66,-0.111224184807176,-0.105724759653425
5.67,-0.118463189802374,-0.103139856522223
5.68,-0.125603689942546,-0.100192062814209
5.69,-0.132621445610964,-0.0968756601740665
