"Freq [GHz]","re(S(Antenna1_1_1,Antenna1_1_1)) []","im(S(Antenna1_1_1,Antenna1_1_1)) []"
1,-0.798432667579023,-0.496044163231448
1.01,-0.818049223045011,-0.456447634550992
1.02,-0.836056092056872,-0.41459476853021
1.03,-0.852203753463361,-0.370418507908826
1.04,-0.86620812525369,-0.32386313608656
1.05,-0.877746305586587,-0.274889708063315
1.06,-0.886452237259783,-0.223483122159282
1.07,-0.891912561574389,-0.169661220472301
1.08,-0.893663079243734,-0.113486352474502
1.09,-0.891186444943643,-0.0550798582724954
1.1,-0.883912000288251,0.00536009947385004
1.11,-0.871219004951591,0.067537042181726
1.12,-0.852444952918727,0.131030968957158
1.13,-0.826901131630743,0.195269867427453
1.14,-0.793898024014683,0.25949916528716
1.15,-0.752783426973226,0.322751541284106
1.16,-0.703009481650125,0.38370131641093
1.17,-0.644251104925347,0.440812647349775
1.18,-0.576364907883603,0.492591252072436
1.19,-0.499548971730737,0.537127440313922
1.2,-0.414455821544737,0.572365475186185
1.21,-0.322286823731473,0.59622254254876
1.22,-0.224853196901225,0.606756452971303
1.23,-0.124578170514579,0.602372384022694
1.24,-0.0244175932937072,0.582044680509834
1.25,0.072312141825737,0.545516192277468
1.26,0.162189906362223,0.493430816626138
1.27,0.241996549843175,0.427360461325861
1.28,0.309020562315148,0.349707299425769
1.29,0.361305146809742,0.263491279984535
1.3,0.397791168211841,0.172061269421427
1.31,0.418336331673473,0.078785118052558
1.32,0.424181628405301,-0.013259689360048
1.33,0.41627671222233,-0.101552198362359
1.34,0.396171421751408,-0.1840237770174
1.35,0.365827250807733,-0.259192429755636
1.36,0.32725352069429,-0.326135973233229
1.37,0.282373126427816,-0.384413393190158
1.38,0.232934732850476,-0.433967537684455
1.39,0.180465744681554,-0.475026405287151
1.4,0.126256787913606,-0.508013945670438
1.41,0.0713679240831847,-0.533475764198424
1.42,0.0166480701757877,-0.552021129510332
1.43,-0.0372389439906441,-0.564280241931537
1.44,-0.0897862576946362,-0.570874512440072
1.45,-0.140616690786267,-0.572397227751367
1.46,-0.189457900366177,-0.569402089003537
1.47,-0.236120716195056,-0.562397457481266
1.48,-0.280480825323074,-0.551844561160161
1.49,-0.322463648530555,-0.538158322121759
1.5,-0.362032083707825,-0.521709816198936
1.51,-0.399176726305959,-0.502829659853872
1.52,-0.433908172654171,-0.481811837868491
1.53,-0.466251040370216,-0.458917647804765
1.54,-0.496239383416327,-0.434379554357262
1.55,-0.523913226956404,-0.408404829063292
1.56,-0.549315993193159,-0.381178907222698
1.57,-0.572492630763871,-0.352868431419451
1.58,-0.593488296136085,-0.323623975271589
1.59,-0.612347465411025,-0.29358245594061
1.6,-0.629113379700175,-0.262869252555924
1.61,-0.643827747199164,-0.23160005213548
1.62,-0.656530641144468,-0.199882446297278
1.63,-0.667173971382759,-0.167745205728615
1.64,-0.675770322587978,-0.135313910602885
1.65,-0.682439688571045,-0.102765682259073
1.66,-0.687224449821319,-0.0701916584827663
1.67,-0.690166934034391,-0.0376788213290737
1.68,-0.691309621584849,-0.00531048222761997
1.69,-0.690695354170387,0.0268333314191063
1.7,-0.688367538851597,0.0586755749312339
1.71,-0.684370341588135,0.0901419586132374
1.72,-0.678748865898812,0.121160783193935
1.73,-0.67154931341849,0.15166282922019
1.74,-0.662819124053093,0.181581292217818
1.75,-0.652607094212243,0.210851756344292
1.76,-0.64096347214389,0.239412200035583
1.77,-0.627940029899932,0.267203027869927
1.78,-0.613590111844827,0.294167123464895
1.79,-0.597968659926529,0.320249918772931
1.8,-0.581132216191837,0.345399475616556
1.81,-0.563138903238693,0.369566575730571
1.82,-0.544048383487321,0.392704815958957
1.83,-0.523921798296605,0.414770705605208
1.84,-0.50282168807277,0.435723763237104
1.85,-0.480811894636328,0.45552661053442
1.86,-0.45795744720413,0.474145061046603
1.87,-0.434324433413569,0.491548201963638
1.88,-0.409979856876449,0.50770846722368
1.89,-0.384991482837659,0.522601700529986
1.9,-0.359427673497033,0.536207207021779
1.91,-0.333357214637595,0.548507792584289
1.92,-0.306849135207432,0.559489789932934
1.93,-0.279972521500505,0.56914307082683
1.94,-0.252828782404461,0.577448206057759
1.95,-0.225557099494569,0.584394562341324
1.96,-0.198128084949502,0.590032715568512
1.97,-0.170604380319304,0.594367025669739
1.98,-0.14304771919351,0.59740457242915
1.99,-0.115518827383407,0.599155086202248
2,-0.0880773271120163,0.599630875029463
2.01,-0.0607816454418916,0.598846748520242
2.02,-0.033688927052779,0.596819938852665
2.03,-0.00685495151321695,0.593570019221558
2.04,0.0196659449208993,0.589118820105517
2.05,0.0458209429381287,0.583490343670242
2.06,0.0715588092320179,0.576710676651327
2.07,0.0968299610540163,0.568807902029047
2.08,0.121586526313735,0.559812009796775
2.09,0.145782399338878,0.549754807109326
2.1,0.169373292430049,0.538669828077849
2.11,0.192316783355054,0.526592243445786
2.12,0.214572358990986,0.51355877036628
2.13,0.236101455284166,0.499607582453549
2.14,0.25686749377305,0.484778220277697
2.15,0.276835914893305,0.469111502399272
2.16,0.295974208308318,0.452649437039109
2.17,0.314251940502067,0.43543513440531
2.18,0.331640779886833,0.41751271970014
2.19,0.348114519643165,0.398927246746246
2.2,0.363649098517086,0.379724612163564
2.21,0.378222619772482,0.359951469979304
2.22,0.391815368460343,0.339655146505435
2.23,0.404409827145025,0.318883555322886
2.24,0.415990690195755,0.297685112127272
2.25,0.42654487667566,0.276108649228294
2.26,0.436152367681711,0.254087678311778
2.27,0.444686962305229,0.231770147796679
2.28,0.452140051427427,0.209210118374543
2.29,0.458505940402353,0.186461965179987
2.3,0.463781877334153,0.163580200021435
2.31,0.467968068384442,0.140619289975072
2.32,0.471067679714542,0.117633473438568
2.33,0.473086825746429,0.0946765747857929
2.34,0.47403454353612,0.0718018187949931
2.35,0.473922753164548,0.049061646034761
2.36,0.472766204134003,0.0265075304238391
2.37,0.470582407899878,0.00418980014805866
2.38,0.467391556740834,-0.0178425368336632
2.39,0.46321642930039,-0.0395419615357552
2.4,0.45808228324087,-0.060862605769458
2.41,0.452016735537972,-0.0817604059168074
2.42,0.445049631064784,-0.102193247570829
2.43,0.437212900219091,-0.122121100018678
2.44,0.428540406419025,-0.141506139586432
2.45,0.419067784407528,-0.16031286096196
2.46,0.408832270395467,-0.178508175665345
2.47,0.397872525112306,-0.19606149696004
2.48,0.38622845096759,-0.212944810554139
2.49,0.373941004522809,-0.229132730581087
2.5,0.361052005577792,-0.244602540447084
2.51,0.347603944197143,-0.259334218241266
2.52,0.333639787022659,-0.273310446540447
2.53,0.319202784264117,-0.286516606560279
2.54,0.304336278758485,-0.298940756738531
2.55,0.28908351846522,-0.31057359595145
2.56,0.273487473783769,-0.32140841171817
2.57,0.25762985755809,-0.331376367794536
2.58,0.241541470421577,-0.34053068479278
2.59,0.225250232964722,-0.348897470477729
2.6,0.208793557755449,-0.356481676796944
2.61,0.192207531082349,-0.363289965512771
2.62,0.175526842218936,-0.369330553557959
2.63,0.158784728149629,-0.374613056487589
2.64,0.142012933636266,-0.379148331472726
2.65,0.125241686415331,-0.382948321298985
2.66,0.108499687131464,-0.38602590074041
2.67,0.0918141135320718,-0.38839472667077
2.68,0.0752106382906004,-0.390069093177244
2.69,0.0587134597482248,-0.391063792883547
2.7,0.0423453447199909,-0.391393985595371
2.71,0.0261276824636364,-0.391075075296085
2.72,0.0100805487752765,-0.390122596399272
2.73,-0.00577722085241423,-0.38855211008105
2.74,-0.0214279501720898,-0.386379111380339
2.75,-0.0368550344043069,-0.383618947641357
2.76,-0.0520428469910271,-0.380286748753989
2.77,-0.0669766421331123,-0.376397369513464
2.78,-0.0816424543827776,-0.371965344311528
2.79,-0.0960269965696107,-0.367004854222018
2.8,-0.110117557320799,-0.361529706442105
2.81,-0.123901899413988,-0.355553325925639
2.82,-0.137368160166609,-0.349088758915561
2.83,-0.150504755022946,-0.342148687984383
2.84,-0.163300285441902,-0.334745458088896
2.85,-0.17574345211228,-0.326891113034561
2.86,-0.187822974487186,-0.318597441678122
2.87,-0.199527517490825,-0.309876033077861
2.88,-0.210874734335793,-0.300733139305569
2.89,-0.221850189693493,-0.291171058032798
2.9,-0.232410455492099,-0.281204029741469
2.91,-0.242541700490412,-0.270844562229778
2.92,-0.252229969662055,-0.260105564683453
2.93,-0.261461193767622,-0.249000413388558
2.94,-0.270221206474546,-0.237543016721698
2.95,-0.278495768828387,-0.225747878774419
2.96,-0.286270600850885,-0.213630161027148
2.97,-0.293531419991103,-0.201205741500337
2.98,-0.300263986129128,-0.188491270898108
2.99,-0.306454152815681,-0.175504225254079
3,-0.312087924410493,-0.162262954682201
3.01,-0.31715151878525,-0.148786727846198
3.02,-0.321631435234658,-0.135095771799847
3.03,-0.325514527275088,-0.121211306914969
3.04,-0.328788079996369,-0.107155576599422
3.05,-0.331439891658777,-0.0929518715704207
3.06,-0.333458359246416,-0.0786245484311552
3.07,-0.334832567699454,-0.0641990423298375
3.08,-0.335552382585254,-0.04970187345843
3.09,-0.335608545958684,-0.0351606471515169
3.1,-0.334992775210035,-0.0206040473158752
3.11,-0.333697864676166,-0.00606182288920404
3.12,-0.331717789817799,0.00843523299696736
3.13,-0.329047813730711,0.0228553115492795
3.14,-0.325684595757716,0.0371656249608564
3.15,-0.321626301917611,0.0513324516758755
3.16,-0.316872716820377,0.0653211908223763
3.17,-0.311425356649927,0.0790964264200661
3.18,-0.305287582737069,0.0926220020278843
3.19,-0.298462966848968,0.105855317653804
3.2,-0.29095796878586,0.118746919042823
3.21,-0.282788970958421,0.131276454292716
3.22,-0.273967822058213,0.143406315248277
3.23,-0.264508706902347,0.155098696635559
3.24,-0.254428247653799,0.166315742637887
3.25,-0.243745598322849,0.177019709107702
3.26,-0.232482530608494,0.187173141797406
3.27,-0.220663508871476,0.19673907079074
3.28,-0.208315751867104,0.205681221060757
3.29,-0.195469278681402,0.213964238735624
3.3,-0.182156936187042,0.221553932293797
3.31,-0.168414405246414,0.228417527505334
3.32,-0.154280182887448,0.234523934441676
3.33,-0.139795537699438,0.239844024405442
3.34,-0.125004435878498,0.24435091409703
3.35,-0.109953435559724,0.248020253807415
3.36,-0.0946915474231179,0.250830515912779
3.37,-0.0792700600031443,0.252763279451503
3.38,-0.0637423287011975,0.253803506116813
3.39,-0.048163528134696,0.253939802651498
3.4,-0.0325903682170446,0.253164664346189
3.41,-0.0170807752008884,0.251474694203426
3.42,-0.00169353978804918,0.248870792320212
3.43,0.0135120646797436,0.245358310188561
3.44,0.0284766899741363,0.240947164936185
3.45,0.0431413418687648,0.235651909006609
3.46,0.0574478244824103,0.22949175144955
3.47,0.0713391937025581,0.22249052781817
3.48,0.0847602127063593,0.214676616615326
3.49,0.097657802206131,0.20608280134068
3.5,0.109981477767126,0.196746078356806
3.51,0.1216534132827,0.186727203161987
3.52,0.132662449280293,0.176058572179325
3.53,0.142969582921988,0.164787972895761
3.54,0.152539877303972,0.152965945887627
3.55,0.161342700041459,0.140645364762714
3.56,0.169351909839257,0.12788099104045
3.57,0.176545988039106,0.114729011473068
3.58,0.18290811336643,0.101246565687197
3.59,0.188426179355992,0.0874912721846556
3.6,0.193092755220193,0.0735207606646335
3.61,0.19690499215247,0.0593922183496161
3.62,0.199864478199228,0.0451619574918252
3.63,0.201977045837153,0.0308850105809679
3.64,0.203252537302532,0.0166147589217941
3.65,0.203704533386898,0.00240259934237094
3.66,0.203369400810142,-0.0116983491413478
3.67,0.20228288124844,-0.0256464585658199
3.68,0.200435467562374,-0.0394086603310762
3.69,0.197850598167874,-0.0529445989480224
3.7,0.194553657728693,-0.0662166408060464
3.71,0.190571657869382,-0.0791899199812506
3.72,0.185932928236081,-0.0918323456607548
3.73,0.180666822526969,-0.104114574293452
3.74,0.174803443412068,-0.116009950129172
3.75,0.168373389594202,-0.127494418150831
3.76,0.161407527500189,-0.138546413687374
3.77,0.153936789421552,-0.149146733122098
3.78,0.145991999168245,-0.159278390141172
3.79,0.137603725684416,-0.168926461869807
3.8,0.128802164433802,-0.178077929116817
3.81,0.119617045820638,-0.186721514672285
3.82,0.110035266030183,-0.194898100779716
3.83,0.100100094696896,-0.202555943442333
3.84,0.0898532441323971,-0.209667425470777
3.85,0.0793241606478435,-0.21622431629675
3.86,0.0685420657258615,-0.222219671959663
3.87,0.057535954649493,-0.227647771842911
3.88,0.0463346013178279,-0.232504066708114
3.89,0.0349665670042587,-0.23678513818206
3.9,0.023460210893994,-0.240488669532607
3.91,0.0118437003745854,-0.243613427241673
3.92,0.000145019224188193,-0.246159252652669
3.93,-0.0116080279634645,-0.248127062716693
3.94,-0.0233878165698103,-0.249518858678244
3.95,-0.0351669091763095,-0.250337741376344
3.96,-0.0469180702114232,-0.250587931739064
3.97,-0.0586142887599726,-0.250274794926617
3.98,-0.070228810030402,-0.249404866560797
3.99,-0.0817351757567817,-0.247985879448387
4,-0.0931072735414222,-0.24602678920981
4.01,-0.104319394969008,-0.24353779727027
4.02,-0.115346302081798,-0.240530369747475
4.03,-0.126163301613948,-0.23701725082948
4.04,-0.136746326225441,-0.233012469368756
4.05,-0.147072021790898,-0.228531337555211
4.06,-0.157117839685664,-0.223590440624402
4.07,-0.166862132857271,-0.218207616785489
4.08,-0.176284254419291,-0.212401926648806
4.09,-0.18536465738063,-0.206193611653331
4.1,-0.194084994103725,-0.19960404116128
4.11,-0.202428214038736,-0.192655648059661
4.12,-0.210378658266804,-0.185371852894729
4.13,-0.217868387494213,-0.177766933401064
4.14,-0.224881159870373,-0.169882665449388
4.15,-0.231461391375884,-0.161761139132618
4.16,-0.237603322458002,-0.153429160163633
4.17,-0.243303023059548,-0.144913511452935
4.18,-0.24855837990424,-0.13624081094437
4.19,-0.253369070896507,-0.12743737002598
4.2,-0.257736526586629,-0.11852905383622
4.21,-0.261663878830564,-0.109541144828526
4.22,-0.265155896909627,-0.100498210914719
4.23,-0.268218911523303,-0.0914239794782604
4.24,-0.270860727207607,-0.0823412185396074
4.25,-0.273090523877479,-0.0732716262395872
4.26,-0.274918748309551,-0.0642357297976978
4.27,-0.276356996508139,-0.0552527949444414
4.28,-0.277417888009401,-0.0463407467852632
4.29,-0.278114933270967,-0.0375161029165233
4.3,-0.278462395378373,-0.0287939194720354
4.31,-0.278475147391327,-0.020187750691292
4.32,-0.278168526682551,-0.0117096224264187
4.33,-0.277558187685673,-0.00337001987832834
4.34,-0.27665995449274,0.00482211030354288
4.35,-0.275489674749348,0.012859343563121
4.36,-0.274063076286046,0.0207357467904171
4.37,-0.272395627934677,0.0284468337907039
4.38,-0.270502405895932,0.035989507333603
4.39,-0.268397967020657,0.0433619883786565
4.4,-0.266096230270586,0.0505637332254479
4.41,-0.263610367558343,0.0575953394391194
4.42,-0.260952705084714,0.0644584415631557
4.43,-0.258134636148215,0.0711555977017132
4.44,-0.25518994160407,0.077694221383231
4.45,-0.25217264896063,0.0840982453802748
4.46,-0.249017413623203,0.0903667692567849
4.47,-0.245728530473076,0.0965039508190451
4.48,-0.242309237035286,0.102513852069459
4.49,-0.238761752918374,0.108400313548298
4.5,-0.235087332219963,0.114166834351289
4.51,-0.231286328201562,0.119816459107892
4.52,-0.227358269439394,0.125351673138483
4.53,-0.223301946527504,0.130774306893573
4.54,-0.219115508302607,0.136085450705173
4.55,-0.214796566456445,0.141285380754478
4.56,-0.210342307339889,0.146373497044202
4.57,-0.20574960965786,0.151348274041082
4.58,-0.201015166716941,0.156207224510375
4.59,-0.196135611836832,0.160946876930456
4.6,-0.191107645501133,0.165562766745031
4.61,-0.185928162816683,0.170049441532865
4.62,-0.180594379820074,0.174400480061388
4.63,-0.175103957238144,0.17860852503901
4.64,-0.169455120265836,0.182665329203474
4.65,-0.163646773027231,0.186561814308112
4.66,-0.157678606400974,0.190288142365385
4.67,-0.151551197987691,0.193833798418648
4.68,-0.145266103048258,0.197187683992641
4.69,-0.138825935368053,0.20033822022873
4.7,-0.13223443707347,0.20327345964854
4.71,-0.125496536568116,0.205981205369265
4.72,-0.118618393853176,0.208449136525192
4.73,-0.111607432650405,0.210664938582224
4.74,-0.10447235885124,0.212616437182204
4.75,-0.0972231649923675,0.214291734093232
4.76,-0.0897788163609999,0.215632133803132
4.77,-0.0822538306309092,0.216655863866435
4.78,-0.0746645481900721,0.217354151502319
4.79,-0.0670282722205176,0.217719365278523
4.8,-0.0593631650186724,0.217745114755603
4.81,-0.0516881344871902,0.21742633947327
4.82,-0.0440227119588958,0.216759386359818
4.83,-0.0363869225480895,0.215742074762953
4.84,-0.0288011493130607,0.214373748387532
4.85,-0.021285992588939,0.212655313631938
4.86,-0.0138621258698563,0.210589263864962
4.87,-0.0065501496753526,0.20817968940215
4.88,0.000629555165523101,0.205432273044676
4.89,0.00765697335683312,0.202354271172795
4.9,0.0145125986781999,0.198954480624921
4.91,0.0211775737984677,0.195243191567308
4.92,0.0276338250118466,0.191232126869198
4.93,0.0338641905527923,0.186934368531149
4.94,0.0398525412394369,0.182364271874036
4.95,0.0455838922788528,0.177537368310008
4.96,0.051044505121871,0.172470257643347
4.97,0.0562219784016087,0.167180490921873
4.98,0.0611053270162513,0.161686444993146
4.99,0.0656850487250403,0.156007189966895
5,0.0699531774067387,0.150162350869731
5.01,0.0739033226511883,0.14417196483433
5.02,0.0775306952618516,0.138056335207265
5.03,0.0808321183784675,0.131835883989761
5.04,0.0838060241761724,0.125531004037367
5.05,0.0864524361615688,0.119161912461322
5.06,0.0887729373123632,0.112748506638097
5.07,0.0907110326592195,0.10637207859429
5.08,0.0923255191244974,0.100023315322196
5.09,0.093646162039469,0.0936993228106476
5.1,0.0946819558024899,0.0874146749938932
5.11,0.0954427478404063,0.0811827811195241
5.12,0.0959391098152248,0.0750158271876231
5.13,0.0961822044583274,0.0689247308374992
5.14,0.0961836494040153,0.0629191101125504
5.15,0.0959553794168635,0.0570072662049652
5.16,0.095509508430801,0.0511961802761703
5.17,0.0948581927949722,0.0454915242541157
5.18,0.0940134971160844,0.0398976853407109
5.19,0.0929872640517097,0.0344178039909672
5.2,0.0917909893538822,0.0290538246886599
5.21,0.0904357034252979,0.0238065590596578
5.22,0.0889318605770087,0.0186757605004084
5.23,0.0872892370652813,0.013660209498499
5.24,0.0855168389549737,0.00875780869669434
5.25,0.0836228206933668,0.00396568663840683
5.26,0.0816144152278808,-0.000719690920781799
5.27,0.0794978763414951,-0.00530240334619406
5.28,0.0772784337219935,-0.00978695236291174
5.29,0.0749602613883696,-0.0141781355204127
5.3,0.0725464595148493,-0.0184809172230854
5.31,0.0700390500270421,-0.0227002987060516
5.32,0.0674389860017,-0.0268411883413026
5.33,0.0647461746114857,-0.0309082736521669
5.34,0.0619595136100009,-0.0349058964095279
5.35,0.0590769407991557,-0.0388379321270361
5.36,0.0560954961037308,-0.0427076752837594
5.37,0.0530113955837937,-0.0465177314862612
5.38,0.0498410806433758,-0.0503177542124647
5.39,0.0465652911206588,-0.0541140779316923
5.4,0.0431519195537554,-0.0578583732341116
5.41,0.0395942507711032,-0.0615467842353379
5.42,0.0358856196776161,-0.0651743130382066
5.43,0.0320195422510838,-0.0687348167306876
5.44,0.0279898466644314,-0.0722210178635894
5.45,0.0237908032203312,-0.0756245283960838
5.46,0.0194172517674024,-0.0789358868331625
5.47,0.0148647253326163,-0.0821446084349414
5.48,0.0101295686886067,-0.0852392478882497
5.49,0.00520905066242917,-0.0882074741092004
5.5,0.00010146901941979,-0.0910361563514411
5.51,-0.0051937531557629,-0.0937114609825796
5.52,-0.0106759806049204,-0.0962189580408614
5.53,-0.0163432894795228,-0.0985437366136055
5.54,-0.0221924022169987,-0.100670528031208
5.55,-0.0282186344402185,-0.102583835753756
5.56,-0.0344158544341367,-0.104268070780487
5.57,-0.0407764558817577,-0.105707691368978
5.58,-0.0472913440141218,-0.10688734577199
5.59,-0.0539499357208342,-0.107792016707371
5.6,-0.0607401734597847,-0.108407166222024
5.61,-0.0676485532981315,-0.108718879616578
5.62,-0.0746601667593086,-0.108714007101527
5.63,-0.0817587563138191,-0.108380301856409
5.64,-0.088926784225921,-0.10770655319615
5.65,-0.0961455141469818,-0.106682713597253
5.66,-0.103395104995376,-0.105300018347425
5.67,-0.110654716327374,-0.103551096693223
5.68,-0.117902624428546,-0.101430073391209
5.69,-0.125122401758964,-0.0989139717350665
