"Freq [GHz]","re(S(Antenna1_1_1,Antenna1_1_1)) []","im(S(Antenna1_1_1,Antenna1_1_1)) []"
3,-0.201013895040688,-0.173266521491134
3.0175,-0.210868376569741,-0.157558292726755
3.035,-0.219236162062863,-0.14102120437333
3.0525,-0.226014754408631,-0.123858111071867
3.07,-0.231162374179712,-0.106285313849846
3.0875,-0.234691996964539,-0.0885032776993975
3.105,-0.236651549571406,-0.0706777034482804
3.1225,-0.237099541205645,-0.0529358302142005
3.14,-0.236085646885347,-0.0353763581188488
3.1575,-0.233642247798914,-0.018086517141252
3.175,-0.22978762651353,-0.0011582976838469
3.1925,-0.224536862435983,0.0153021863492208
3.21,-0.217914318161561,0.0311741787681012
3.2275,-0.209963741484611,0.0463296892477196
3.245,-0.20074625594609,0.0606415058911154
3.2625,-0.190341057344507,0.0739849420422415
3.28,-0.178846300242205,0.0862455102560899
3.2975,-0.166375086513514,0.0973210669782963
3.315,-0.153054013475528,0.107124274205129
3.3325,-0.139021244203945,0.115586401395842
3.35,-0.124421923719019,0.122661854813788
3.3675,-0.109399866639595,0.12833079711576
3.385,-0.0940869787422418,0.132596588309311
3.4025,-0.0785944552036555,0.135476322137977
3.42,-0.0630107712516683,0.136986049349902
3.4375,-0.0474098192230426,0.137125863258506
3.455,-0.0318526355065906,0.13587684844203
3.4725,-0.016454939716526,0.133171729452117
3.49,-0.00137577517331298,0.128969712224956
3.5075,0.013187298341387,0.123270653086678
3.525,0.027022894932934,0.116137164618814
3.5425,0.0399414926789025,0.10769872297043
3.56,0.0518091647198998,0.098133203786811
3.5775,0.0625653121137931,0.0876302688834893
3.595,0.0722152559970108,0.0763493648391399
3.6125,0.0807980568652211,0.0643890124457511
3.63,0.0883404775303814,0.051781292989796
3.6475,0.0948151437940514,0.038516373047684
3.665,0.100121216847762,0.0245897345045373
3.6825,0.104098401307561,0.0100543585128646
3.7,0.106572231858726,-0.00494392548573375
3.7175,0.107415205638161,-0.0201649985181643
3.735,0.106600045338759,-0.0353116241589204
3.7525,0.104222168393411,-0.0500943550705811
3.77,0.100478846987143,-0.0643006945835631
3.7875,0.0956091515422832,-0.077840943123721
3.805,0.0898152693713708,-0.0907500649475161
3.8225,0.0831953578684024,-0.103140966200196
3.84,0.075716168172432,-0.115123998403861
3.8575,0.0672400304216075,-0.126722627707701
3.875,0.0575999749882044,-0.137819483230228
3.8925,0.0466374462407907,-0.148151401100782
3.91,0.0344872622035696,-0.157322773467081
3.9275,0.0214307875901918,-0.165062398937842
3.945,0.00785013900863398,-0.171262359601188
3.9625,-0.00588394819059327,-0.176008623906584
3.98,-0.0195220260169598,-0.179538774420568
3.9975,-0.0330000928898965,-0.182141677377648
4.015,-0.0464314593207635,-0.184037434357416
4.0325,-0.0600278164440587,-0.185284906365697
4.05,-0.073979289325451,-0.185754477262256
4.0675,-0.0883405342253367,-0.18517878929871
4.085,-0.102968985680323,-0.183263388532446
4.1025,-0.117541973784548,-0.179814638586081
4.12,-0.131648733443551,-0.174833889949212
4.1375,-0.144923163448417,-0.168538605819779
4.155,-0.157165595600467,-0.161298970066133
4.1725,-0.168404253915055,-0.153511928303037
4.19,-0.17886928506165,-0.145460537082468
4.2075,-0.188886127717105,-0.137214323705221
4.225,-0.198727531957807,-0.128612283805408
4.2425,-0.208481753375942,-0.119338898343528
4.26,-0.217990519148731,-0.109066852345606
4.2775,-0.226884938427021,-0.097612321450657
4.295,-0.234709776604342,-0.0850411617861181
4.3125,-0.241090849333425,-0.0716809534663706
4.33,-0.245825121456773,-0.0580824578620981
4.3475,-0.249194367871822,-0.044741420926946
4.365,-0.251609275123988,-0.031906262700835
4.3825,-0.253512831113959,-0.0195392249575986
4.4,-0.255205276829979,-0.00735503744682639
4.4175,-0.25672592759458,0.00504423258041252
4.435,-0.257837914003291,0.0179903315788194
4.4525,-0.258122187382378,0.0315954518703418
4.47,-0.257144743344516,0.0456843318746164
4.4875,-0.254632293631963,0.0598390119460523
4.505,-0.250587772772743,0.0735398195942628
4.5225,-0.245299817038278,0.0863485025655558
4.54,-0.239241167127769,0.0980623699296978
4.5575,-0.232894223612633,0.10877868674498
4.575,-0.226570984392405,0.118842725658654
4.5925,-0.220297869736589,0.128697901893075
4.61,-0.213811823771617,0.138695011801703
4.6275,-0.206671467624619,0.148934678393304
4.645,-0.19844216882074,0.159205661115152
4.6625,-0.188884067064423,0.169045598164786
4.68,-0.178069244986043,0.177903509664979
4.6975,-0.166380056367459,0.185343081380729
4.715,-0.154385777835961,0.191208169733119
4.7325,-0.142642200449239,0.195684497838598
4.75,-0.131490191623958,0.199230074535816
4.7675,-0.120961014631694,0.202505122417503
4.785,-0.110560168301325,0.205823040609199
4.8025,-0.0997994309160615,0.209191152513253
4.82,-0.0882914583099982,0.212304969846566
4.8375,-0.0759113093423232,0.214670032683398
4.855,-0.0628550047321341,0.21579273890337
4.8725,-0.0495757869878593,0.215366794168548
4.89,-0.0366250633505065,0.213385307318505
4.9075,-0.0244602074774634,0.210138099549771
4.925,-0.013292507947922,0.206097906080985
4.9425,-0.00303186712860192,0.201740999997106
4.96,0.00665285887170271,0.197371666996292
4.9775,0.0161831726117669,0.193017207782895
4.995,0.0258890767407032,0.188432198475419
5.0125,0.0358661455673187,0.183208527739314
5.03,0.0459257626014434,0.176947425632589
5.0475,0.0556564446187186,0.169426567594315
5.065,0.0645714238895305,0.160697982426156
5.0825,0.072284806007403,0.151079668466528
5.1,0.0786481054230772,0.141044975431376
5.1175,0.0837946543027098,0.131053141205817
5.135,0.0880751536168738,0.121386856587657
5.1525,0.0919097257841384,0.1120598176206
5.17,0.0956140912480413,0.102830078453622
5.1875,0.0992675486306909,0.093314061928915
5.205,0.102674396181096,0.0831570359341934
5.2225,0.105434382726069,0.072193743872623
5.24,0.107095503466874,0.0605362797694401
5.2575,0.107330205878922,0.0485540717113638
5.275,0.106066356006498,0.036752467267743
5.2925,0.103521098542399,0.0255959748228386
5.31,0.100122844705186,0.0153444140767625
5.3275,0.0963499761700904,0.00596627330809241
5.345,0.0925478074435006,-0.00283538962110431
5.3625,0.0887950066944052,-0.0114923450261631
5.38,0.084872895277257,-0.0203846981071549
5.3975,0.0803521722421717,-0.0296702023236789
5.415,0.0747662220760398,-0.0391966708713188
5.4325,0.0678056449066521,-0.0485341757126314
5.45,0.0594585802140975,-0.05711812303356
5.4675,0.0500402719185209,-0.0644509171221681
5.485,0.0400966245574059,-0.0702855595744329
5.5025,0.0302149250428081,-0.0747190924714718
5.52,0.0208120052201708,-0.0781563586242988
5.5375,0.0119812778966497,-0.0811534248975753
5.555,0.00346019530119297,-0.0841969088155906
5.5725,-0.00526460578263868,-0.0875022829051621
5.59,-0.0147497061505886,-0.0909100390274988
5.6075,-0.0253609498788458,-0.0939239227627835
5.625,-0.0371023965294906,-0.0958825057095684
5.6425,-0.0496035377191649,-0.0961080358378052
5.66,-0.0620329595382872,-0.094422783075015
5.6775,-0.0736799242354448,-0.0910804270269702
5.695,-0.0841085571991668,-0.0866766659392513
5.7125,-0.093304473812585,-0.0819227837293282
5.73,-0.101660458313393,-0.0773763597061665
5.7475,-0.109806578530685,-0.0732317160236428
5.765,-0.11834926048128,-0.069250171671587
5.7825,-0.127618676348842,-0.064857236671777
5.8,-0.137521072580245,-0.0593704545635537
5.8175,-0.147553251594271,-0.0522716348053269
5.835,-0.156975038901798,-0.0434196952784345
5.8525,-0.165059367285672,-0.0331168932619511
5.87,-0.171382673061607,-0.0220507336012958
5.8875,-0.176007369079759,-0.0110013583058577
5.905,-0.179398934424269,-0.000546454519869001
5.9225,-0.182244964959272,0.00913031412216283
5.94,-0.185180186699245,0.0182929624986231
5.9575,-0.188532231788135,0.0275348895554955
5.975,-0.192185263929464,0.0375333205271396
5.9925,-0.195614059087882,0.0487697323095322
6.01,-0.198076537781586,0.0613229008155361
6.0275,-0.198892355420434,0.0748142121750054
6.045,-0.197701859697305,0.0885274854749496
6.0625,-0.194606300381442,0.101659285269758
6.08,-0.190128025571903,0.113546556290265
6.0975,-0.185103513162982,0.124071646859446
6.115,-0.180206602144242,0.133572513097132
6.1325,-0.175751868751429,0.142700805047554
6.15,-0.171581732777903,0.152147144420084
6.1675,-0.16713709986756,0.162353720415508
6.185,-0.161683397485399,0.173324383127916
6.2025,-0.154604690860565,0.184604669820995
6.22,-0.145652853694544,0.195439038165564
6.2375,-0.135056171304971,0.205044817914478
6.255,-0.123445581274804,0.212897770552874
6.2725,-0.111626528394025,0.218919610318592
6.29,-0.100283603446393,0.223495139899095
6.3075,-0.0897312082192221,0.227311676504616
6.325,-0.0798064154734821,0.231081525098867
6.3425,-0.0699462875444626,0.235253486607119
6.36,-0.0594215071710717,0.239824418185502
6.3775,-0.0476379676884293,0.244324505639713
6.395,-0.0343909808019073,0.24798406208811
6.4125,-0.0199735677938458,0.250020157241125
6.43,-0.00509494523336131,0.249934645397341
6.4475,0.00936258628686252,0.247709249215371
6.465,0.0226578254363592,0.243821020717231
6.4825,0.0344567100268117,0.239068985548454
6.5,0.0449473268171205,0.23427483545797
6.5175,0.0547540348913447,0.230087034457987
6.535,0.0648279796198673,0.226382800075649
6.5525,0.0757664295634357,0.222572219632484
6.57,0.0876744075678657,0.217806930507072
6.5875,0.100109699138681,0.211323545892559
6.605,0.112240903532174,0.202750948447774
6.6225,0.12315503411066,0.192263473103499
6.64,0.132194467872403,0.180522527333502
6.6575,0.139192939873499,0.168431095394548
6.675,0.14452020024291,0.156797381429938
6.6925,0.148919251983536,0.146038209040534
6.71,0.153200133349199,0.136036815267185
6.7275,0.157909341406976,0.126209724434028
6.745,0.16310319555202,0.115756576946079
6.7625,0.16831328941562,0.103996121913046
6.78,0.172718104570829,0.0906581320003411
6.7975,0.175455235671977,0.0760176063581236
6.815,0.175954019961664,0.060818021358057
6.8325,0.174159711711557,0.0460115562569351
6.85,0.170561221900746,0.0324151378837786
6.8675,0.166009475537825,0.0204145695971576
6.885,0.1613941116731,0.00983185923056181
6.9025,0.15730170491506,9.28577712861595E-06
6.92,0.153787445678581,-0.00991909973072272
6.9375,0.150350426862258,-0.0206704779961899
6.955,0.146058329067998,-0.0326407957418639
6.9725,0.139960097360701,-0.0452419639077994
6.99,0.131642437736507,-0.0575694621690476
7.0075,0.121287877884633,-0.0686329544397592
7.025,0.10960481654543,-0.0777210301193887
7.0425,0.097558811130602,-0.0846507781357474
7.06,0.0860126536705828,-0.0898094929517299
7.0775,0.0754152009001783,-0.0939772513212541
7.095,0.065657359596651,-0.0980031210347621
7.1125,0.05614733608227,-0.102462402959357
7.13,0.0460722663268249,-0.107427325701849
7.1475,0.0347423203308918,-0.112437937546436
7.165,0.0218831661277337,-0.116681762580967
7.1825,0.00776422951671825,-0.119310378255845
7.2,-0.00688538441834792,-0.11976914537779
7.2175,-0.0211392187505925,-0.118012388315962
7.235,-0.034211525412273,-0.114521415772936
7.2525,-0.0457399536924388,-0.110119244740401
7.27,-0.0559036629226099,-0.105654284837741
7.2875,-0.0653313942318831,-0.101675566257624
7.305,-0.0748350610775851,-0.0982252202895022
7.3225,-0.0850716940692968,-0.0948287815545216
7.34,-0.0962643959904602,-0.0906878046835053
7.3575,-0.108090695278735,-0.0850013610534839
7.375,-0.119782779365691,-0.077292981613719
7.3925,-0.130290442815451,-0.0675467450373693
7.41,-0.138926129316008,-0.0565757629481417
7.4275,-0.145531227206705,-0.0452921121587112
7.445,-0.150477265663914,-0.0345025542520384
7.4625,-0.154495129999805,-0.0246254470718135
7.48,-0.15837555103013,-0.0155646856506189
7.4975,-0.1626580435108,-0.00678313049421086
7.515,-0.167426249643931,0.00245843110135439
7.5325,-0.172284083413676,0.012792178500471
7.55,-0.176516737556192,0.0244832357938653
7.5675,-0.179370617799144,0.0373162725940996
7.585,-0.180342893776036,0.0506683509942344
7.6025,-0.179370263421815,0.0637361594290334
7.62,-0.176847153432323,0.0758279333929684
7.6375,-0.17346971567273,0.086607645927123
7.655,-0.169968185584215,0.0961992954008802
7.6725,-0.166831484894419,0.105113865672435
7.69,-0.164129242732955,0.114029517706282
7.7075,-0.161497856650385,0.123510924313652
7.725,-0.158293978011303,0.133775688856708
7.7425,-0.153855097325458,0.144596650596157
7.76,-0.14776677313632,0.155376324058367
7.7775,-0.14003436514268,0.1653639651186
7.795,-0.131094137513793,0.173931746532165
7.8125,-0.121659984274927,0.180804525250717
7.83,-0.112551411111274,0.186133088865963
7.8475,-0.104159960532254,0.190594847006027
7.865,-0.0964622396855876,0.194859510724635
7.8825,-0.0890521196141992,0.199419254635444
7.9,-0.0813232641794017,0.204405018798855
7.9175,-0.0727199946221139,0.20954544611909
7.935,-0.062960608064375,0.21427873130766
7.9525,-0.0521507675276439,0.217970511649646
7.97,-0.0407481531505879,0.220153043314866
7.9875,-0.0293961320924344,0.220695657196871
8.005,-0.0186924423050776,0.219844794993778
8.0225,-0.00898119563209565,0.218122302743415
8.04,-0.000245382406013111,0.216123815168758
8.0575,0.00786244569097647,0.214295236181649
8.075,0.0158661317482733,0.212771561801799
8.0925,0.0242490254803037,0.211337052613622
8.11,0.0332569011809013,0.20951916290205
8.1275,0.042794241107892,0.206778437546264
8.145,0.0524511808867081,0.20272147749285
8.1625,0.0616489784048586,0.197256748529314
8.18,0.0698478309501772,0.190635639483407
8.1975,0.0767384374232435,0.183364836403198
8.215,0.0823458174565537,0.176024247515557
8.2325,0.0870074564085494,0.169059496366009
8.25,0.0912350483549471,0.162626732270215
8.2675,0.0955755431719083,0.156565233595146
8.285,0.100228038543555,0.150346636759993
8.3025,0.105067746201864,0.143484843355347
8.32,0.109693525150736,0.135664161209664
8.3375,0.113581742838965,0.126864274967823
8.355,0.116280489518097,0.117371916782424
8.3725,0.117571311963333,0.107679031962235
8.39,0.117540126001256,0.0983088119651664
8.4075,0.116534245505239,0.0896359883563704
8.425,0.115024979732329,0.0817677176461911
8.4425,0.113429292597665,0.0745270942270183
8.46,0.111957467836188,0.0675424183507063
8.4775,0.110542312931172,0.0604064254442534
8.495,0.108874036047667,0.0528449201399731
8.5125,0.106525522882368,0.04483227840453
8.53,0.103119876633145,0.0366122125175632
8.5475,0.0984775638917162,0.0286178579796183
8.565,0.0926891942914427,0.0213223245268316
8.5825,0.0860881965231067,0.0150758374531765
8.6,0.0791347847746797,0.00998963739283694
8.6175,0.0722549826975703,0.00590882085872953
8.635,0.0656944096584047,0.00248318994048297
8.6525,0.05944050107453,-0.000690816291497439
8.67,0.0532413163248958,-0.00390982132852933
8.6875,0.0467135632120384,-0.00724390827250854
8.705,0.0394415606529121,-0.0105193892544491
8.7225,0.0313021547413259,-0.0132561112849256
8.74,0.0224330591790789,-0.0150218099066887
8.7575,0.0131939754326664,-0.0155240602103342
8.775,0.00404444691805057,-0.0147087780213659
8.7925,-0.00460997943217276,-0.0127698425101215
8.81,-0.0125465872389039,-0.0100694016165641
8.8275,-0.0197834901367631,-0.00700064131008774
8.845,-0.0265479490452904,-0.00384459690515251
8.8625,-0.0331691235302935,-0.000673258555689923
8.88,-0.0399363532911272,0.00266692409225222
8.8975,-0.0469755577087601,0.00648700397307381
8.915,-0.0541886056956096,0.0111295940742152
8.9325,-0.0612767515541356,0.0168321512327452
8.95,-0.0678383098694515,0.023629708688301
8.9675,-0.0735038927357692,0.0313321691482142
8.985,-0.0780593405415053,0.0395836838040109
9.0025,-0.0815114952387429,0.0479816780328775
9.02,-0.0840731691967191,0.0562115524462842
9.0375,-0.0860732606500825,0.064147657916918
9.055,-0.0878252335615325,0.0718836477048415
9.0725,-0.089502303208233,0.0796811445662418
9.09,-0.091065238361898,0.0878554688653877
9.1075,-0.0922696040591051,0.0966402027693794
9.125,-0.0927503938786738,0.106080303882953
9.1425,-0.0921027692549128,0.116003631226099
9.16,-0.0901722260028468,0.125974085388105
9.1775,-0.0870207482876513,0.135578073770604
9.195,-0.0829095472689401,0.144505218615343
9.2125,-0.0782026997502015,0.152640106065958
9.23,-0.0732371627631763,0.160081629955527
9.2475,-0.0682067561128125,0.167084584710046
9.265,-0.0631017645385529,0.173946225597423
9.2825,-0.0577250436778936,0.180879954792149
9.3,-0.0517775628095129,0.187922295991192
9.3175,-0.0449812802759739,0.194906661799053
9.335,-0.0371940665745149,0.201512825708017
9.3525,-0.0284746853817347,0.207373429841061
9.37,-0.0190743026895978,0.212198235082999
9.3875,-0.00935788021717992,0.215870543228415
9.405,0.000315613897537258,0.218480501537601
9.4225,0.00971021810696805,0.220283090816962
9.44,0.0187842182936779,0.221596140541602
9.4575,0.0276892532069773,0.222675734311689
9.475,0.0366972453816101,0.223614854298461
9.4925,0.0460816229825444,0.224302906066339
9.51,0.055996343218718,0.224461727438833
9.5275,0.0663975201254488,0.223745714712574
9.545,0.0770373551860145,0.221869926265663
9.5625,0.0875338702437433,0.218719173274656
9.58,0.0974647870120333,0.214382015420294
9.5975,0.106570050509384,0.209203017994574
9.615,0.114807907555074,0.20356194515896
9.6325,0.122346955607077,0.197769103272939
9.65,0.129484893617425,0.19195721465437
9.6675,0.136519614952785,0.186040542749789
9.685,0.143620359904873,0.179756537458026
9.7025,0.150746784835443,0.172774876264805
9.72,0.157646354555979,0.164833803755365
9.7375,0.163931715402039,0.155853298315298
9.755,0.169210118893232,0.145982732144077
9.7725,0.173217394594965,0.135564516999205
9.79,0.17589433621343,0.125033793176466
9.8075,0.177440921998482,0.114779884042663
9.825,0.178220344632365,0.104973136468727
9.8425,0.178579530069536,0.095545904937668
9.86,0.178724633674064,0.0862419777764974
9.8775,0.178636740917346,0.0767374218590855
9.895,0.178074193601471,0.0667882607966126
9.9125,0.176661174332624,0.0563494389972895
9.93,0.174029879376733,0.0456199509565021
9.9475,0.169963273678925,0.0349963338032428
9.965,0.164484695919484,0.024950913899863
9.9825,0.157859918987584,0.0158796177379236
10,0.150509698586714,0.00797616507516487
