"Freq [GHz]","re(S(Antenna1_1_1,Antenna1_1_1)) []","im(S(Antenna1_1_1,Antenna1_1_1)) []"
3,-0.197629577125988,-0.171859457359434
3.0175,-0.207308988544741,-0.158448904976255
3.035,-0.216904625883963,-0.14386478498683
3.0525,-0.225836431071631,-0.127543238050896
3.07,-0.233222845988212,-0.109365347893446
3.0875,-0.238199930721439,-0.0897590452631975
3.105,-0.240241716951026,-0.0695942419427804
3.1225,-0.239360232183745,-0.0499087094290005
3.14,-0.236108015277247,-0.0315664744082188
3.1575,-0.231379724954814,-0.014977012204132
3.175,-0.22608521274123,1.79574343531007E-05
3.1925,-0.220815822342123,0.0140451330204207
3.21,-0.215629910101221,0.0279223227024012
3.2275,-0.210063221868111,0.0423193437480196
3.245,-0.20324547742589,0.0574651847857954
3.2625,-0.194277949735007,0.0729248038799415
3.28,-0.182674635414805,0.0877623178325899
3.2975,-0.168566210226634,0.100861712877196
3.315,-0.152699045398458,0.111324120866929
3.3325,-0.136199199978745,0.118792063436342
3.35,-0.120187485361919,0.123575143545918
3.3675,-0.105390010728695,0.12652528926416
3.385,-0.0918930306278418,0.128704210417211
3.4025,-0.0791389022545355,0.130965783935177
3.42,-0.0661702088682683,0.133611126529802
3.4375,-0.0520348214381426,0.136250071078706
3.455,-0.0360122560702906,0.13797401481243
3.4725,-0.018462376218226,0.137332867844217
3.49,-0.000441461321882981,0.133465692945356
3.5075,0.016651375229387,0.126257839421778
3.525,0.031581657490434,0.116399853112414
3.5425,0.0437219003474025,0.10513395883493
3.56,0.0532566211168998,0.093787956872111
3.5775,0.0610703095145331,0.0832787274682893
3.595,0.0683618791460108,0.0737794127903399
3.6125,0.0761356730610211,0.0646811939424511
3.63,0.0847679556402814,0.054866548854196
3.6475,0.0938199579027515,0.043189645117984
3.665,0.102174212468042,0.0289777170973373
3.6825,0.108445897145361,0.0123567188976646
3.7,0.111513028523226,-0.00572997604283375
3.7175,0.110960349620461,-0.0238238283117643
3.735,0.107261324527259,-0.0404637508747204
3.7525,0.101620662513811,-0.0547143730534811
3.77,0.095529771698443,-0.0665046201231631
3.7875,0.0902001684482832,-0.076639694369521
3.805,0.0860915387132708,-0.0864723875641161
3.8225,0.0827206599582024,-0.097351044952296
3.84,0.078834438932782,-0.110051301303861
3.8575,0.0728924426785075,-0.124411483955101
3.875,0.0636832561182044,-0.139320358362828
3.8925,0.0505094959137907,-0.152906799585682
3.91,0.0347096961190696,-0.163330568740081
3.9275,0.0180482210624918,-0.169901306553842
3.945,0.00232397963073399,-0.173050864772088
3.9625,-0.0112902007505933,-0.174125191105884
3.98,-0.0226529029179598,-0.174831427096568
3.9975,-0.0326534178429965,-0.176558712098648
4.015,-0.0428119838796635,-0.179835960173416
4.0325,-0.0546407353838587,-0.184133711224897
4.05,-0.069015085265451,-0.188082654151866
4.0675,-0.0857988735123367,-0.19002054527941
4.085,-0.103867160320523,-0.188653454971446
4.1025,-0.121516563404248,-0.183574250790081
4.12,-0.137103529525551,-0.175436964664212
4.1375,-0.149662947013417,-0.165718621543469
4.155,-0.159266595223467,-0.156159368696933
4.1725,-0.166980466349455,-0.148096487463037
4.19,-0.17443418436715,-0.141950291072468
4.2075,-0.183165863414105,-0.137063392274321
4.225,-0.193994330975807,-0.131960327855208
4.2425,-0.206663271308942,-0.124932850810528
4.26,-0.219900349207131,-0.114728919370606
4.2775,-0.231876435266521,-0.101079628198657
4.295,-0.240895281618342,-0.0848559389822181
4.3125,-0.246051594027425,-0.0677856309402706
4.33,-0.247459944188773,-0.0521299772830981
4.3475,-0.247008247497822,-0.039101301033946
4.365,-0.246588555784288,-0.028740642464835
4.3825,-0.247697945340959,-0.0199850280605986
4.4,-0.250876372354979,-0.0111221200328264
4.4175,-0.25552153163158,-0.000480863603587476
4.435,-0.260143077528171,0.0129078327678194
4.4525,-0.262951823924378,0.0289301738333418
4.47,-0.262554803675516,0.0464283408392164
4.4875,-0.258490423041963,0.0636383700035523
4.505,-0.251401935222743,0.0788554438152628
4.5225,-0.242786834474628,0.0910706594685558
4.54,-0.234421346751769,0.100336518398698
4.5575,-0.227681953715633,0.10772325566968
4.575,-0.223023860891405,0.114884531647254
4.5925,-0.219815653174589,0.123399682859075
4.61,-0.216593341805117,0.134144600725703
4.6275,-0.211637126730619,0.146932466503304
4.645,-0.20365089123274,0.160563162384552
4.6625,-0.192284357518423,0.173264804091386
4.68,-0.178296348574143,0.183361096080979
4.6975,-0.163293025414459,0.189910746559729
4.715,-0.149136542683961,0.193073443572119
4.7325,-0.137246382193239,0.194058478880698
4.75,-0.128059416183958,0.194669443165816
4.7675,-0.120841586845794,0.196982230582503
4.785,-0.113592764174125,0.201415888193199
4.8025,-0.104681371834062,0.207448982302253
4.82,-0.0931160835869982,0.213710902320066
4.8375,-0.0788999295463232,0.218521558644398
4.855,-0.0630044132016341,0.22052297185937
4.8725,-0.0469882299007593,0.219167358567548
4.89,-0.0324145627095065,0.214887758407505
4.9075,-0.0202893475094634,0.208900249478571
4.925,-0.010727325902922,0.202724305280985
4.9425,-0.00296154843470192,0.197608960184106
4.96,0.00431890809200271,0.194081142263292
4.9775,0.0124395033237669,0.191780397740895
4.995,0.0222227279427032,0.189632817402809
5.0125,0.0336758963543187,0.186289086736314
5.03,0.0459957023658434,0.180655007593589
5.0475,0.0578796408657186,0.172312634829315
5.065,0.0680196010895305,0.161676013987156
5.0825,0.075587298109403,0.149828664640658
5.1,0.0805282018440772,0.138110790406376
5.1175,0.0835562625544098,0.127617246221817
5.135,0.0858565340247738,0.118798233821657
5.1525,0.0886131406531384,0.1113129185708
5.17,0.0925445984400413,0.104188365827122
5.1875,0.0976236115726909,0.096219811566915
5.205,0.103086721730696,0.0864572687901934
5.2225,0.107728206495669,0.074591846389623
5.24,0.110364510991874,0.06109438351634
5.2575,0.110290996615922,0.0470538721662638
5.275,0.107556053074498,0.033777624472743
5.2925,0.102947239829099,0.0223059687958386
5.31,0.0976937447441865,0.0130271444197625
5.3275,0.0929976799580904,0.00554053861769241
5.345,0.0895726665065006,-0.00117751314870431
5.3625,0.0873666964534052,-0.00836618374216313
5.38,0.085577579632857,-0.0169844730111549
5.3975,0.0829588636271717,-0.0273162893396789
5.415,0.0783033320860398,-0.0388291594265188
5.4325,0.0709218959456521,-0.0503449549874314
5.45,0.0609345513000975,-0.06046311307956
5.4675,0.0492584079838609,-0.0680796916691681
5.485,0.0372908135104059,-0.0728061975374329
5.5025,0.0264013923488082,-0.0751262195233718
5.52,0.0174218035141708,-0.0762239016409988
5.5375,0.0103272114336497,-0.0775411831765753
5.555,0.00423555468779297,-0.0802248101605906
5.5725,-0.00226629911263868,-0.0846698830681621
5.59,-0.0105836463265886,-0.0903357055423988
5.6075,-0.0215598012338458,-0.0959118216094834
5.625,-0.0351155840854906,-0.0997824541355684
5.6425,-0.0502727755449649,-0.100392580079805
5.66,-0.0650611190762872,-0.097477158659015
5.6775,-0.0778933329834448,-0.0917759315375702
5.695,-0.0879072958661668,-0.0847830101452513
5.7125,-0.095263877746585,-0.0781814335603282
5.73,-0.101059683250193,-0.0732126830431664
5.7475,-0.106890033404685,-0.0702168333566428
5.765,-0.11422736645828,-0.068514062251887
5.7825,-0.123848099454842,-0.066670359550777
5.8,-0.135522102904245,-0.0630470817825537
5.8175,-0.148080641515271,-0.0564285071873269
5.835,-0.159837521282798,-0.0464926772044345
5.8525,-0.169171310370672,-0.033934602304051
5.87,-0.175173412847607,-0.0203152488992958
5.8875,-0.178054986244759,-0.00739111201985771
5.905,-0.178947144582369,0.003565296783131
5.9225,-0.179478638825272,0.0121930086741628
5.94,-0.181149730974245,0.0191574702491231
5.9575,-0.184757667313136,0.0258794493114955
5.975,-0.190088246903464,0.0339805366771396
5.9925,-0.195988324271982,0.0446530241625322
6.01,-0.200792062517586,0.0581898025545361
6.0275,-0.202941989737434,0.0738502956714054
6.045,-0.201573146249305,0.0901134756369496
6.0625,-0.196841778294442,0.105224922646758
6.08,-0.189840312706103,0.117697983833265
6.0975,-0.182453624647982,0.127226664649446
6.115,-0.176241441275242,0.134553962093332
6.1325,-0.171996610872429,0.141170326144554
6.15,-0.169460556448903,0.148719206536084
6.1675,-0.16743982187446,0.158352453415508
6.185,-0.164275516450399,0.170278248504916
6.2025,-0.158485904866565,0.183669763947095
6.22,-0.149339074677544,0.196966234267564
6.2375,-0.137140496083971,0.208450851000478
6.255,-0.123128348871704,0.216886703656874
6.2725,-0.109017054029025,0.221971042077592
6.29,-0.0963613987223929,0.224436864817975
6.3075,-0.0859808808382221,0.225763377607616
6.325,-0.0776614760957821,0.227603728009867
6.3425,-0.0702483279804626,0.231144870673119
6.36,-0.0620964453000717,0.236640732257502
6.3775,-0.0517118391994293,0.243296025890143
6.395,-0.0383428758079073,0.24954756791111
6.4125,-0.0222983494775458,0.253641080453125
6.43,-0.00486921722436131,0.254289581873341
6.4475,0.0121217148418625,0.251166528658371
6.465,0.0269780664913592,0.245045826321831
6.4825,0.0387519049118117,0.237530629141454
6.5,0.0475953040580205,0.23046597959697
6.5175,0.0546420668693447,0.225513187805987
6.535,0.0620680790308673,0.222804299738649
6.5525,0.0714710861044357,0.221332796984384
6.57,0.0835171000028657,0.219335575698072
6.5875,0.0976828628273813,0.214988528638559
6.605,0.112454379065174,0.207114825854774
6.6225,0.12589946230566,0.195638140409499
6.64,0.136392694511403,0.181612891016602
6.6575,0.143216579050499,0.166825033137547
6.675,0.14681235009361,0.153118946936938
6.6925,0.148588190712536,0.141707951334534
6.71,0.150360482897199,0.132730294599185
6.7275,0.153642039358976,0.125218245358528
6.745,0.15904838223502,0.117491027418079
6.7625,0.16604797051012,0.107821902350046
6.78,0.173152056441829,0.0951259003013411
6.7975,0.178473534967977,0.0794064182861236
6.815,0.180444147010664,0.061789292261157
6.8325,0.178418310824557,0.0441282668609351
6.85,0.172932885866156,0.0283279570587786
6.8675,0.165520423717825,0.0156385859461576
6.885,0.1581413595571,0.00619004969256181
6.9025,0.15244546840806,-0.00105451171077138
6.92,0.149140215518581,-0.00790163010672272
6.9375,0.147707326651758,-0.0162300606871899
6.955,0.146532274575998,-0.0275818884878639
6.9725,0.143275778507701,-0.0414960437338994
6.99,0.136461536300507,-0.0565203334735476
7.0075,0.125737420004633,-0.0706105735937592
7.025,0.11199417234353,-0.0819005279973887
7.0425,0.097014415189602,-0.0893866415847474
7.06,0.0827945973065828,-0.0932726545616299
7.0775,0.0708017777021783,-0.0948519519339541
7.095,0.061446332560651,-0.0959811556647621
7.1125,0.05396552409277,-0.0983508911053569
7.13,0.0467552606658249,-0.102832503432849
7.1475,0.0380181719188918,-0.109146851391236
7.165,0.0264786233397337,-0.115976823626967
7.1825,0.0118927515347183,-0.121476542408845
7.2,-0.00483857893674792,-0.12398088055079
7.2175,-0.0219946144455925,-0.122644621345962
7.235,-0.037672338055273,-0.117768594355576
7.2525,-0.0504939764884388,-0.110689330704401
7.27,-0.0601154035946099,-0.103274129747741
7.2875,-0.0673417325015831,-0.0972127927436238
7.305,-0.0738046839685851,-0.0933746527895022
7.3225,-0.0813220431072968,-0.0914758477232216
7.34,-0.0911805359594602,-0.0901857135225053
7.3575,-0.103614209136335,-0.0876359223934839
7.375,-0.117678878362491,-0.082143279874719
7.3925,-0.131417060812451,-0.0726236229533693
7.41,-0.142762270100008,-0.0599673062550417
7.4275,-0.150555593941705,-0.0457694771837112
7.445,-0.154760890930914,-0.0319624404550383
7.4625,-0.156433157899005,-0.0201034782568135
7.48,-0.15728335993913,-0.0108229264586189
7.4975,-0.1590118613208,-0.00363293955751086
7.515,-0.162663972375931,0.00284104574635439
7.5325,-0.168247049262176,0.010302251002471
7.55,-0.174746303729192,0.0201131657658653
7.5675,-0.180525496322144,0.0327671664880996
7.585,-0.183955649599036,0.0476963388472344
7.6025,-0.184032546737815,0.0634820979180334
7.62,-0.180751574791423,0.0783838672849684
7.6375,-0.17510222994983,0.090983384418123
7.655,-0.168688445834215,0.10070132912188
7.6725,-0.163120891422419,0.107993194689535
7.69,-0.159411581489955,0.114153071020282
7.7075,-0.157598750784485,0.120801439624652
7.725,-0.156742467753473,0.129251207828708
7.7425,-0.155291912626458,0.139991267162157
7.76,-0.15168574986132,0.152482386080267
7.7775,-0.14495949836668,0.1653430257626
7.795,-0.135130763591233,0.176856415084165
7.8125,-0.123215800809527,0.185609371567717
7.83,-0.111010249326274,0.190865410676163
7.8475,-0.100185619210254,0.193476325516927
7.865,-0.0916156520005875,0.194850131008635
7.8825,-0.0851868848265492,0.196590583248444
7.9,-0.0798837885135017,0.199890602380855
7.9175,-0.0742057508501139,0.20509437295519
7.935,-0.0667539793163749,0.21158568121896
7.9525,-0.0567674965226439,0.218036414023646
7.97,-0.0444108218289179,0.222915667825866
7.9875,-0.0307114580085344,0.225065676332871
8.005,-0.0171765673490776,0.224129582981878
8.0225,-0.00523643112809565,0.220674470856015
8.04,0.00427578146898689,0.215968297498758
8.0575,0.0114147075845765,0.211498259077649
8.075,0.0170782163733733,0.208413013063799
8.0925,0.0226474548763037,0.207097565763222
8.11,0.0294484445619013,0.20703847479015
8.1275,0.038237530216892,0.207027898422264
8.145,0.0489029552270081,0.20562865787285
8.1625,0.0604935868021586,0.201725629440314
8.18,0.0715637001931772,0.194957078893907
8.1975,0.0807050135882435,0.185864475676898
8.215,0.0870673383135537,0.175704113719557
8.2325,0.0906730433272494,0.165989741997009
8.25,0.0924066534143471,0.157935856909215
8.2675,0.0937833367909083,0.152154993964846
8.285,0.0962366560865549,0.147880420332593
8.3025,0.100452969661864,0.143847493579347
8.32,0.106228760531936,0.138647125437664
8.3375,0.112563696246165,0.131268773357823
8.355,0.118048141449097,0.121483004367524
8.3725,0.121395269819333,0.109925569173635
8.39,0.121917660629356,0.0978578822741664
8.4075,0.119772584304339,0.0866988211263704
8.425,0.115888813672429,0.0775056819761911
8.4425,0.111607123160665,0.0705981282493183
8.46,0.108172324412188,0.0654631800071063
8.4775,0.106268035216072,0.0609732402482534
8.495,0.105767391498367,0.055832515546973
8.5125,0.105791000266068,0.04908306944353
8.53,0.105048413608145,0.0404808639340632
8.5475,0.102333994885716,0.0306016958780183
8.565,0.0969911085436427,0.0206381602698315
8.5825,0.0891708814387067,0.0119640103321765
8.6,0.0797885499312797,0.00562889548083694
8.6175,0.0701931008885703,0.00197248844032953
8.635,0.0616728389744047,0.000502886192782969
8.6525,0.05498112462383,8.61607415025608E-05
8.67,0.0500599519726958,-0.000621820293529333
8.6875,0.0460664743632384,-0.00266094290850854
8.705,0.0415797782909121,-0.00651675700424908
8.7225,0.0353153329913259,-0.0113246370369256
8.74,0.0267352869884789,-0.0158211092776887
8.7575,0.0161411388007664,-0.0186608377403342
8.775,0.00455531908695057,-0.0189163087823659
8.7925,-0.00666122367017276,-0.0164105813664215
8.81,-0.0163075764189039,-0.0117641691200641
8.8275,-0.0237702525459631,-0.00614527582808774
8.845,-0.0292224050780904,-0.000822416054152509
8.8625,-0.0335253635907935,0.00331039044031008
8.88,-0.0378745466471272,0.00605857588295222
8.8975,-0.0433259595117601,0.00798335962057381
8.915,-0.0503818602176096,0.0101722230652152
8.9325,-0.0587898742779356,0.0138128368487452
8.95,-0.0676286540301515,0.019731950517301
8.9675,-0.0756457072237691,0.0280723176709142
8.985,-0.0817192194405053,0.0382279496498109
9.0025,-0.0852701466354429,0.0490608860418775
9.02,-0.0864701122927191,0.0593174463382842
9.0375,-0.0861672782438825,0.068087578265918
9.055,-0.0855578078155325,0.0751348876063415
9.0725,-0.085725689748233,0.0809730722604418
9.09,-0.087223277282198,0.0866589500143877
9.1075,-0.0898504693195051,0.0933781196043794
9.125,-0.0927171736356738,0.101977324786953
9.1425,-0.0944362794669128,0.112729438272399
9.16,-0.0939109965458469,0.124719828042705
9.1775,-0.0907139848601513,0.136740148290604
9.195,-0.0851724632301001,0.147564396497343
9.2125,-0.0782300620626015,0.156383775297958
9.23,-0.0710864439521763,0.163076921977427
9.2475,-0.0647524597528125,0.168220215279946
9.265,-0.0596864977382529,0.172840289930423
9.2825,-0.0556444140061836,0.178005506620149
9.3,-0.0517943246362129,0.184410481095192
9.3175,-0.0470490793559739,0.192107594325653
9.335,-0.0404897156485149,0.200482710337117
9.3525,-0.0317214347632347,0.208480735492061
9.37,-0.0210306268311678,0.214994212044999
9.3875,-0.00928657576577992,0.219268772723415
9.405,0.00237340588553726,0.221174431026401
9.4225,0.0129566725809681,0.221242613613062
9.44,0.0219714723712779,0.220456381537602
9.4575,0.0295940753123773,0.219872980796689
9.475,0.0365848101392102,0.220219921471461
9.4925,0.0439844191185444,0.221615446174339
9.51,0.052703836635718,0.223518057319933
9.5275,0.0631603669806488,0.224924792451574
9.545,0.0750965382623445,0.224745476456663
9.5625,0.0876506706031433,0.222214329522656
9.58,0.0995958086020333,0.217112821314794
9.5975,0.109872681209384,0.210148290122874
9.615,0.118011401371774,0.20239009603196
9.6325,0.124235643815987,0.194952294757939
9.65,0.129354121610425,0.18858368394937
9.6675,0.134435174724785,0.183398826858989
9.685,0.140387049329873,0.178848910258326
9.7025,0.147600532092443,0.173941887441805
9.72,0.155786730167609,0.167628994975365
9.7375,0.164070030396639,0.159213360734298
9.755,0.171301561720232,0.148628482057777
9.7725,0.176476706838965,0.136482639191305
9.79,0.17906181992323,0.123857470225466
9.8075,0.179282428200082,0.111979393904663
9.825,0.178047447336465,0.101647850393727
9.8425,0.176481981652536,0.092981452252268
9.86,0.175527256229064,0.0854199026987974
9.8775,0.175579165904746,0.0779648404390855
9.895,0.176336439515801,0.0695855033386126
9.9125,0.176914595592624,0.0596359902932895
9.93,0.176182292089733,0.0481271329431021
9.9475,0.173193559819925,0.0357506628971428
9.965,0.167553524322684,0.023646063493863
9.9825,0.159579832090884,0.0129968131479236
10,0.150198018689714,0.00460692407016487
