"Freq [GHz]","re(S(Antenna1_1_1,Antenna1_1_1)) []","im(S(Antenna1_1_1,Antenna1_1_1)) []"
3,-0.200465680492188,-0.172672462585834
3.0175,-0.210070667565641,-0.157408220038655
3.035,-0.218502596683663,-0.14137863167263
3.0525,-0.225636732836371,-0.124587217892196
3.07,-0.231294582959912,-0.107102185940346
3.0875,-0.235290096068639,-0.0890854845450975
3.105,-0.237486802341126,-0.0707902539414804
3.1225,-0.237845655621245,-0.0525247432156005
3.14,-0.236445075707347,-0.0345930103987188
3.1575,-0.233463451932514,-0.017232220023032
3.175,-0.22912755106583,-0.000569284658746899
3.1925,-0.223643315648623,0.0153857582623207
3.21,-0.217133494079621,0.0307046197536012
3.2275,-0.209612165848511,0.0454762545354196
3.245,-0.20097886595439,0.0597375919893954
3.2625,-0.191077729379207,0.0733930561633415
3.28,-0.179803600674805,0.0862116200016899
3.2975,-0.167174395990734,0.0978742669140963
3.315,-0.153369631977658,0.108059982625929
3.3325,-0.138711088379945,0.116541489295342
3.35,-0.123589027965919,0.123254297553718
3.3675,-0.108358804642695,0.12831056413176
3.385,-0.0932458934059418,0.131948800052511
3.4025,-0.0782966588172355,0.134434857721177
3.42,-0.0633968636695683,0.135949656581802
3.4375,-0.0483549811261426,0.136506674245606
3.455,-0.0329736265402905,0.13596332368003
3.4725,-0.017287120649226,0.133922879298217
3.49,-0.00157528450888298,0.130071901467356
3.5075,0.013703601560587,0.124266204645778
3.525,0.028043266354434,0.116611289128214
3.5425,0.0410448108534025,0.10744947885843
3.56,0.0525360466778998,0.097255800710111
3.5775,0.0626062187541431,0.0864810770832893
3.595,0.0715396237303108,0.0754030935963399
3.6125,0.0796714675870211,0.0640456402025511
3.63,0.0872213076602814,0.052200258890896
3.6475,0.0941705558822514,0.039545690516984
3.665,0.100235527419842,0.0258205833003373
3.6825,0.104951322113361,0.0109817353256646
3.7,0.107837972916226,-0.00471705592783375
3.7175,0.108585937787461,-0.0207615798984643
3.735,0.107187252204859,-0.0365206841287204
3.7525,0.103956834117211,-0.0514448379584811
3.77,0.099429621728443,-0.0652433814441631
3.7875,0.0941681091482832,-0.077968717902921
3.805,0.0885523596532708,-0.0899691809031161
3.8225,0.0826352806549024,-0.101722675742296
3.84,0.076124288166482,-0.113611305371861
3.8575,0.0685034547235075,-0.125723869934101
3.875,0.0592551650832044,-0.137766750309128
3.8925,0.0479587780847907,-0.149098578252682
3.91,0.0349506522840696,-0.158852620479081
3.9275,0.0208740202865918,-0.166534872373842
3.945,0.00652860407273398,-0.172077901717088
3.9625,-0.00741019807259327,-0.175849109013804
3.98,-0.0206213215879598,-0.178490317940568
3.9975,-0.0332267757649965,-0.180652283704648
4.015,-0.0457042841685635,-0.182729123318416
4.0325,-0.0586584430608587,-0.184697881419897
4.05,-0.072541073016451,-0.186127220250266
4.0675,-0.0874320178603367,-0.18635255640841
4.085,-0.102968429513023,-0.184748921251446
4.1025,-0.118452371683248,-0.180993403882081
4.12,-0.133095997580551,-0.175212020336212
4.1375,-0.146308308338417,-0.167950509800169
4.155,-0.157909563212467,-0.159977767145933
4.1725,-0.168186371210455,-0.151997390458037
4.19,-0.17776236918415,-0.144380750981468
4.2075,-0.187332315905105,-0.137028631945621
4.225,-0.197362800457806,-0.129419560697108
4.2425,-0.207878377570942,-0.120829982860528
4.26,-0.218420827511531,-0.110642716452606
4.2775,-0.228202658882521,-0.098622885119657
4.295,-0.236399375046342,-0.0850501725709181
4.3125,-0.242468358280425,-0.0706500965782706
4.33,-0.246286886192773,-0.0564658222660981
4.3475,-0.248595231992622,-0.043209689321946
4.365,-0.250232627162288,-0.031069849065835
4.3825,-0.251942344832959,-0.0197076597936986
4.4,-0.254081725928979,-0.00842382672382639
4.4175,-0.25648895585558,0.00353836492541252
4.435,-0.258555765798771,0.0166726504258194
4.4525,-0.259474790135378,0.0309970878063418
4.47,-0.258562977727516,0.0460305565518164
4.4875,-0.255534045392963,0.0609655402065523
4.505,-0.250614042806743,0.0749678854822628
4.5225,-0.244456071660228,0.0874853888365558
4.54,-0.237888773606769,0.0984444482876978
4.5575,-0.231597843564633,0.10825833780938
4.575,-0.225865569714405,0.117644491366254
4.5925,-0.220470429457189,0.127322781862075
4.61,-0.214786130387117,0.137713212417703
4.6275,-0.208041544276619,0.148751732517304
4.645,-0.19963999474974,0.159896950140752
4.6625,-0.189412789811423,0.170326123494386
4.68,-0.177706973891543,0.179244798083979
4.6975,-0.165271438280459,0.186189540221729
4.715,-0.152984049549961,0.191204972319119
4.7325,-0.141524948293239,0.194824326422198
4.75,-0.131123285705958,0.197858697387816
4.7675,-0.121467712724994,0.201238231588503
4.785,-0.111680379982125,0.205140721926199
4.8025,-0.101054572966062,0.209313979035253
4.82,-0.0891841848919982,0.213125998631766
4.8375,-0.0761199048143232,0.215818031313398
4.855,-0.0623472960574341,0.21679427489537
4.8725,-0.0486029401137593,0.215838211053548
4.89,-0.0356046793965065,0.213177780815505
4.9075,-0.0238009514884634,0.209381533073171
4.925,-0.013232661074922,0.205132081847985
4.9425,-0.00355487969410192,0.200967463791106
4.96,0.00579647028000271,0.197089456868292
4.9775,0.0153619616507669,0.193308758690095
4.995,0.0254351662077032,0.189142477052909
5.0125,0.0359426597003187,0.184021078224314
5.03,0.0464695425072934,0.177521912735589
5.0475,0.0564156848557186,0.169539205519315
5.065,0.0652186009355305,0.160327617992656
5.0825,0.072555502255403,0.150406750432858
5.1,0.0784477419870772,0.140367470754376
5.1175,0.0832304791635098,0.130657299495817
5.135,0.0874030687107738,0.121427916241657
5.1525,0.0914210055011384,0.1125017931985
5.17,0.0955111375010413,0.103467774594122
5.1875,0.0995809587996909,0.093865632767915
5.205,0.103255016299796,0.0833863095721935
5.2225,0.106021849006669,0.072010050781623
5.24,0.107432638616874,0.06003006707084
5.2575,0.107273884299922,0.0479543864375638
5.275,0.105647696983598,0.036325610287743
5.2925,0.102929892727799,0.0255293192858386
5.31,0.0996235431551865,0.0156652883947625
5.3275,0.0961656897810904,0.00653057761479241
5.345,0.0927623388175007,-0.00228003980970431
5.3625,0.0893152597466052,-0.0111960605491631
5.38,0.085468284272557,-0.0204849178761549
5.3975,0.0807546805861717,-0.0301293326276789
5.415,0.0747884602430398,-0.0398154977217888
5.4325,0.0674258614426521,-0.0490365252104314
5.45,0.0588349055490975,-0.05727140504056
5.4675,0.0494462219839609,-0.0641709084571681
5.485,0.0398037271524059,-0.0696792825774329
5.5025,0.0303719437888081,-0.0740450805129058
5.52,0.0213733036061708,-0.0777166548559988
5.5375,0.0127174924572497,-0.0811616818005753
5.555,0.00405011258559297,-0.0846790024525906
5.5725,-0.00509717377863868,-0.0882741833771621
5.59,-0.0151112814335886,-0.0916463741410988
5.6075,-0.0261306798318457,-0.0942922603464835
5.625,-0.0379699589997906,-0.0956888667635684
5.6425,-0.0501639990562649,-0.0954136670598052
5.66,-0.0620393851312872,-0.093525197500015
5.6775,-0.0731220197134448,-0.0903681710301602
5.695,-0.0832199239691668,-0.0864637985402513
5.7125,-0.092466099691785,-0.0823129430603282
5.73,-0.101239861422593,-0.0782143219451664
5.7475,-0.109999629833685,-0.0741643874786428
5.765,-0.11909170691428,-0.069873298496567
5.7825,-0.128606364691842,-0.064887599849777
5.8,-0.138333003282545,-0.0587712759885537
5.8175,-0.147828198793471,-0.0512768326283269
5.835,-0.156568626557798,-0.0424436928064345
5.8525,-0.164120926796672,-0.032587047494061
5.87,-0.170301433559607,-0.0222106611652958
5.8875,-0.175239807324859,-0.0118030941618577
5.905,-0.179281940272669,-0.001668871318869
5.9225,-0.182850592743272,0.00815414948716283
5.94,-0.186277169095245,0.017883798779723
5.9575,-0.189673245152136,0.0278888133824955
5.975,-0.192887358742864,0.0385314683181396
5.9925,-0.195560150416382,0.0500165237075322
6.01,-0.197254918485586,0.0623011892175361
6.0275,-0.197614123594434,0.0750970319481054
6.045,-0.196484534282305,0.0879606377555496
6.0625,-0.193966704143942,0.100437976175758
6.08,-0.190365569742903,0.112175662301265
6.0975,-0.186136374878982,0.123118608304446
6.115,-0.181621589931242,0.133443011336832
6.1325,-0.176968210261429,0.143467811531654
6.15,-0.172087317817403,0.153513289335084
6.1675,-0.16670183972156,0.163765278166508
6.185,-0.160461656333399,0.174193600508916
6.2025,-0.153082056382565,0.184551887307995
6.22,-0.144455035721544,0.194455802706364
6.2375,-0.134694613884271,0.203508914780478
6.255,-0.124102262826104,0.211429711609874
6.2725,-0.113067362466025,0.218134564649592
6.29,-0.101940046570393,0.223748603675275
6.3075,-0.0909222943502221,0.228542832880016
6.325,-0.0800152546629821,0.232821827312867
6.3425,-0.0690399235335626,0.236802976980119
6.36,-0.0577221379905717,0.240530077327502
6.3775,-0.0458106158344293,0.243850985193443
6.395,-0.0331859811699073,0.24646606277331
6.4125,-0.0199227118197458,0.248029410717125
6.43,-0.00628293373957131,0.248266939208341
6.4475,0.00735515865576252,0.247070071476371
6.465,0.0206090127703592,0.244532792431931
6.4825,0.0332047995668117,0.240919527989454
6.5,0.0450529240990205,0.23657510882197
6.5175,0.0562338419398447,0.231855498348987
6.535,0.0670825009348673,0.226893545710649
6.5525,0.0778764211174357,0.221607701701684
6.57,0.0887720234298657,0.215750449500272
6.5875,0.0997322694633813,0.209009123768559
6.605,0.110524265743474,0.201128704322774
6.6225,0.12078632107296,0.192013552962499
6.64,0.130140149166403,0.181773083214202
6.6575,0.138308753690499,0.170696102032847
6.675,0.14519896362561,0.159163252418938
6.6925,0.150919996361836,0.147528282316534
6.71,0.155731572224499,0.136009617326185
6.7275,0.159939514414976,0.124630288518528
6.745,0.16377518458302,0.113227745122679
6.7625,0.16730119922912,0.101530948014046
6.78,0.170377375409229,0.0892785211253411
6.7975,0.172700389465577,0.0763367482061236
6.815,0.173904960682664,0.062775219655557
6.8325,0.173692233445557,0.0488717011855451
6.85,0.171940244937156,0.0350420061787786
6.8675,0.168756116035625,0.0217172254021576
6.885,0.1644488449412,0.00921036464056181
6.9025,0.15942915643906,-0.00237998296887138
6.92,0.154069382014581,-0.0131924771265727
6.9375,0.148572330859758,-0.0235407014191899
6.955,0.142936614301198,-0.0338484300368639
6.9725,0.136766450810801,-0.0443285467548994
6.99,0.129661230015507,-0.0549302506820476
7.0075,0.121303899888633,-0.0653505555998292
7.025,0.11159389759653,-0.0751270317173887
7.0425,0.100702743694302,-0.0837910023287474
7.06,0.0890309596491828,-0.0910257778296299
7.0775,0.0770807768861783,-0.0967718064242541
7.095,0.065290321168651,-0.101239138116332
7.1125,0.05389004524577,-0.104821064859357
7.13,0.0428351937348249,-0.107939294787849
7.1475,0.0318410081119918,-0.110877161823236
7.165,0.0205096778387337,-0.113663198134967
7.1825,0.00850340633971825,-0.116050149308965
7.2,-0.00430061758774792,-0.11759991216979
7.2175,-0.0177326233574925,-0.117845296350962
7.235,-0.031361953849773,-0.116469609862576
7.2525,-0.0446296763164388,-0.113436398337401
7.27,-0.0570352103716099,-0.109018236619491
7.2875,-0.0683079025928831,-0.103709953940624
7.305,-0.0784976372910851,-0.0980550456535022
7.3225,-0.0879468461875968,-0.0924481557802216
7.34,-0.0971499583304602,-0.0869881217045053
7.3575,-0.106549490201335,-0.0814398436128539
7.375,-0.116344225029691,-0.075324175926719
7.3925,-0.126412228295251,-0.0680189358043693
7.41,-0.136139392649708,-0.0592402865620417
7.4275,-0.144904279772705,-0.0490487217147112
7.445,-0.152208408503914,-0.0378468908061683
7.4625,-0.157852131665805,-0.0262453666168135
7.48,-0.16199932021423,-0.0148510788626189
7.4975,-0.1651064925749,-0.00405771011751086
7.515,-0.167742820078931,0.00608313338335439
7.5325,-0.170368593244176,0.015861209435051
7.55,-0.173155750602192,0.0257771848628653
7.5675,-0.175918728461944,0.0363312379510996
7.585,-0.178182668651936,0.0478105270662344
7.6025,-0.179364189281815,0.0601564841820334
7.62,-0.178996920119423,0.0729634159610684
7.6375,-0.17691618584173,0.085610557872123
7.655,-0.173331660899815,0.0974789325218803
7.6725,-0.168758508866119,0.108171330951535
7.69,-0.163831066227955,0.117651262125282
7.7075,-0.159068406854485,0.126246240259852
7.725,-0.154680786371303,0.134511645339708
7.7425,-0.150492066882658,0.143004659297157
7.76,-0.14601039086132,0.152053236049267
7.7775,-0.14062330962568,0.1616088478676
7.795,-0.133845331322233,0.171241735272965
7.8125,-0.125523982404927,0.180284232496717
7.83,-0.115912929226174,0.187985886068163
7.8475,-0.105732834084254,0.194034242115927
7.865,-0.0956857649775875,0.198507653252635
7.8825,-0.0862888739875492,0.201852611617044
7.9,-0.0776974042954017,0.204704874927855
7.9175,-0.0696658853994139,0.20764199117119
7.935,-0.0616610548073749,0.21096080169396
7.9525,-0.0530829883886439,0.214563601950646
7.97,-0.0435104147729179,0.217995399850866
7.9875,-0.0328773538384344,0.220617660329871
8.005,-0.0215143123233776,0.221852476477878
8.0225,-0.0100384718720957,0.221404566192015
8.04,0.000865612645986889,0.219376836401758
8.0575,0.0106917813545765,0.216235392358949
8.075,0.0192912104052733,0.212636766583799
8.0925,0.0269161714510037,0.209182427408222
8.11,0.0341111627199013,0.20619357277115
8.1275,0.041491785737892,0.203592145519264
8.145,0.0494947039920081,0.20093435595865
8.1625,0.0581937896488586,0.197585481295314
8.18,0.0672534212835773,0.192970891412907
8.1975,0.0760386021052435,0.186808492159898
8.215,0.0838422032095537,0.179233587768557
8.2325,0.0901445308352494,0.170766777495809
8.25,0.0948067981799471,0.162134395878215
8.2675,0.0981090346146083,0.154090058675846
8.285,0.100782088280555,0.146908149395593
8.3025,0.103490777037864,0.140440778998347
8.32,0.106658527174936,0.134180570338464
8.3375,0.110305357314965,0.127473438858823
8.355,0.114041443598997,0.119784150509524
8.3725,0.117216780851333,0.110913901772635
8.39,0.119168776710356,0.101088308507166
8.4075,0.119473323328339,0.0908837509819704
8.425,0.118104370494329,0.0810211928221911
8.4425,0.115442200611065,0.0721063720153183
8.46,0.112128064874188,0.0644150627831063
8.4775,0.108820907086072,0.0578046541720534
8.495,0.105948771520367,0.051785286404073
8.5125,0.103549370320368,0.04572335058853
8.53,0.101260522183555,0.0391000299020632
8.5475,0.0984644781407162,0.0317265905230183
8.565,0.0945318329436427,0.0238342340825316
8.5825,0.0890727260097067,0.0160035182663765
8.6,0.0820997336546797,0.00895897730683693
8.6175,0.0740396454060903,0.00330586832032953
8.635,0.0655880650744047,-0.000691430526217031
8.6525,0.05746028765383,-0.00320464424099744
8.67,0.0501318023026958,-0.00477265572852933
8.6875,0.0436668664780384,-0.00609230621750854
8.705,0.0377086545254121,-0.00784667778524908
8.7225,0.0314877849543259,-0.0101432794259256
8.74,0.0243899433014789,-0.0126744067630887
8.7575,0.0161064787347664,-0.0148112876063342
8.775,0.00676152598505057,-0.0158457529753659
8.7925,-0.00312620971567276,-0.0152577711844215
8.81,-0.0128293846239039,-0.0129079610870641
8.8275,-0.0216730963169631,-0.00908418160428773
8.845,-0.0292716516750904,-0.00438721814615251
8.8625,-0.0356522850622935,0.000498799616310077
8.88,-0.0412208561988272,0.00506297783095222
8.8975,-0.0465845809607601,0.00915396789027381
8.915,-0.0523005067966096,0.0130263174671152
8.9325,-0.0586457517279356,0.0172306170467452
8.95,-0.0654965256254515,0.022390255204301
8.9675,-0.0723613180950692,0.0289501207599142
8.985,-0.0785551886955053,0.0369927713286109
9.0025,-0.0834488233484429,0.0461917921375775
9.02,-0.0866978683607191,0.0559201137932842
9.0375,-0.0883655037470825,0.065472490448918
9.055,-0.0888914292695325,0.0743181257503415
9.0725,-0.088918336004233,0.0822877748245418
9.09,-0.089040843975198,0.0896239624788878
9.1075,-0.0895715863255051,0.0968742301513794
9.125,-0.0904133824116738,0.104666457952953
9.1425,-0.0910656984008128,0.113542327427399
9.16,-0.0907674979588469,0.123428457361405
9.1775,-0.0889599053561513,0.133904249606304
9.195,-0.0854138027591001,0.144297803960343
9.2125,-0.0803101157843015,0.153924173334958
9.23,-0.0741671282687763,0.162322835894427
9.2475,-0.0676453318408125,0.169406509368546
9.265,-0.0613048877502529,0.175468143236523
9.2825,-0.0554067463391836,0.181046499602149
9.3,-0.0498305340443129,0.186703106357192
9.3175,-0.0441377077731739,0.192795291572653
9.335,-0.0377540782305149,0.199330083301917
9.3525,-0.0302018191002347,0.205952462057461
9.37,-0.0212935783731678,0.212070780129999
9.3875,-0.0112164042339799,0.217071065460415
9.405,-0.000474938662262742,0.220539280500401
9.4225,0.010283973596968,0.222408282618162
9.44,0.0204990352172779,0.222974828898402
9.4575,0.0298891543053773,0.222780690343689
9.475,0.0385421544074102,0.222402656006461
9.4925,0.0468643063457444,0.222230149023339
9.51,0.055409377154718,0.222313832587433
9.5275,0.0646508937706488,0.222342266201474
9.545,0.0747827496283445,0.221756105394663
9.5625,0.0856231719900433,0.219958075271656
9.58,0.0966549547688333,0.216487240639794
9.5975,0.107147859969384,0.211364479919374
9.615,0.116534485475774,0.20496122219406
9.6325,0.124554591466987,0.197885229917939
9.65,0.131331873188725,0.19075790289437
9.6675,0.137306955809685,0.183989577617989
9.685,0.143052670941873,0.177636471115626
9.7025,0.149041132883443,0.171392112297505
9.72,0.155449678611609,0.164715979412365
9.7375,0.162078061248739,0.157051146677298
9.755,0.168407911198032,0.148049760624777
9.7725,0.173782680378965,0.137722208416605
9.79,0.17761988852923,0.126444448612166
9.8075,0.179650490873082,0.114896473613663
9.825,0.180060708798265,0.103767194509727
9.8425,0.179347148413436,0.093493060588268
9.86,0.178130653907064,0.0841374181720974
9.8775,0.176914002081746,0.0753924649736785
9.895,0.175887143291801,0.0667222816466126
9.9125,0.174853140131024,0.0575925676122895
9.93,0.173302630111533,0.0477004171261021
9.9475,0.170609043399925,0.0371174859066428
9.965,0.166271543614684,0.026292174181333
9.9825,0.160114508556884,0.0159090497519236
10,0.152368126634814,0.00665720436316487
