"Freq [GHz]","re(S(Tx_p1,Tx_p1)) []","im(S(Tx_p1,Tx_p1)) []"
1,0.2381736027,-0.3192589754
1.01,0.2293024976,-0.3304212316
1.02,0.2197468872,-0.3419959236
1.03,0.2092661848,-0.353900536
1.04,0.1976471289,-0.3659791236
1.05,0.184723837,-0.3780141219
1.06,0.1703929102,-0.3897432363
1.07,0.1546224605,-0.4008794295
1.08,0.1374546941,-0.4111318563
1.09,0.119002427,-0.4202257106
1.1,0.09944052738,-0.4279193098
1.11,0.07899369095,-0.434017279
1.12,0.0579221261,-0.438379305
1.13,0.03650665519,-0.440924516
1.14,0.01503446749,-0.4416320138
1.15,-0.006213639866,-0.4405383776
1.16,-0.02697413821,-0.4377330575
1.17,-0.04700976211,-0.4333524741
1.18,-0.06611690329,-0.4275734052
1.19,-0.08413180359,-0.4206059263
1.2,-0.100935895,-0.412685863
1.21,-0.1164604383,-0.4040664899
1.22,-0.1306903235,-0.3950091234
1.23,-0.1436665908,-0.3857723321
1.24,-0.1554869843,-0.3765997276
1.25,-0.1663037377,-0.3677066554
1.26,-0.1763178506,-0.359266514
1.27,-0.1857693676,-0.3513978132
1.28,-0.194923595,-0.3441533515
1.29,-0.2040537285,-0.3375129819
1.3,-0.2134209458,-0.3313813016
1.31,-0.2232535317,-0.3255912345
1.32,-0.2337269791,-0.3199139064
1.33,-0.2449471514,-0.3140745122
1.34,-0.2569384691,-0.3077731247
1.35,-0.2696386766,-0.3007087191
1.36,-0.2829011045,-0.2926041713
1.37,-0.296504526,-0.2832297362
1.38,-0.3101698314,-0.2724225618
1.39,-0.323581924,-0.2601001681
1.4,-0.3364145933,-0.2462664704
1.41,-0.3483557436,-0.2310097809
1.42,-0.3591303072,-0.2144931694
1.43,-0.3685184722,-0.1969384689
1.44,-0.3763674607,-0.1786059549
1.45,-0.3825959298,-0.1597721989
1.46,-0.3871910217,-0.1407087347
1.47,-0.3901990157,-0.1216639501
1.48,-0.391711315,-0.1028500767
1.49,-0.391848018,-0.0844363622
1.5,-0.390741507,-0.06654859725
1.51,-0.3885223201,-0.04927426798
1.52,-0.3853090801,-0.03267184249
1.53,-0.3812035289,-0.01678219032
1.54,-0.3762908547,-0.001639942623
1.55,-0.3706446572,0.01271724937
1.56,-0.3643351783,0.02624314446
1.57,-0.3574389544,0.03888193257
1.58,-0.350047877,0.05057194937
1.59,-0.3422757992,0.06125339679
1.6,-0.3342612623,0.07087872312
1.61,-0.3261655669,0.07942388473
1.62,-0.3181661604,0.08689856453
1.63,-0.3104460547,0.09335357327
1.64,-0.3031805991,0.098884072
1.65,-0.2965233382,0.1036278589
1.66,-0.2905928313,0.1077586608
1.67,-0.2854621837,0.1114750572
1.68,-0.2811526832,0.1149862422
1.69,-0.2776324024,0.1184962293
1.7,-0.2748200062,0.122188273
1.71,-0.2725933854,0.1262112279
1.72,-0.2708021953,0.1306693005
1.73,-0.2692829817,0.135616237
1.74,-0.2678753506,0.1410544893
1.75,-0.2664375984,0.1469393813
1.76,-0.2648603361,0.1531878261
1.77,-0.263076893,0.1596907539
1.78,-0.2610696059,0.1663281395
1.79,-0.2588714711,0.1729853608
1.8,-0.2565629893,0.179569573
1.81,-0.2542643711,0.1860248227
1.82,-0.2521235569,0.1923447298
1.83,-0.2503007531,0.1985817117
1.84,-0.2489503955,0.2048519007
1.85,-0.2482016268,0.2113351114
1.86,-0.2481385306,0.2182694427
1.87,-0.2487814841,0.2259403762
1.88,-0.2500710731,0.2346645411
1.89,-0.251856029,0.2447686864
1.9,-0.2538865772,0.2565647928
1.91,-0.2558143965,0.2703226759
1.92,-0.2572000713,0.28624182
1.93,-0.2575284612,0.3044245039
1.94,-0.2562318291,0.3248524785
1.95,-0.2527198994,0.3473694796
1.96,-0.2464153139,0.3716716752
1.97,-0.2367922874,0.3973077277
1.98,-0.2234157198,0.4236895097
1.99,-0.2059776749,0.450113688
2,-0.1843280561,0.4757934399
2.01,-0.1584965363,0.499898594
2.02,-0.1287033426,0.5216015921
2.03,-0.09535732489,0.5401259555
2.04,-0.05904078872,0.5547935145
2.05,-0.020481732,0.5650665791
2.06,0.01948471507,0.570581533
2.07,0.05996282923,0.571171001
2.08,0.1000472321,0.5668727095
2.09,0.138874232,0.5579243362
2.1,0.1756695602,0.5447448889
2.11,0.2097888795,0.5279043354
2.12,0.2407481802,0.5080841849
2.13,0.2682421805,0.4860323966
2.14,0.2921499815,0.4625162986
2.15,0.3125283648,0.4382771212
2.16,0.329594125,0.4139893219
2.17,0.3436976041,0.3902271832
2.18,0.3552900625,0.3674403064
2.19,0.3648876787,0.3459387258
2.2,0.3730348273,0.3258875389
2.21,0.3802689227,0.3073102861
2.22,0.3870886132,0.2900998598
2.23,0.3939265703,0.2740354953
2.24,0.4011276274,0.2588043685
2.25,0.4089326367,0.244026431
2.26,0.4174681688,0.2292812877
2.27,0.4267420627,0.2141360851
2.28,0.4366448026,0.198173478
2.29,0.4469567023,0.1810187446
2.3,0.4573608386,0.1623650354
2.31,0.4674615507,0.1419955942
2.32,0.4768080742,0.1198016568
2.33,0.4849225065,0.09579466537
2.34,0.4913308454,0.0701115162
2.35,0.4955953643,0.0430118234
2.36,0.4973461721,0.01486664719
2.37,0.4963095379,-0.01386121641
2.38,0.4923305242,-0.04264452013
2.39,0.4853877009,-0.07092476025
2.4,0.475598237,-0.09814889325
2.41,0.4632124369,-0.1238066436
2.42,0.448597745,-0.1474652037
2.43,0.432213273,-0.1687981914
2.44,0.4145768902,-0.1876061499
2.45,0.3962277323,-0.203826614
2.46,0.3776875158,-0.2175327601
2.47,0.3594242286,-0.2289207908
2.48,0.3418215508,-0.2382873465
2.49,0.325156778,-0.2459992584
2.5,0.3095891237,-0.2524587209
2.51,0.2951591723,-0.2580673912
2.52,0.2817990782,-0.2631929548
2.53,0.2693519873,-0.2681413319
2.54,0.2575982381,-0.27313699
2.55,0.2462852804,-0.2783128547
2.56,0.235157998,-0.2837102098
2.57,0.223986261,-0.2892878701
2.58,0.2125870297,-0.29493894
2.59,0.20083911,-0.3005127497
2.6,0.1886896176,-0.3058391587
2.61,0.1761522077,-0.3107523747
2.62,0.16329805,-0.315111734
2.63,0.150241259,-0.3188174676
2.64,0.1371209493,-0.321820241
2.65,0.1240822381,-0.324124097
2.66,0.1112583692,-0.3257832204
2.67,0.09875573152,-0.3268935965
2.68,0.08664297589,-0.3275810677
2.69,0.07494479146,-0.3279874709
2.7,0.06364028702,-0.3282564783
2.71,0.05266542237,-0.3285204949
2.72,0.04191860461,-0.3288895713
2.73,0.03126842927,-0.3294428438
2.74,0.02056259499,-0.3302226007
2.75,0.009637209315,-0.3312307639
2.76,-0.001674030339,-0.3324273974
2.77,-0.01353102235,-0.333730828
2.78,-0.02607883678,-0.3350190589
2.79,-0.0394395875,-0.3361323301
2.8,-0.05370450853,-0.3368768753
2.81,-0.06892625462,-0.3370300749
2.82,-0.08511163403,-0.336347275
2.83,-0.1022151949,-0.3345704952
2.84,-0.1201342685,-0.3314390883
2.85,-0.1387061715,-0.3267021656
2.86,-0.1577082557,-0.3201323136
2.87,-0.1768613465,-0.3115398388
2.88,-0.1958368537,-0.300786567
2.89,-0.2142675013,-0.2877981116
2.9,-0.2317612535,-0.2725735523
2.91,-0.2479176711,-0.2551916289
2.92,-0.2623456735,-0.2358128309
2.93,-0.2746815286,-0.214677119
2.94,-0.2846058814,-0.1920973904
2.95,-0.291858748,-0.168449153
2.96,-0.2962516253,-0.1441571525
2.97,-0.2976761591,-0.1196798691
2.98,-0.2961091253,-0.09549285956
2.99,-0.2916137733,-0.07207187098
3,-0.2843378084,-0.04987651159
3.01,-0.2745084384,-0.02933507938
3.02,-0.2624249688,-0.01083094818
3.03,-0.2484494102,0.005309262581
3.04,-0.2329954843,0.01882562903
3.05,-0.2165163225,0.0295329243
3.06,-0.1994910602,0.03732661895
3.07,-0.1824104894,0.04218675953
3.08,-0.1657619459,0.04417952378
3.09,-0.1500136885,0.04345618068
3.1,-0.1355991618,0.04024915794
3.11,-0.1229017052,0.03486496263
3.12,-0.1122404309,0.02767382802
3.13,-0.1038581222,0.01909616915
3.14,-0.09791205145,0.009586204019
3.15,-0.09446856003,-0.0003865947278
3.16,-0.09350207194,-0.0103572549
3.17,-0.09489892357,-0.0198850615
3.18,-0.09846601519,-0.02857196856
3.19,-0.1039438592,-0.03607831225
3.2,-0.1110231697,-0.04213461599
3.21,-0.1193637654,-0.04654857211
3.22,-0.1286142929,-0.04920670163
3.23,-0.1384311717,-0.05007069051
3.24,-0.1484952226,-0.04916891665
3.25,-0.1585246909,-0.04658415258
3.26,-0.1682837616,-0.04243879102
3.27,-0.1775861665,-0.03687914652
3.28,-0.1862940126,-0.03006040558
3.29,-0.1943124711,-0.02213363104
3.3,-0.2015813687,-0.0132358957
3.31,-0.2080649827,-0.003484176335
3.32,-0.2137414182,0.007026854962
3.33,-0.2185928431,0.01822347764
3.34,-0.2225975969,0.03004872953
3.35,-0.2257248203,0.04245634575
3.36,-0.2279318436,0.05540389035
3.37,-0.2291641764,0.06884606959
3.38,-0.2293576344,0.08272901118
3.39,-0.2284419461,0.09698600467
3.4,-0.2263451335,0.111534883
3.41,-0.2229980386,0.1262769434
3.42,-0.2183385454,0.1410971051
3.43,-0.212315271,0.1558649114
3.44,-0.2048907245,0.1704360093
3.45,-0.1960440948,0.1846538606
3.46,-0.1857739072,0.1983516194
3.47,-0.1741007587,0.211354299
3.48,-0.1610702149,0.2234815004
3.49,-0.146755759,0.2345510374
3.5,-0.1312614696,0.2443837537
3.51,-0.1147239166,0.2528096789
3.52,-0.0973126601,0.2596754338
3.53,-0.07922873583,0.2648525145
3.54,-0.06070064516,0.2682458083
3.55,-0.04197760918,0.2698014763
3.56,-0.02332018204,0.269513227
3.57,-0.004988689232,0.267426028
3.58,0.01276968939,0.2636364737
3.59,0.02973409209,0.2582893277
3.6,0.04572214552,0.2515701546
3.61,0.06059986863,0.2436944008
3.62,0.07428820064,0.2348937077
3.63,0.08676534421,0.2254005982
3.64,0.09806452767,0.2154329075
3.65,0.1082672631,0.2051794081
3.66,0.1174926516,0.1947879833
3.67,0.1258837043,0.1843574617
3.68,0.1335919524,0.1739338439
3.69,0.1407617849,0.1635112007
3.7,0.1475159419,0.1530370445
3.71,0.1539434366,0.1424215312
3.72,0.160090873,0.1315494977
3.73,0.165957738,0.1202941131
3.74,0.1714958118,0.1085308473
3.75,0.1766124181,0.09615053758
3.76,0.1811768859,0.08307054447
3.77,0.1850293486,0.0692432964
3.78,0.1879908924,0.05466187848
3.79,0.1898740899,0.0393626753
3.8,0.1904931003,0.02342537635
3.81,0.1896727445,0.006970860475
3.82,0.1872562397,-0.009842431733
3.83,0.1831115392,-0.02682305323
3.84,0.1771364344,-0.04375157296
3.85,0.1692627002,-0.06038579433
3.86,0.159459581,-0.07646610807
3.87,0.1477368338,-0.09172110041
3.88,0.1341473849,-0.1058736523
3.89,0.118789459,-0.1186477837
3.9,0.1018078491,-0.1297764116
3.91,0.08339386118,-0.1390100146
3.92,0.06378342556,-0.1461259588
3.93,0.04325293612,-0.1509379904
3.94,0.0221125635,-0.1533051836
3.95,0.000697061091,-0.1531395032
3.96,-0.02064559169,-0.1504111244
3.97,-0.04156704082,-0.1451507734
3.98,-0.06173196725,-0.137448596
3.99,-0.08083095259,-0.1274494
4,-0.09859166895,-0.1153445116
4.01,-0.1147873777,-0.1013608681
4.02,-0.1292419745,-0.08574829399
4.03,-0.1418311728,-0.06876612308
4.04,-0.1524798301,-0.05067040457
4.05,-0.1611558298,-0.03170285612
4.06,-0.1678612894,-0.01208251788
4.07,-0.17262212,0.007999256347
4.08,-0.1754770936,0.02838021201
4.09,-0.1764675635,0.04892514066
4.1,-0.1756288508,0.06952084079
4.11,-0.1729840698,0.09006884608
4.12,-0.1685408698,0.1104768444
4.13,-0.162291245,0.1306497697
4.14,-0.1542142607,0.1504815003
4.15,-0.1442812914,0.1698479654
4.16,-0.1324631765,0.1886022663
4.17,-0.1187385946,0.2065721982
4.18,-0.1031029277,0.2235603364
4.19,-0.08557691281,0.239346649
4.2,-0.06621446143,0.2536934349
4.21,-0.04510912804,0.2663522646
4.22,-0.02239882423,0.2770725209
4.23,0.001731514363,0.2856110883
4.24,0.02704950094,0.2917427207
4.25,0.05327721455,0.2952706034
4.26,0.08009548594,0.2960366238
4.27,0.1071504999,0.2939308617
4.28,0.1340625802,0.2888998079
4.29,0.1604369297,0.280952825
4.3,0.185875992,0.2701663824
4.31,0.2099929836,0.2566856429
4.32,0.2324260185,0.2407230554
4.33,0.252852137,0.2225537309
4.34,0.2710004521,0.2025075428
4.35,0.2866635829,0.1809580975
4.36,0.2997065487,0.1583089554
4.37,0.3100723843,0.1349777212
4.38,0.317783893,0.1113788485
4.39,0.3229411923,0.08790617982
4.4,0.3257150031,0.06491635157
4.41,0.3263359629,0.04271420351
4.42,0.3250805792,0.02154123775
4.43,0.322254737,0.001567970918
4.44,0.3181759035,-0.01710927117
4.45,0.3131552946,-0.03446692518
4.46,0.3074812779,-0.05054832221
4.47,0.301405162,-0.06545394224
4.48,0.2951302922,-0.0793286623
4.49,0.2888050582,-0.09234708374
4.5,0.282520056,-0.1046981221
4.51,0.2763092863,-0.116570017
4.52,0.2701549504,-0.1281367831
4.53,0.2639951641,-0.1395468996
4.54,0.257733762,-0.150914764
4.55,0.2512513229,-0.1623151557
4.56,0.2444165929,-0.1737807017
4.57,0.2370975984,-0.1853021396
4.58,0.229171887,-0.1968310476
4.59,0.2205354846,-0.2082846496
4.6,0.2111102825,-0.2195522995
4.61,0.2008496513,-0.2305032708
4.62,0.1897421228,-0.2409955008
4.63,0.1778129932,-0.2508849435
4.64,0.1651237056,-0.2600351511
4.65,0.1517688966,-0.2683266351
4.66,0.1378710554,-0.2756654655
4.67,0.123572874,-0.2819904815
4.68,0.1090275514,-0.2872784289
4.69,0.09438754952,-0.2915463578
4.7,0.07979255149,-0.2948507176
4.71,0.06535760022,-0.2972827996
4.72,0.05116256154,-0.2989604822
4.73,0.03724411122,-0.3000166177
4.74,0.02359136542,-0.3005848106
4.75,0.01014604356,-0.3007837276
4.76,-0.003192318811,-0.300701395
4.77,-0.01655607343,-0.3003811205
4.78,-0.03009459154,-0.2998106924
4.79,-0.04395588559,-0.2989163358
4.8,-0.0582662632,-0.297562545
4.81,-0.07310990904,-0.2955583923
4.82,-0.08851046246,-0.2926702907
4.83,-0.1044166177,-0.2886405123
4.84,-0.1206935109,-0.283210128
4.85,-0.1371211936,-0.2761444957
4.86,-0.1534008636,-0.2672590567
4.87,-0.1691688002,-0.25644305
4.88,-0.1840172026,-0.2436788403
4.89,-0.1975204385,-0.2290548803
4.9,-0.2092646523,-0.212770863
4.91,-0.21887832,-0.1951342983
4.92,-0.2260612056,-0.1765485216
4.93,-0.2306092935,-0.1574929013
4.94,-0.2324336209,-0.1384967053
4.95,-0.2315714747,-0.1201086158
4.96,-0.2281890899,-0.1028642197
4.97,-0.2225757102,-0.08725390381
4.98,-0.2151295694,-0.07369346039
4.99,-0.2063369596,-0.06249938743
5,-0.1967459997,-0.05387039346
5.01,-0.1869369898,-0.04787606174
5.02,-0.1774913145,-0.0444530551
5.03,-0.1689607675,-0.04340871787
5.04,-0.1618389466,-0.04443150203
5.05,-0.1565360692,-0.04710733785
5.06,-0.1533582305,-0.05094088985
5.07,-0.1524918263,-0.05538056689
5.08,-0.153993613,-0.0598461582
5.09,-0.1577866983,-0.0637580019
5.1,-0.1636626309,-0.06656661975
5.11,-0.1712896656,-0.06778174323
5.12,-0.1802271805,-0.0669996
5.13,-0.1899460744,-0.06392723835
5.14,-0.1998547519,-0.0584025693
5.15,-0.2093299907,-0.05040874806
5.16,-0.2177515927,-0.04008154698
5.17,-0.2245392847,-0.02770853815
5.18,-0.2291899025,-0.01371923345
5.19,-0.2313125398,0.001334169293
5.2,-0.2306591323,0.01680513654
5.21,-0.2271479451,0.03198920095
5.22,-0.22087767,0.04616659811
5.23,-0.2121303381,0.05864861253
5.24,-0.2013619842,0.06882455135
5.25,-0.1891809088,0.07620594164
5.26,-0.1763143927,0.0804645154
5.27,-0.1635657239,0.08146083315
5.28,-0.1517642971,0.07926099247
5.29,-0.1417122351,0.07413972894
5.3,-0.1341313926,0.06656926617
5.31,-0.1296146742,0.05719441169
5.32,-0.1285853244,0.04679551496
5.33,-0.1312672482,0.03624189567
5.34,-0.1376685464,0.02643911738
5.35,-0.1475793987,0.01827395386
5.36,-0.1605842807,0.01256103075
5.37,-0.1760873878,0.009994919595
5.38,-0.1933491429,0.01111094103
5.39,-0.2115308816,0.01625715906
5.4,-0.2297443045,0.02557909793
5.41,-0.2471020768,0.03901768282
5.42,-0.2627660649,0.05631988944
5.43,-0.2759900745,0.07706067702
5.44,-0.2861545655,0.1006740444
5.45,-0.2927915768,0.126490541
5.46,-0.2955989261,0.1537783063
5.47,-0.2944435873,0.1817847023
5.48,-0.2893549015,0.2097758138
5.49,-0.2805089152,0.2370714853
5.5,-0.2682056082,0.2630740767
5.51,-0.2528410742,0.2872897068
5.52,-0.2348768369,0.3093413533
5.53,-0.2148084589,0.328973747
5.54,-0.1931354393,0.346050507
5.55,-0.1703341426,0.36054439
5.56,-0.1468351751,0.3725218628
5.57,-0.1230062574,0.3821234461
5.58,-0.09914124788,0.3895414353
5.59,-0.07545556476,0.3949966632
5.6,-0.05208785305,0.3987159519
5.61,-0.02910735184,0.4009117936
5.62,-0.006526055846,0.4017656043
5.63,0.01568554576,0.4014156172
5.64,0.03758061035,0.3999501213
5.65,0.05921756096,0.3974063315
5.66,0.08064280466,0.3937747188
5.67,0.1018760593,0.3890081693
5.68,0.1228995507,0.3830349249
5.69,0.1436519724,0.3757739304
5.7,0.1640276404,0.3671510058
5.71,0.183880765,0.3571142155
5.72,0.2030342648,0.3456469254
5.73,0.2212921087,0.3327773083
5.74,0.2384538545,0.3185834633
5.75,0.2543298834,0.3031937923
5.76,0.2687558349,0.2867827755
5.77,0.2816049131,0.2695627503
5.78,0.292797046,0.2517726575
5.79,0.3023042746,0.233664948
5.8,0.3101521843,0.2154919151
5.81,0.316417603,0.1974926341
5.82,0.321223122,0.1798814848
5.83,0.3247292229,0.1628389373
5.84,0.3271248822,0.1465049534
5.85,0.3286174984,0.1309750454
5.86,0.3294228508,0.1162987852
5.87,0.3297556056,0.1024803984
5.88,0.3298206727,0.08948101875
5.89,0.3298055289,0.07722221323
5.9,0.3298734914,0.06559048571
5.91,0.3301578788,0.05444259741
5.92,0.3307570158,0.04361166006
5.93,0.3317301306,0.03291403303
5.94,0.3330943077,0.0221570621
5.95,0.3348227735,0.01114762759
5.96,0.336844862,-0.0002986655184
5.97,0.339048005,-0.01234800001
5.98,0.3412820019,-0.02513908767
5.99,0.3433656455,-0.03877481029
6,0.3450955375,-0.05331550283
