"Freq [GHz]","re(S(Tx_p1,Tx_p1)) []","im(S(Tx_p1,Tx_p1)) []"
1,0.3277325071,-0.3266089085
1.01,0.3132782646,-0.3434201856
1.02,0.297934664,-0.3590593011
1.03,0.2818417793,-0.3735291207
1.04,0.2651191177,-0.3868484751
1.05,0.2478645682,-0.3990445289
1.06,0.2301557596,-0.4101453651
1.07,0.2120536891,-0.420173535
1.08,0.1936082335,-0.4291412661
1.09,0.1748649511,-0.4370478749
1.1,0.1558724231,-0.4438797337
1.11,0.1366892917,-0.4496128997
1.12,0.1173901318,-0.4542182529
1.13,0.09806934375,-0.4576687213
1.14,0.07884239597,-0.4599479087
1.15,0.0598439711,-0.4610592256
1.16,0.04122287453,-0.4610344839
1.17,0.02313391239,-0.4599408812
1.18,0.005727295842,-0.4578853954
1.19,-0.01086356746,-0.4550158123
1.2,-0.02653480683,-0.4515178982
1.21,-0.04122413003,-0.4476085842
1.22,-0.05492093278,-0.443525403
1.23,-0.0676733289,-0.4395128092
1.24,-0.07959116697,-0.435806363
1.25,-0.09084443021,-0.4326160456
1.26,-0.1016568391,-0.4301101353
1.27,-0.1122949433,-0.4284010874
1.28,-0.1230534378,-0.4275347126
1.29,-0.1342378084,-0.427483656
1.3,-0.1461456655,-0.4281457915
1.31,-0.1590482404,-0.4293477043
1.32,-0.1731734952,-0.4308529835
1.33,-0.1886921376,-0.4323746235
1.34,-0.2057075528,-0.4335904827
1.35,-0.2242502755,-0.4341604969
1.36,-0.2442771835,-0.4337442439
1.37,-0.2656751425,-0.4320175125
1.38,-0.288268444,-0.4286867315
1.39,-0.311829099,-0.4235004284
1.4,-0.3360889001,-0.416257254
1.41,-0.3607521505,-0.4068104774
1.42,-0.3855080541,-0.3950691906
1.43,-0.4100419451,-0.3809967339
1.44,-0.4340447928,-0.3646070396
1.45,-0.4572207121,-0.3459596859
1.46,-0.4792925104,-0.325154425
1.47,-0.5000055646,-0.3023258216
1.48,-0.5191305071,-0.2776384162
1.49,-0.5364652727,-0.2512825645
1.5,-0.551837021,-0.2234708392
1.51,-0.5651043099,-0.19443466
1.52,-0.5761596749,-0.1644206721
1.53,-0.5849325057,-0.1336863522
1.54,-0.5913918388,-0.1024943874
1.55,-0.5955484465,-0.07110556533
1.56,-0.5974554558,-0.03977020145
1.57,-0.5972067069,-0.008718485713
1.58,-0.5949321976,0.02184951069
1.59,-0.5907902384,0.05177312803
1.6,-0.5849563427,0.08093848623
1.61,-0.5776093417,0.109282674
1.62,-0.5689156905,0.1367936463
1.63,-0.5590133647,0.1635050321
1.64,-0.5479970688,0.1894855327
1.65,-0.5359066391,0.2148231921
1.66,-0.5227204603,0.2396054924
1.67,-0.508355409,0.2638968796
1.68,-0.4926742955,0.2877158627
1.69,-0.4755010458,0.3110141702
1.7,-0.4566430354,0.3336605302
1.71,-0.4359191387,0.3554314466
1.72,-0.4131912864,0.3760108745
1.73,-0.3883967083,0.3949999826
1.74,-0.3615776562,0.4119372816
1.75,-0.3329053235,0.426328363
1.76,-0.3026949359,0.4376834411
1.77,-0.2714096003,0.4455599405
1.78,-0.239651406,0.4496066501
1.79,-0.2081393886,0.4496055515
1.8,-0.1776751733,0.4455073951
1.81,-0.1490982884,0.4374574235
1.82,-0.1232341822,0.4258083215
1.83,-0.1008387841,0.4111184369
1.84,-0.08254395136,0.3941345106
1.85,-0.0688082673,0.3757594712
1.86,-0.05987736604,0.3570071705
1.87,-0.05575726566,0.338947124
1.88,-0.05620315335,0.3226432434
1.89,-0.06072479361,0.3090911013
1.9,-0.06860835502,0.2991584098
1.91,-0.078953111,0.2935331113
1.92,-0.09072029,0.2926828172
1.93,-0.1027904354,0.2968283587
1.94,-0.1140250635,0.3059330305
1.95,-0.1233282195,0.3197078397
1.96,-0.1297037253,0.3376318394
1.97,-0.1323044372,0.358985543
1.98,-0.1304706164,0.3828945597
1.99,-0.1237554644,0.4083800114
2,-0.1119369226,0.4344119927
2.01,-0.09501589535,0.4599623403
2.02,-0.07320207059,0.4840532767
2.03,-0.04688937493,0.5057990737
2.04,-0.01662373334,0.5244386914
2.05,0.01693387768,0.5393582924
2.06,0.05304610426,0.5501034692
2.07,0.09093693457,0.5563818483
2.08,0.1298262775,0.5580573565
2.09,0.1689598087,0.5551378332
2.1,0.2076331067,0.5477578701
2.11,0.2452096979,0.5361587761
2.12,0.2811331626,0.5206674335
2.13,0.314933912,0.5016755333
2.14,0.3462315622,0.4796202899
2.15,0.3747339832,0.454967289
2.16,0.4002340747,0.4281956926
2.17,0.422605148,0.3997856856
2.18,0.4417955487,0.3702078369
2.19,0.4578228909,0.339913962
2.2,0.4707680457,0.3093290903
2.21,0.4807688433,0.2788442193
2.22,0.4880133193,0.2488096667
2.23,0.4927322681,0.2195290014
2.24,0.4951908816,0.1912537125
2.25,0.4956793512,0.1641789409
2.26,0.4945024919,0.1384406897
2.27,0.4919686467,0.1141149309
2.28,0.4883783179,0.09121892519
2.29,0.4840130879,0.06971491064
2.3,0.4791254367,0.0495161284
2.31,0.4739300475,0.03049497149
2.32,0.4685971224,0.01249287917
2.33,0.463248125,-0.004668545656
2.34,0.4579542122,-0.02117583373
2.35,0.4527374221,-0.03721206277
2.36,0.4475744765,-0.05294607925
2.37,0.4424028626,-0.06852313442
2.38,0.4371287205,-0.08405739693
2.39,0.4316359942,-0.09962664109
2.4,0.4257962881,-0.1152692581
2.41,0.4194788882,-0.13098361
2.42,0.4125604436,-0.1467296396
2.43,0.4049338471,-0.1624325505
2.44,0.3965159236,-0.1779882909
2.45,0.387253616,-0.1932705111
2.46,0.3771284461,-0.2081386389
2.47,0.3661590966,-0.2224467121
2.48,0.3544020066,-0.2360526084
2.49,0.3419499078,-0.2488272952
2.5,0.3289282738,-0.2606636847
2.51,0.3154897366,-0.2714846408
2.52,0.3018066333,-0.2812496669
2.53,0.2880619688,-0.2899598311
2.54,0.2744391935,-0.2976605476
2.55,0.2611112837,-0.3044419187
2.56,0.2482296922,-0.3104364454
2.57,0.2359138015,-0.3158140359
2.58,0.2242415655,-0.3207743967
2.59,0.2132420304,-0.3255370888
2.6,0.2028903605,-0.3303297464
2.61,0.1931058424,-0.3353751508
2.62,0.1837531138,-0.3408779825
2.63,0.1746466105,-0.3470121199
2.64,0.1655579693,-0.3539093056
2.65,0.1562259103,-0.3616498881
2.66,0.1463679425,-0.3702561728
2.67,0.135693125,-0.3796887026
2.68,0.1239150612,-0.3898455371
2.69,0.1107643535,-0.4005643398
2.7,0.09599988261,-0.4116268573
2.71,0.07941849563,-0.4227652256
2.72,0.06086293387,-0.433669497
2.73,0.04022805716,-0.4439958461
2.74,0.01746557869,-0.453375049
2.75,-0.007412392626,-0.4614209991
2.76,-0.0343306947,-0.4677391935
2.77,-0.06314908024,-0.4719352803
2.78,-0.09366065376,-0.4736238898
2.79,-0.1255907802,-0.4724380628
2.8,-0.1585966724,-0.468039611
2.81,-0.1922680856,-0.4601306682
2.82,-0.2261297375,-0.4484665108
2.83,-0.2596461811,-0.4328694505
2.84,-0.2922298473,-0.4132432898
2.85,-0.3232528424,-0.3895875094
2.86,-0.3520628264,-0.3620100956
2.87,-0.378002945,-0.3307377348
2.88,-0.4004353669,-0.2961220509
2.89,-0.4187675278,-0.2586406487
2.9,-0.4324797617,-0.2188919788
2.91,-0.441152668,-0.1775834329
2.92,-0.4444923664,-0.1355125729
2.93,-0.4423517616,-0.09354194629
2.94,-0.4347460677,-0.05256847634
2.95,-0.421861124,-0.01348890881
2.96,-0.4040534477,0.02283678873
2.97,-0.3818415054,0.05562187742
2.98,-0.3558883306,0.08418680487
2.99,-0.3269763072,0.1079883924
3,-0.2959756078,0.126642276
3.01,-0.2638083185,0.1399371499
3.02,-0.2314106038,0.1478400405
3.03,-0.1996953515,0.150492572
3.04,-0.1695175729,0.1481988755
3.05,-0.1416444961,0.1414063763
3.06,-0.1167318088,0.1306811254
3.07,-0.09530695385,0.1166796233
3.08,-0.07775976818,0.1001191835
3.09,-0.06434015672,0.08174880087
3.1,-0.05516194743,0.06232221895
3.11,-0.05021166816,0.04257445852
3.12,-0.04936076443,0.02320254374
3.13,-0.05237976082,0.004850623779
3.14,-0.05895303125,-0.01190078521
3.15,-0.0686931367,-0.02654206973
3.16,-0.08115405765,-0.03863915027
3.17,-0.09584304491,-0.04783639798
3.18,-0.1122311946,-0.05385869176
3.19,-0.1297631748,-0.05651326775
3.2,-0.1478667438,-0.0556917011
3.21,-0.1659627637,-0.05137198776
3.22,-0.1834763073,-0.04362033124
3.23,-0.1998492086,-0.03259195703
3.24,-0.2145540626,-0.01853012627
3.25,-0.227109301,-0.001762521788
3.26,-0.2370946217,0.01730567236
3.27,-0.2441657701,0.03820240591
3.28,-0.2480675002,0.06040315345
3.29,-0.248643508,0.08334868087
3.3,-0.2458422594,0.1064653774
3.31,-0.2397179134,0.1291869714
3.32,-0.2304259616,0.1509761944
3.33,-0.218213687,0.1713448714
3.34,-0.2034060416,0.1898710028
3.35,-0.1863879633,0.2062116591
3.36,-0.1675844767,0.220110881
3.37,-0.1474400957,0.2314022341
3.38,-0.1263990775,0.2400061563
3.39,-0.1048879391,0.2459227097
3.4,-0.08330136063,0.2492207573
3.41,-0.06199218668,0.2500248659
3.42,-0.04126575067,0.2485013541
3.43,-0.02137826735,0.2448448344
3.44,-0.002538627232,0.2392663706
3.45,0.01508735795,0.2319840264
3.46,0.03137134885,0.223216181
3.47,0.04621659392,0.2131775805
3.48,0.05955270978,0.2020777347
3.49,0.07133181856,0.1901209793
3.5,0.0815264011,0.1775073528
3.51,0.09012885311,0.1644334006
3.52,0.09715237802,0.1510921336
3.53,0.1026325752,0.137671607
3.54,0.1066289321,0.124351918
3.55,0.1092254224,0.1113007679
3.56,0.1105295458,0.09866805546
3.57,0.1106693814,0.08658020777
3.58,0.1097885365,0.0751350841
3.59,0.1080392126,0.06439829992
3.6,0.1055739328,0.05440169912
3.61,0.1025367418,0.04514446578
3.62,0.0990548552,0.03659703596
3.63,0.09523175798,0.02870759065
3.64,0.09114262874,0.0214105417
3.65,0.0868327106,0.01463612346
3.66,0.08231889346,0.008320018784
3.67,0.07759437617,0.002411905414
3.68,0.07263588666,-0.003118089725
3.69,0.06741260654,-0.008275807461
3.7,0.06189571189,-0.01304278469
3.71,0.05606733953,-0.01737932756
3.72,0.04992783495,-0.02123053783
3.73,0.04350033782,-0.02453451354
3.74,0.03683208886,-0.02723165
3.75,0.02999225897,-0.02927380701
3.76,0.02306655093,-0.03063210519
3.77,0.01614925002,-0.03130227101
3.78,0.009333748079,-0.03130674789
3.79,0.002702791508,-0.0306931972
3.8,-0.003680226696,-0.02952948074
3.81,-0.009777712749,-0.02789568582
3.82,-0.0155811054,-0.02587416188
3.83,-0.02111034658,-0.02353882487
3.84,-0.02640951803,-0.02094511007
3.85,-0.03153906446,-0.01812190137
3.86,-0.03656546606,-0.01506654362
3.87,-0.04154956268,-0.01174368485
3.88,-0.04653493095,-0.008088238132
3.89,-0.05153774684,-0.004012248635
3.9,-0.05653941925,0.000585042047
3.91,-0.06148296234,0.005805060604
3.92,-0.06627361876,0.01173710324
3.93,-0.07078371316,0.01844637691
3.94,-0.07486118397,0.02596427652
3.95,-0.07834078886,0.03428200108
3.96,-0.08105667009,0.04334817983
3.97,-0.08285483224,0.05307067618
3.98,-0.08360413622,0.0633222276
3.99,-0.08320463291,0.07394912654
4,-0.08159241924,0.08478179897
4.01,-0.07874065646,0.09564593588
4.02,-0.07465688993,0.1063728035
4.03,-0.06937728886,0.1168075111
4.04,-0.06295881545,0.1268143311
4.05,-0.05547058051,0.1362786017
4.06,-0.04698571298,0.1451052362
4.07,-0.03757495892,0.1532143408
4.08,-0.02730295085,0.1605348496
4.09,-0.01622769112,0.1669973606
4.1,-0.004403323081,0.1725274786
4.11,0.008114221099,0.1770409179
4.12,0.02125954508,0.1804413884
4.13,0.03494926739,0.1826219234
4.14,0.04907401403,0.1834698282
4.15,0.06349227777,0.1828749244
4.16,0.07802730596,0.1807402871
4.17,0.09246782873,0.1769942965
4.18,0.1065729792,0.1716026012
4.19,0.1200812458,0.1645785364
4.2,0.1327228012,0.1559906734
4.21,0.1442341286,0.14596647
4.22,0.1543735747,0.1346914181
4.23,0.1629363296,0.1224035846
4.24,0.1697673938,0.1093839544
4.25,0.1747713231,0.09594344279
4.26,0.1779179211,0.0824077817
4.27,0.1792435073,0.06910166825
4.28,0.178847879,0.0563335719
4.29,0.1768875313,0.04438243724
4.3,0.1735660538,0.03348722172
4.31,0.1691228495,0.02383981197
4.32,0.1638213827,0.01558142228
4.33,0.1579380701,0.008802152838
4.34,0.1517526835,0.003543032422
4.35,0.145540783,-0.0002003602091
4.36,0.1395682914,-0.002473676859
4.37,0.134087929,-0.003359875481
4.38,0.1293369022,-0.002976252197
4.39,0.1255350402,-0.001472755267
4.4,0.1228825183,0.0009684797023
4.41,0.1215564089,0.004132812047
4.42,0.1217055494,0.007772747451
4.43,0.1234435662,0.01160850899
4.44,0.1268403193,0.01533052731
4.45,0.1319124476,0.01860473146
4.46,0.1386140615,0.02108124213
4.47,0.1468288673,0.02240665894
4.48,0.1563650895,0.02223964282
4.49,0.1669544502,0.0202689895
4.5,0.1782561753,0.01623293874
4.51,0.1898665593,0.009938128048
4.52,0.2013340745,0.001276427829
4.53,0.2121794193,-0.009762083759
4.54,0.2219193394,-0.02308152691
4.55,0.2300925777,-0.03847912261
4.56,0.236285992,-0.05565115651
4.57,0.2401587485,-0.07420593172
4.58,0.2414625901,-0.0936829838
4.59,0.2400564769,-0.1135772349
4.6,0.2359143749,-0.1333662943
4.61,0.2291255765,-0.1525388228
4.62,0.2198875963,-0.1706217982
4.63,0.2084923376,-0.1872046571
4.64,0.1953067853,-0.2019586191
4.65,0.1807499008,-0.2146499898
4.66,0.1652676292,-0.2251468186
4.67,0.1493079613,-0.2334189039
4.68,0.1332978303,-0.2395317059
4.69,0.1176232936,-0.2436352001
4.7,0.1026139993,-0.245949022
4.71,0.0885324342,-0.246745396
4.72,0.07556795324,-0.2463313062
4.73,0.06383516848,-0.2450311666
4.74,0.05337597091,-0.2431709441
4.75,0.04416430467,-0.2410643116
4.76,0.03611280806,-0.2390010462
4.77,0.02908056398,-0.2372375721
4.78,0.02288142579,-0.2359893413
4.79,0.01729265318,-0.2354246541
4.8,0.0120638539,-0.2356595668
4.81,0.006926428566,-0.236753687
4.82,0.001603816471,-0.2387068903
4.83,-0.004177186423,-0.2414572554
4.84,-0.01067392358,-0.2448807473
4.85,-0.01811434487,-0.2487933312
4.86,-0.02668294241,-0.2529562201
4.87,-0.03650700797,-0.2570848279
4.88,-0.04764436763,-0.260861713
4.89,-0.06007393961,-0.2639533806
4.9,-0.07369048777,-0.266030314
4.91,-0.0883047807,-0.2667890882
4.92,-0.1036500076,-0.2659749628
4.93,-0.1193947738,-0.263403015
4.94,-0.1351623488,-0.2589757333
4.95,-0.1505551367,-0.2526950785
4.96,-0.1651826727,-0.2446673519
4.97,-0.1786909015,-0.235099775
4.98,-0.190790146,-0.2242884265
4.99,-0.2012790893,-0.2125980339
5,-0.2100622914,-0.2004349839
5.01,-0.2171592526,-0.1882156866
5.02,-0.2227037687,-0.1763330306
5.03,-0.226933235,-0.1651239965
5.04,-0.230168556,-0.1548415198
5.05,-0.2327862838,-0.1456333876
5.06,-0.2351854517,-0.137530336
5.07,-0.2377521654,-0.1304446435
5.08,-0.240825309,-0.1241794864
5.09,-0.2446666648,-0.1184482358
5.1,-0.2494383341,-0.1129018635
5.11,-0.2551896259,-0.1071617855
5.12,-0.2618546219,-0.1008549162
5.13,-0.2692605347,-0.09364748601
5.14,-0.2771458672,-0.08527432046
5.15,-0.2851863855,-0.07556078228
5.16,-0.2930261304,-0.06443537298
5.17,-0.3003102211,-0.05193200113
5.18,-0.3067160849,-0.0381820286
5.19,-0.3119799969,-0.02339728105
5.2,-0.3159164056,-0.007846134304
5.21,-0.3184283688,0.008174540275
5.22,-0.319508444,0.02436844083
5.23,-0.3192304393,0.04046679063
5.24,-0.3177334166,0.05625042436
5.25,-0.3152001356,0.07156490632
5.26,-0.3118326532,0.08632746155
5.27,-0.307827979,0.1005254919
5.28,-0.3033565334,0.1142074309
5.29,-0.2985456799,0.1274675488
5.3,-0.2934698695,0.1404269464
5.31,-0.2881480489,0.1532133094
5.32,-0.2825480513,0.1659419968
5.33,-0.276596825,0.1787007167
5.34,-0.2701946778,0.1915394504
5.35,-0.2632312839,0.2044665037
5.36,-0.2556010878,0.2174506904
5.37,-0.2472159368,0.2304288036
5.38,-0.2380132571,0.2433168149
5.39,-0.2279588004,0.2560227509
5.4,-0.2170438205,0.268458994
5.41,-0.2052773888,0.2805518673
5.42,-0.1926753168,0.2922467819
5.43,-0.1792477033,0.3035078831
5.44,-0.1649874094,0.3143119619
5.45,-0.1498617306,0.3246372725
5.46,-0.1338091831,0.3344487222
5.47,-0.1167426986,0.3436815469
5.48,-0.09855968778,0.3522259901
5.49,-0.07915849954,0.3599155803
5.5,-0.05845987573,0.3665213571
5.51,-0.03643120265,0.3717538262
5.52,-0.0131107897,0.3752736017
5.53,0.0113708579,0.3767107071
5.54,0.03677571945,0.3756914647
5.55,0.062751404,0.3718709305
5.56,0.08883452683,0.3649680474
5.57,0.1144651049,0.3548001771
5.58,0.1390116514,0.3413135041
5.59,0.1618055295,0.3246060093
5.6,0.1821821182,0.3049402601
5.61,0.1995255504,0.2827441249
5.62,0.2133133035,0.2585985863
5.63,0.2231567921,0.2332130069
5.64,0.2288343689,0.2073893614
5.65,0.2303137328,0.1819779807
5.66,0.2277616332,0.1578281468
5.67,0.2215398456,0.1357373574
5.68,0.2121875622,0.1164032108
5.69,0.2003914942,0.1003816226
5.7,0.1869459891,0.08805452728
5.71,0.1727062547,0.07960938415
5.72,0.1585382715,0.07503179598
5.73,0.1452691389,0.07411145751
5.74,0.1336414361,0.07646058206
5.75,0.124274715,0.08154300755
5.76,0.1176365398,0.08871143462
5.77,0.114024621,0.0972497571
5.78,0.1135606529,0.1064172337
5.79,0.1161955343,0.1154913205
5.8,0.1217248182,0.1238063069
5.81,0.1298125581,0.1307854279
5.82,0.1400212436,0.1359647972
5.83,0.151845269,0.1390082511
5.84,0.1647453493,0.1397129401
5.85,0.1781814792,0.1380061943
5.86,0.191642372,0.1339347668
5.87,0.2046697852,0.1276479915
5.88,0.2168766727,0.1193766654
5.89,0.2279586623,0.1094095686
5.9,0.2376988873,0.09806949195
5.91,0.2459666734,0.08569046225
5.92,0.2527109617,0.07259757305
5.93,0.2579496262,0.05909047934
5.94,0.261756007,0.04543122167
5.95,0.2642440293,0.03183665019
5.96,0.2655532273,0.01847534226
5.97,0.2658348483,0.005468574941
5.98,0.2652399964,-0.007105357987
5.99,0.2639105073,-0.01920439361
6,0.2619729382,-0.03081453722
