"Freq [GHz]","re(S(Tx_p1,Tx_p1)) []","im(S(Tx_p1,Tx_p1)) []"
1,0.3644828084,-0.3116950279
1.01,0.3555956678,-0.3355062243
1.02,0.3442390883,-0.3592954044
1.03,0.3303525885,-0.38267859
1.04,0.3139569012,-0.40525217
1.05,0.2951613656,-0.4266157128
1.06,0.2741627047,-0.4463978948
1.07,0.2512339976,-0.4642815167
1.08,0.2267046998,-0.480023263
1.09,0.2009345895,-0.4934645869
1.1,0.1742860056,-0.5045317473
1.11,0.1470992986,-0.5132252539
1.12,0.1196758436,-0.5196012629
1.13,0.09227133805,-0.523749261
1.14,0.06509978689,-0.5257712105
1.15,0.0383460909,-0.5257669717
1.16,0.01218308523,-0.523829321
1.17,-0.01321227451,-0.5200495498
1.18,-0.03764881284,-0.5145319787
1.19,-0.06092103034,-0.5074133667
1.2,-0.08282059264,-0.4988817034
1.21,-0.1031582281,-0.4891886222
1.22,-0.12179223,-0.4786507476
1.23,-0.1386578977,-0.4676374764
1.24,-0.1537915787,-0.4565455135
1.25,-0.1673436613,-0.4457633436
1.26,-0.1795767806,-0.4356310684
1.27,-0.1908482364,-0.4264021972
1.28,-0.2015785622,-0.4182137806
1.29,-0.2122107146,-0.4110698146
1.3,-0.2231659397,-0.4048404417
1.31,-0.2348027265,-0.3992766836
1.32,-0.2473843595,-0.3940378485
1.33,-0.2610586829,-0.3887269194
1.34,-0.2758512786,-0.3829284746
1.35,-0.2916709123,-0.3762441118
1.36,-0.3083243346,-0.3683217014
1.37,-0.3255366765,-0.3588766755
1.38,-0.3429738352,-0.3477054541
1.39,-0.3602642408,-0.3346925318
1.4,-0.3770188648,-0.3198133722
1.41,-0.3928497679,-0.3031349827
1.42,-0.4073884406,-0.2848150389
1.43,-0.4203053551,-0.2650990928
1.44,-0.4313314682,-0.2443141886
1.45,-0.4402810783,-0.2228565807
1.46,-0.4470738347,-0.2011714759
1.47,-0.4517523131,-0.1797238791
1.48,-0.4544908897,-0.1589615043
1.49,-0.4555920059,-0.1392728902
1.5,-0.4554673619,-0.1209457643
1.51,-0.4546039151,-0.1041318203
1.52,-0.4535173111,-0.0888240237
1.53,-0.4526979835,-0.07485123648
1.54,-0.4525570005,-0.06189250192
1.55,-0.4533793665,-0.0495102099
1.56,-0.4552916693,-0.03719818934
1.57,-0.4582488317,-0.0244382203
1.58,-0.4620416761,-0.01075705425
1.59,-0.4663236555,0.004223934762
1.6,-0.4706521015,0.02075288636
1.61,-0.4745372912,0.03892922013
1.62,-0.4774919225,0.0587037338
1.63,-0.4790743037,0.07989469828
1.64,-0.4789204643,0.1022153022
1.65,-0.4767630001,0.1253066364
1.66,-0.4724371589,0.1487705355
1.67,-0.4658768734,0.1721978671
1.68,-0.4571047096,0.1951898787
1.69,-0.4462198171,0.2173724372
1.7,-0.433387042,0.2384048447
1.71,-0.4188287321,0.2579859635
1.72,-0.4028189532,0.2758604227
1.73,-0.3856783439,0.2918267976
1.74,-0.3677670831,0.3057481445
1.75,-0.3494736214,0.317563619
1.76,-0.3311978912,0.3272985883
1.77,-0.3133293363,0.3350700981
1.78,-0.2962218351,0.3410849446
1.79,-0.2801689104,0.3456288654
1.8,-0.2653831547,0.3490471702
1.81,-0.251983354,0.3517190311
1.82,-0.2399914507,0.3540291343
1.83,-0.2293395354,0.3563410574
1.84,-0.219884998,0.3589763617
1.85,-0.2114303217,0.3622020512
1.86,-0.2037432042,0.3662270608
1.87,-0.1965729567,0.3712062962
1.88,-0.1896604062,0.3772489949
1.89,-0.182740523,0.3844272522
1.9,-0.1755392103,0.3927807434
1.91,-0.1677675608,0.402314939
1.92,-0.1591179006,0.4129921714
1.93,-0.1492658139,0.4247172551
1.94,-0.1378810592,0.4373213916
1.95,-0.1246481342,0.4505492906
1.96,-0.1092946915,0.464054466
1.97,-0.09162368273,0.4774064415
1.98,-0.07154357566,0.4901113615
1.99,-0.0490906671,0.5016447401
2,-0.02443852443,0.5114924164
2.01,0.002108268607,0.5191938432
2.02,0.03013605526,0.5243810559
2.03,0.05915682408,0.5268072496
2.04,0.0886504398,0.5263607292
2.05,0.1181078564,0.5230626898
2.06,0.1470688646,0.5170502312
2.07,0.1751493082,0.5085485608
2.08,0.202055035,0.4978379514
2.09,0.2275825807,0.4852213813
2.1,0.251609101,0.4709978875
2.11,0.2740758095,0.455444757
2.12,0.2949697917,0.4388092838
2.13,0.3143084775,0.4213085194
2.14,0.3321294907,0.4031338026
2.15,0.3484865233,0.3844562322
2.16,0.363449858,0.365429721
2.17,0.3771087115,0.3461896663
2.18,0.3895720569,0.326847172
2.19,0.400965131,0.3074806283
2.2,0.4114202663,0.288127755
2.21,0.4210626068,0.2687815925
2.22,0.429993131,0.249393244
2.23,0.4382726975,0.2298826135
2.24,0.445911181,0.2101563262
2.25,0.4528650295,0.1901299978
2.26,0.4590448968,0.1697505625
2.27,0.4643327616,0.149013903
2.28,0.4686056971,0.1279736982
2.29,0.4717617612,0.1067391093
2.3,0.4737427663,0.08546125721
2.31,0.4745491601,0.06431088722
2.32,0.4742438195,0.04345157514
2.33,0.4729438867,0.02301384274
2.34,0.4708023118,0.00307536309
2.35,0.4679829216,-0.01634890869
2.36,0.464634109,-0.0353050227
2.37,0.4608663505,-0.05388758087
2.38,0.4567377061,-0.07221962229
2.39,0.4522495034,-0.0904293883
2.4,0.4473520297,-0.1086288661
2.41,0.4419578393,-0.126898203
2.42,0.4359587599,-0.145278347
2.43,0.4292422025,-0.1637720578
2.44,0.4217030229,-0.1823513194
2.45,0.413248758,-0.2009676788
2.46,0.4037981392,-0.2195615216
2.47,0.3932748337,-0.2380668793
2.48,0.3815998271,-0.2564098861
2.49,0.3686863687,-0.2745010559
2.5,0.3544408086,-0.2922235841
2.51,0.3387711275,-0.3094213705
2.52,0.3216028604,-0.3258910048
2.53,0.302899991,-0.3413814144
2.54,0.2826867596,-0.3556033288
2.55,0.2610656291,-0.3682485496
2.56,0.2382270768,-0.3790167377
2.57,0.2144483493,-0.3876456112
2.58,0.1900804778,-0.3939395183
2.59,0.1655252061,-0.3977915473
2.6,0.1412054747,-0.3991955991
2.61,0.1175342608,-0.3982468943
2.62,0.0948866387,-0.3951317098
2.63,0.07357888599,-0.3901091858
2.64,0.05385661847,-0.3834893123
2.65,0.0358917566,-0.3756114278
2.66,0.01978617102,-0.3668267071
2.67,0.005578602416,-0.3574864549
2.68,-0.006748790243,-0.3479359873
2.69,-0.0172670866,-0.3385120454
2.7,-0.026101669,-0.3295405245
2.71,-0.03343689921,-0.3213311578
2.72,-0.03952180452,-0.3141666947
2.73,-0.0446730514,-0.308285853
2.74,-0.04927139002,-0.3038614464
2.75,-0.05374875612,-0.3009770428
2.76,-0.05856511791,-0.2996067707
2.77,-0.06417651003,-0.2996030822
2.78,-0.0709979329,-0.3006963037
2.79,-0.07936635492,-0.3025078323
2.8,-0.08950953585,-0.3045763113
2.81,-0.1015256399,-0.3063936006
2.82,-0.1153767641,-0.3074454385
2.83,-0.1308969685,-0.3072508203
2.84,-0.1478127346,-0.3053945045
2.85,-0.1657716002,-0.3015486131
2.86,-0.1843735133,-0.295481652
2.87,-0.2031994673,-0.287055888
2.88,-0.2218331873,-0.2762162778
2.89,-0.2398737265,-0.2629755501
2.9,-0.2569392816,-0.2474002773
2.91,-0.272664755,-0.2296018322
2.92,-0.2866970429,-0.2097342619
2.93,-0.2986923916,-0.1879988274
2.94,-0.3083193692,-0.1646528169
2.95,-0.3152692856,-0.1400187816
2.96,-0.3192736986,-0.1144899153
2.97,-0.3201265275,-0.08852800051
2.98,-0.3177068049,-0.06265198231
2.99,-0.3119975921,-0.03741738506
3,-0.303097187,-0.01338890415
3.01,-0.2912202992,0.008889945599
3.02,-0.2766889495,0.02892563498
3.03,-0.2599149525,0.04629786319
3.04,-0.2413774284,0.06067464352
3.05,-0.2215994685,0.07181862891
3.06,-0.201127689,0.07958611442
3.07,-0.1805170727,0.08392170936
3.08,-0.1603215728,0.08485234037
3.09,-0.1410889686,0.08248385414
3.1,-0.1233569313,0.07700213343
3.11,-0.1076466271,0.06867866945
3.12,-0.09445063775,0.05787846493
3.13,-0.08421345868,0.04506653343
3.14,-0.07730497821,0.03080856691
3.15,-0.073989646,0.01576179764
3.16,-0.07439590804,0.0006536344885
3.17,-0.07849144523,-0.01375201211
3.18,-0.086069514,-0.02669820511
3.19,-0.09675024945,-0.03748348014
3.2,-0.1099984346,-0.04550919474
3.21,-0.125156468,-0.05031935582
3.22,-0.1414886754,-0.05162761606
3.23,-0.1582312654,-0.04932822492
3.24,-0.174641509,-0.04349038826
3.25,-0.1900402463,-0.03433815495
3.26,-0.2038434416,-0.02222004224
3.27,-0.2155808016,-0.007573716861
3.28,-0.2249019135,0.00910900603
3.29,-0.2315723819,0.02731269387
3.3,-0.2354636428,0.04652202055
3.31,-0.2365402997,0.06623837304
3.32,-0.234848033,0.08599075301
3.33,-0.2305036813,0.1053433924
3.34,-0.2236874372,0.1239025918
3.35,-0.214635738,0.1413245169
3.36,-0.2036327388,0.1573243389
3.37,-0.1909984336,0.1716856202
3.38,-0.1770724662,0.1842676921
3.39,-0.1621941701,0.1950083237
3.4,-0.146680954,0.2039194214
3.41,-0.1308083239,0.2110747562
3.42,-0.1147952354,0.2165904951
3.43,-0.09879790323,0.2206011481
3.44,-0.0829137416,0.2232349458
3.45,-0.06719506614,0.2245932167
3.46,-0.05167004239,0.224737841
3.47,-0.03636664011,0.2236893585
3.48,-0.02133450198,0.22143611
3.49,-0.006659913018,0.2179523871
3.5,0.007529551225,0.213221521
3.51,0.02107189945,0.2072586548
3.52,0.03378776899,0.2001279145
3.53,0.04550398282,0.191949872
3.54,0.05607845005,0.1828973147
3.55,0.06542088365,0.1731799411
3.56,0.07350470221,0.1630210795
3.57,0.08036742565,0.1526313105
3.58,0.08609942053,0.1421845538
3.59,0.09082341177,0.1318016013
3.6,0.09466916633,0.1215443838
3.61,0.09774872049,0.1114218585
3.62,0.1001372587,0.1014058478
3.63,0.1018633456,0.09145305567
3.64,0.1029100147,0.08152830248
3.65,0.1032257703,0.07162400529
3.66,0.1027424269,0.06177204903
3.67,0.1013954014,0.05204614471
3.68,0.09914184955,0.04255505623
3.69,0.09597291416,0.03342913754
3.7,0.09191807531,0.02480396602
3.71,0.08704168582,0.01680518795
3.72,0.08143371611,0.00953796938
3.73,0.07519802573,0.003082899336
3.74,0.06844182231,-0.002501749532
3.75,0.06126930293,-0.007173315042
3.76,0.05378100036,-0.01089672043
3.77,0.0460784885,-0.01363855222
3.78,0.03827234665,-0.01536596918
3.79,0.03049012045,-0.01605167684
3.8,0.02288076957,-0.01568430759
3.81,0.01561284307,-0.01428176036
3.82,0.008865196189,-0.01190386023
3.83,0.002811062367,-0.008660437411
3.84,-0.002401792199,-0.004711699474
3.85,-0.00667078097,-0.0002594183231
3.86,-0.009953656347,0.004470415946
3.87,-0.01227540968,0.00925073085
3.88,-0.01372486337,0.01387802558
3.89,-0.01444112974,0.01819370301
3.9,-0.01459237353,0.02209779637
3.91,-0.01435107065,0.02555238425
3.92,-0.01387077205,0.0285742255
3.93,-0.01326905028,0.03121852238
3.94,-0.0126198928,0.03355767275
3.95,-0.01195663713,0.03565993697
3.96,-0.01128412652,0.03757286799
3.97,-0.01059667089,0.03931515287
3.98,-0.009897116521,0.04087847581
3.99,-0.009212157182,0.04223862333
4,-0.008599987743,0.04337287571
4.01,-0.008148267267,0.04427927622
4.02,-0.007962669205,0.04499297146
4.03,-0.008148499811,0.04559554792
4.04,-0.00878944434,0.04621495678
4.05,-0.0099280953,0.04701580486
4.06,-0.01155241322,0.04818196337
4.07,-0.01359082052,0.04989509137
4.08,-0.01591661111,0.05231341289
4.09,-0.01836027693,0.05555478142
4.1,-0.02072671349,0.05968682781
4.11,-0.02281345064,0.06472516028
4.12,-0.02442622686,0.07063864503
4.13,-0.02538929836,0.07735923416
4.14,-0.02554953386,0.08479300551
4.15,-0.0247751372,0.09282921157
4.16,-0.02295128685,0.1013451309
4.17,-0.01997570523,0.1102060814
4.18,-0.01575699289,0.1192616508
4.19,-0.01021754255,0.1283405549
4.2,-0.003301272607,0.1372471733
4.21,0.005015276729,0.1457625505
4.22,0.01471128667,0.1536515424
4.23,0.0257128558,0.1606761151
4.24,0.03789014396,0.1666130108
4.25,0.05106236051,0.1712725586
4.26,0.06501069446,0.1745147322
4.27,0.07949733369,0.1762588533
4.28,0.09428711775,0.1764845758
4.29,0.1091675425,0.1752236891
4.3,0.1239630252,0.172544387
4.31,0.1385405392,0.1685314501
4.32,0.1528056758,0.1632668175
4.33,0.1666904301,0.1568150022
4.34,0.1801360021,0.1492167054
4.35,0.1930751543,0.1404920467
4.36,0.205418853,0.1306524923
4.37,0.2170509758,0.119718396
4.38,0.2278329802,0.1077375795
4.39,0.2376180444,0.09479994972
4.4,0.246271853,0.08104389903
4.41,0.2536954731,0.06665200277
4.42,0.2598450471,0.05183592238
4.43,0.2647435139,0.03681288816
4.44,0.2684811407,0.02177810941
4.45,0.2712039582,0.006878488198
4.46,0.2730917076,-0.007807132703
4.47,0.2743290692,-0.02227723268
4.48,0.2750752639,-0.03660453085
4.49,0.2754373323,-0.05092113571
4.5,0.275451492,-0.06539471815
4.51,0.2750752018,-0.08020000796
4.52,0.2741903706,-0.09549041802
4.53,0.2726160588,-0.1113740477
4.54,0.2701275106,-0.1278969132
4.55,0.2664777397,-0.1450344002
4.56,0.2614182318,-0.1626901235
4.57,0.2547164628,-0.1807000659
4.58,0.2461694807,-0.198839362
4.59,0.2356143043,-0.2168294624
4.6,0.2229369021,-0.2343445039
4.61,0.2080817546,-0.2510171544
4.62,0.1910633792,-0.2664455427
4.63,0.171979895,-0.2802036855
4.64,0.1510270865,-0.2918577911
4.65,0.1285099598,-0.3009898854
4.66,0.1048479395,-0.3072285323
4.67,0.08056993146,-0.3102844107
4.68,0.05629657934,-0.3099866452
4.69,0.03270900223,-0.3063145723
4.7,0.01050572297,-0.299419419
4.71,-0.00964813235,-0.2896313096
4.72,-0.02717350904,-0.2774489683
4.73,-0.04162535302,-0.2635120894
4.74,-0.05272962037,-0.2485590635
4.75,-0.06040477908,-0.2333750201
4.76,-0.0647656161,-0.2187365096
4.77,-0.06610987777,-0.2053593308
4.78,-0.06489073512,-0.1938550215
4.79,-0.06167978483,-0.1846996301
4.8,-0.05712596321,-0.1782160271
4.81,-0.05191530728,-0.1745687423
4.82,-0.04673514629,-0.173768614
4.83,-0.04224445084,-0.1756837351
4.84,-0.03905020754,-0.1800533799
4.85,-0.03768829437,-0.1865026245
4.86,-0.03860673481,-0.1945568726
4.87,-0.04214950873,-0.2036570079
4.88,-0.04854015656,-0.2131769473
4.89,-0.05786588725,-0.2224456588
4.9,-0.07006433582,-0.2307751263
4.91,-0.08491606882,-0.237494417
4.92,-0.102046084,-0.24198829
4.93,-0.1209367813,-0.2437371093
4.94,-0.1409533245,-0.2423536736
4.95,-0.1613802971,-0.2376122569
4.96,-0.1814665514,-0.2294658328
4.97,-0.2004736205,-0.2180489955
4.98,-0.2177223794,-0.2036661944
4.99,-0.2326329679,-0.1867670915
5,-0.24475425,-0.1679126517
5.01,-0.2537809875,-0.1477366034
5.02,-0.2595590017,-0.1269069527
5.03,-0.2620804092,-0.1060913438
5.04,-0.2614721391,-0.08592850122
5.05,-0.2579811612,-0.06700617316
5.06,-0.2519591752,-0.04984441281
5.07,-0.2438481921,-0.03488206557
5.08,-0.2341668656,-0.02246421906
5.09,-0.2234960845,-0.01282910947
5.1,-0.2124616045,-0.006094334819
5.11,-0.2017116241,-0.002243801585
5.12,-0.1918881981,-0.001118157249
5.13,-0.1835930015,-0.002412124409
5.14,-0.1773498068,-0.005681898893
5.15,-0.1735676246,-0.01036458457
5.16,-0.1725093453,-0.01580973177
5.17,-0.1742706185,-0.02132083765
5.18,-0.1787725701,-0.02620266324
5.19,-0.185769972,-0.02980890035
5.2,-0.194874064,-0.03158441378
5.21,-0.205586891,-0.03109709049
5.22,-0.2173422745,-0.02805609214
5.23,-0.2295477588,-0.02231565104
5.24,-0.2416222198,-0.01386596158
5.25,-0.2530251827,-0.002814676524
5.26,-0.2632759397,0.01063638974
5.27,-0.2719627977,0.0262147209
5.28,-0.2787446939,0.04359707392
5.29,-0.2833485832,0.06242402367
5.3,-0.2855661801,0.08230909636
5.31,-0.2852528538,0.1028442368
5.32,-0.2823299813,0.1236044123
5.33,-0.2767902842,0.1441542993
5.34,-0.2687041028,0.1640592172
5.35,-0.2582236163,0.1829009983
5.36,-0.2455819694,0.2002977237
5.37,-0.2310851261,0.2159246843
5.38,-0.2150958417,0.229532989
5.39,-0.1980110133,0.2409621973
5.4,-0.1802353669,0.2501442536
5.41,-0.1621555125,0.2570976475
5.42,-0.1441185639,0.2619127239
5.43,-0.1264186925,0.2647309397
5.44,-0.1092933573,0.2657221444
5.45,-0.09292888815,0.2650643264
5.46,-0.07747309336,0.2629296203
5.47,-0.0630510888,0.2594788483
5.48,-0.04977995871,0.2548648354
5.49,-0.03777829583,0.2492426708
5.5,-0.02716802169,0.2427834748
5.51,-0.01806783036,0.2356874564
5.52,-0.01057966064,0.2281922768
5.53,-0.004771292303,0.2205739087
5.54,-0.0006590827503,0.2131389919
5.55,0.001805193751,0.2062097015
5.56,0.002740437363,0.2001038609
5.57,0.002333952592,0.1951140526
5.58,0.0008314543715,0.1914895624
5.59,-0.001478307087,0.1894241523
5.6,-0.004280894836,0.1890511135
5.61,-0.007251923253,0.1904452149
5.62,-0.01006833865,0.1936294941
5.63,-0.0124138401,0.1985837676
5.64,-0.01397880966,0.205251511
5.65,-0.01445676058,0.2135424483
5.66,-0.01354039725,0.223329585
5.67,-0.01092063341,0.2344411802
5.68,-0.006291269079,0.2466498127
5.69,0.0006393584231,0.2596618367
5.7,0.01013021056,0.2731108509
5.71,0.02238505813,0.286558231
5.72,0.0375290981,0.2995024369
5.73,0.05558856574,0.3113970371
5.74,0.0764767925,0.3216756231
5.75,0.09998894268,0.3297804467
5.76,0.1258059766,0.3351910289
5.77,0.1535066592,0.3374492717
5.78,0.1825850889,0.3361786747
5.79,0.2124705946,0.3310968009
5.8,0.2425470643,0.3220217535
5.81,0.2721697635,0.3088746704
5.82,0.3006791617,0.2916807977
5.83,0.3274128219,0.2705714012
5.84,0.3517175648,0.2457877111
5.85,0.3729645578,0.2176865345
5.86,0.3905695298,0.1867455479
5.87,0.4040190425,0.1535650549
5.88,0.412901934,0.1188625244
5.89,0.4169431341,0.08345672464
5.9,0.4160355059,0.04823968246
5.91,0.410264612,0.01413676924
5.92,0.3999215787,-0.01794249697
5.93,0.3855005373,-0.04715834605
5.94,0.3676792311,-0.0727935045
5.95,0.3472838588,-0.09429873775
5.96,0.3252415794,-0.1113260083
5.97,0.3025258386,-0.1237458734
5.98,0.2801004556,-0.1316480861
5.99,0.2588681125,-0.1353267458
6,0.2396276274,-0.1352532877
