"Freq [GHz]","re(S(Tx_p1,Tx_p1)) []","im(S(Tx_p1,Tx_p1)) []"
1,0.392587911,-0.3017846757
1.01,0.3804191467,-0.3273418599
1.02,0.3659785156,-0.3519617248
1.03,0.3493700845,-0.3753935846
1.04,0.330730227,-0.3973931105
1.05,0.3102298509,-0.4177270213
1.06,0.2880758565,-0.4361791268
1.07,0.2645113068,-0.4525575706
1.08,0.2398138354,-0.4667029451
1.09,0.2142919101,-0.4784967968
1.1,0.1882787116,-0.4878699082
1.11,0.1621235691,-0.4948096595
1.12,0.1361811006,-0.4993657403
1.13,0.1107984205,-0.5016535119
1.14,0.08630098796,-0.5018544119
1.15,0.06297784752,-0.5002129505
1.16,0.04106715306,-0.4970300487
1.17,0.02074294219,-0.492652716
1.18,0.002104138637,-0.4874603328
1.19,-0.01483330744,-0.4818480699
1.2,-0.0301403727,-0.4762082252
1.21,-0.04397444932,-0.4709104689
1.22,-0.05657407769,-0.4662821333
1.23,-0.06824893594,-0.4625897567
1.24,-0.07936542181,-0.4600230801
1.25,-0.09032847448,-0.4586825916
1.26,-0.1015605658,-0.4585715322
1.27,-0.1134790148,-0.4595930158
1.28,-0.1264729301,-0.4615526039
1.29,-0.1408811438,-0.4641663272
1.3,-0.156972468,-0.4670737923
1.31,-0.1749294716,-0.4698556799
1.32,-0.1948367648,-0.4720546497
1.33,-0.2166744882,-0.4731984523
1.34,-0.2403173761,-0.4728239104
1.35,-0.2655394101,-0.4705003978
1.36,-0.2920237332,-0.465851493
1.37,-0.3193771812,-0.4585736352
1.38,-0.3471485359,-0.4484508237
1.39,-0.3748494122,-0.4353646692
1.4,-0.4019765959,-0.4192994111
1.41,-0.4280346223,-0.4003418094
1.42,-0.452557445,-0.3786761113
1.43,-0.4751281627,-0.3545745367
1.44,-0.4953959426,-0.3283839213
1.45,-0.5130894728,-0.300509299
1.46,-0.5280264864,-0.2713952817
1.47,-0.5401190998,-0.2415061258
1.48,-0.5493748903,-0.2113053569
1.49,-0.5558937965,-0.1812357811
1.5,-0.5598610532,-0.1517006457
1.51,-0.5615364769,-0.1230466425
1.52,-0.5612405014,-0.09554937481
1.53,-0.5593374414,-0.06940184702
1.54,-0.5562165283,-0.04470647185
1.55,-0.5522713486,-0.02147103013
1.56,-0.5478783979,0.000391054349
1.57,-0.543375564,0.02105585454
1.58,-0.5390414539,0.04077934732
1.59,-0.5350765738,0.05988310541
1.6,-0.5315874386,0.07873549982
1.61,-0.5285747199,0.09772889208
1.62,-0.5259265013,0.117253583
1.63,-0.5234175978,0.1376695904
1.64,-0.5207156863,0.1592776297
1.65,-0.5173946857,0.1822909319
1.66,-0.5129554252,0.2068097312
1.67,-0.506853162,0.232800342
1.68,-0.4985309811,0.2600807077
1.69,-0.4874575738,0.2883141103
1.7,-0.4731673922,0.3170123789
1.71,-0.4553007565,0.3455494281
1.72,-0.4336412132,0.373185325
1.73,-0.4081473323,0.3991003457
1.74,-0.3789762311,0.4224377153
1.75,-0.3464964292,0.4423529643
1.76,-0.3112881791,0.4580671617
1.77,-0.274130142,0.468920758
1.78,-0.2359721653,0.4744244443
1.79,-0.1978948884,0.4743033599
1.8,-0.1610579018,0.4685311719
1.81,-0.126639119,0.457351026
1.82,-0.09576882527,0.4412810966
1.83,-0.06946245323,0.4211034134
1.84,-0.04855646263,0.3978357431
1.85,-0.03365171127,0.3726874837
1.86,-0.02506839375,0.3470016935
1.87,-0.02281599521,0.3221864368
1.88,-0.02658079928,0.2996394955
1.89,-0.03573236075,0.280671098
1.9,-0.04934908632,0.2664295909
1.91,-0.06626175434,0.2578349053
1.92,-0.08511254815,0.255524237
1.93,-0.1044260745,0.2598135962
1.94,-0.1226879774,0.2706778437
1.95,-0.1384262062,0.2877505907
1.96,-0.1502898003,0.3103439956
1.97,-0.1571202278,0.3374871392
1.98,-0.1580108482,0.367980411
1.99,-0.1523509151,0.4004622823
2,-0.1398516334,0.4334840607
2.01,-0.1205530398,0.4655877622
2.02,-0.09481179803,0.4953821469
2.03,-0.06327128143,0.5216122214
2.04,-0.02681646312,0.5432181054
2.05,0.01348293633,0.559380026
2.06,0.05643694575,0.5695472703
2.07,0.1008030596,0.5734501063
2.08,0.1453527534,0.5710948801
2.09,0.1889326997,0.5627436194
2.1,0.2305171866,0.548880444
2.11,0.269249058,0.530167828
2.12,0.3044674523,0.5073962417
2.13,0.33572164,0.4814308976
2.14,0.3627712589,0.4531592338
2.15,0.3855741507,0.4234424311
2.16,0.4042637497,0.3930736987
2.17,0.4191185198,0.3627453607
2.18,0.4305262519,0.3330259777
2.19,0.4389461184,0.3043479256
2.2,0.444871249,0.2770050858
2.21,0.4487942667,0.2511596303
2.22,0.4511777581,0.2268563598
2.23,0.4524310878,0.2040426886
2.24,0.4528943602,0.1825921891
2.25,0.4528297377,0.1623295953
2.26,0.4524197744,0.1430553052
2.27,0.4517719715,0.1245676933
2.28,0.45092841,0.1066818949
2.29,0.4498790958,0.08924413885
2.3,0.4485775518,0.07214112658
2.31,0.4469572049,0.05530436322
2.32,0.4449472321,0.03870970854
2.33,0.4424867139,0.02237271505
2.34,0.4395361858,0.006340544101
2.35,0.4360859455,-0.009318602414
2.36,0.4321607484,-0.02452752669
2.37,0.4278207861,-0.03921254392
2.38,0.4231590826,-0.05331549721
2.39,0.4182956498,-0.06680441788
2.4,0.4133689139,-0.07968210231
2.41,0.4085250546,-0.09199203044
2.42,0.4039059941,-0.1038212202
2.43,0.3996368328,-0.1152997895
2.44,0.3958135494,-0.1265971781
2.45,0.3924917759,-0.1379151637
2.46,0.3896774144,-0.1494779824
2.47,0.3873197845,-0.1615200342
2.48,0.3853078781,-0.1742718092
2.49,0.3834701501,-0.1879448057
2.5,0.3815780929,-0.2027163136
2.51,0.3793536325,-0.2187150066
2.52,0.3764801524,-0.2360082978
2.53,0.3726167118,-0.2545923778
2.54,0.3674147871,-0.2743857491
2.55,0.3605366523,-0.2952269041
2.56,0.35167434,-0.3168765707
2.57,0.3405680097,-0.3390246717
2.58,0.3270225062,-0.3613018347
2.59,0.3109209344,-0.3832949657
2.6,0.2922342099,-0.4045660855
2.61,0.2710257616,-0.4246733493
2.62,0.2474508596,-0.4431929542
2.63,0.2217503991,-0.4597405067
2.64,0.19423936,-0.4739903853
2.65,0.1652905587,-0.4856917173
2.66,0.1353146813,-0.4946797691
2.67,0.1047378997,-0.500881842
2.68,0.07397860054,-0.50431714
2.69,0.04342487781,-0.5050905018
2.7,0.01341443486,-0.5033803528
2.71,-0.01578158803,-0.4994216737
2.72,-0.0439695992,-0.4934851887
2.73,-0.07103845294,-0.4858542936
2.74,-0.0969577993,-0.4768014605
2.75,-0.1217699175,-0.4665659379
2.76,-0.1455755661,-0.4553345127
2.77,-0.1685148564,-0.4432269087
2.78,-0.1907445638,-0.4302870776
2.79,-0.212413599,-0.4164812167
2.8,-0.233638548,-0.4017028547
2.81,-0.2544812269,-0.3857848142
2.82,-0.2749301003,-0.3685173339
2.83,-0.2948871641,-0.3496711528
2.84,-0.3141615275,-0.3290239526
2.85,-0.3324704665,-0.3063882696
2.86,-0.3494481906,-0.2816388254
2.87,-0.3646620146,-0.2547372192
2.88,-0.3776350856,-0.2257520571
2.89,-0.3878743328,-0.1948728741
2.9,-0.3949019076,-0.1624165931
2.91,-0.3982881029,-0.1288257562
2.92,-0.3976835953,-0.09465830483
2.93,-0.3928488542,-0.06056924981
2.94,-0.383678714,-0.02728511733
2.95,-0.370220385,0.004427457057
2.96,-0.3526835832,0.03379721585
2.97,-0.3314419428,0.06008579838
2.98,-0.3070254205,0.08262509526
2.99,-0.2801039546,0.1008522413
3,-0.2514631815,0.1143401886
3.01,-0.2219734906,0.1228220724
3.02,-0.1925540904,0.1262079578
3.03,-0.1641340395,0.1245930182
3.04,-0.1376123511,0.118256704
3.05,-0.1138193013,0.1076529828
3.06,-0.09348096273,0.09339223856
3.07,-0.0771887626,0.07621586987
3.08,-0.06537553991,0.05696500494
3.09,-0.05829917862,0.03654503141
3.1,-0.05603445125,0.01588781097
3.11,-0.05847324578,-0.004086494492
3.12,-0.06533289915,-0.02250611197
3.13,-0.07617194836,-0.03858114543
3.14,-0.0904122569,-0.05163238996
3.15,-0.1073661978,-0.06111431112
3.16,-0.1262673859,-0.066631386
3.17,-0.146303356,-0.06794738243
3.18,-0.1666485822,-0.06498753141
3.19,-0.1864963149,-0.05783390388
3.2,-0.2050878737,-0.04671461727
3.21,-0.2217382539,-0.03198775557
3.22,-0.2358571638,-0.01412107758
3.23,-0.2469649054,0.006331291981
3.24,-0.2547027968,0.02875394766
3.25,-0.2588381247,0.0524958449
3.26,-0.2592638693,0.07689536083
3.27,-0.2559936654,0.101303769
3.28,-0.2491526362,0.1251062923
3.29,-0.2389648621,0.147740091
3.3,-0.2257383174,0.1687087479
3.31,-0.2098481331,0.187593012
3.32,-0.1917190216,0.2040577548
3.33,-0.1718076431,0.2178552576
3.34,-0.1505856072,0.2288250939
3.35,-0.1285236935,0.2368909802
3.36,-0.1060777592,0.242055048
3.37,-0.0836766793,0.2443900419
3.38,-0.06171253939,0.2440299686
3.39,-0.04053319596,0.2411597214
3.4,-0.02043720976,0.2360041832
3.41,-0.00167107288,0.2288172744
3.42,0.01557142771,0.2198713655
3.43,0.03114792944,0.2094474175
3.44,0.04496456642,0.1978261535
3.45,0.05697170298,0.185280499
3.46,0.06715866483,0.1720694591
3.47,0.07554781999,0.1584335331
3.48,0.08218836649,0.14459169
3.49,0.08715017524,0.1307398593
3.5,0.0905180144,0.1170508175
3.51,0.09238644446,0.103675283
3.52,0.09285562099,0.0907439729
3.53,0.09202817568,0.07837032439
3.54,0.09000726774,0.06665355366
3.55,0.08689581102,0.0556817081
3.56,0.08279679133,0.04553437877
3.57,0.07781450088,0.03628477199
3.58,0.07205643784,0.02800089503
3.59,0.06563555623,0.02074568836
3.6,0.0586725102,0.01457603098
3.61,0.05129752291,0.009540650214
3.62,0.04365152526,0.005677074856
3.63,0.03588625564,0.003007872878
3.64,0.02816308628,0.001536502991
3.65,0.02065043986,0.001243175299
3.66,0.0135197767,0.002081153658
3.67,0.006940257716,0.00397393639
3.68,0.001072314142,0.006813720509
3.69,-0.003939530526,0.01046148835
3.7,-0.007974145156,0.01474895772
3.71,-0.01094107423,0.0194825133
3.72,-0.01278707935,0.02444909689
3.73,-0.01350140538,0.02942388573
3.74,-0.01311928453,0.03417944418
3.75,-0.0117232776,0.03849590361
3.76,-0.009442171099,0.04217162026
3.77,-0.006447296242,0.04503368832
3.78,-0.002946299474,0.0469476542
3.79,0.0008254347502,0.04782578986
3.8,0.004615343603,0.04763334035
3.81,0.008165715097,0.04639226112
3.82,0.01122655542,0.04418209762
3.83,0.01356858244,0.04113782604
3.84,0.01499559785,0.03744465812
3.85,0.015355504,0.03333000267
3.86,0.01454929393,0.0290529586
3.87,0.01253745182,0.02489187562
3.88,0.009343348935,0.02113064792
3.89,0.005053397033,0.01804449308
3.9,-0.0001860838414,0.01588600744
3.91,-0.006175128635,0.01487227581
3.92,-0.01266917873,0.01517375035
3.93,-0.01939041412,0.01690550383
3.94,-0.02604072877,0.02012131482
3.95,-0.03231562455,0.02481086858
3.96,-0.03791826067,0.03090016811
3.97,-0.04257290631,0.03825506045
3.98,-0.04603710308,0.04668760615
3.99,-0.04811194334,0.05596486654
4,-0.04865000379,0.06581956368
4.01,-0.04756062826,0.07596198887
4.02,-0.04481241873,0.08609249889
4.03,-0.04043295735,0.09591394663
4.04,-0.03450593245,0.1051434389
4.05,-0.02716597088,0.1135228949
4.06,-0.0185915785,0.1208279833
4.07,-0.008996657881,0.1268751399
4.08,0.001378895613,0.1315264922
4.09,0.01227901868,0.1346926469
4.1,0.02344125598,0.1363334069
4.11,0.03460607161,0.1364565842
4.12,0.04552535358,0.1351151493
4.13,0.05596985143,0.1324030083
4.14,0.0657353745,0.1284497283
4.15,0.07464766191,0.1234145304
4.16,0.08256591129,0.1174798602
4.17,0.08938501688,0.110844808
4.18,0.09503661567,0.1037186104
4.19,0.09948907285,0.09631441845
4.2,0.1027465542,0.08884346322
4.21,0.1048473359,0.08150970756
4.22,0.1058614919,0.0745050305
4.23,0.1058880829,0.06800496064
4.24,0.105051949,0.06216495418
4.25,0.1035001819,0.05711720231
4.26,0.1013983361,0.05296795117
4.27,0.09892641856,0.04979532302
4.28,0.09627468694,0.04764763751
4.29,0.09363928392,0.04654224346
4.3,0.09121773841,0.04646488326
4.31,0.08920437331,0.04736961941
4.32,0.08778567278,0.0491793563
4.33,0.08713567663,0.05178698765
4.34,0.08741148368,0.05505719139
4.35,0.08874895774,0.05882888089
4.36,0.09125873748,0.06291830356
4.37,0.09502265453,0.06712275898
4.38,0.100090662,0.07122488857
4.39,0.1064783691,0.07499747042
4.4,0.114165267,0.07820863639
4.41,0.1230937191,0.08062741506
4.42,0.1331687751,0.08202949329
4.43,0.1442588536,0.08220308047
4.44,0.1561973248,0.08095475241
4.45,0.1687850118,0.0781151447
4.46,0.1817936107,0.07354435854
4.47,0.1949700185,0.06713693444
4.48,0.2080415326,0.05882624196
4.49,0.2207218643,0.04858812746
4.5,0.2327178795,0.03644365953
4.51,0.2437369438,0.02246081426
4.52,0.2534947145,0.006754953382
4.53,0.2617231796,-0.0105120309
4.54,0.2681787103,-0.02913399879
4.55,0.2726498571,-0.0488643239
4.56,0.2749645992,-0.06942112876
4.57,0.2749967435,-0.09049392764
4.58,0.2726711756,-0.1117515416
4.59,0.2679676845,-0.1328510807
4.6,0.2609231236,-0.1534477233
4.61,0.2516317247,-0.1732049629
4.62,0.2402434535,-0.1918049524
4.63,0.2269603749,-0.2089585435
4.64,0.2120310859,-0.2244146134
4.65,0.1957433613,-0.2379682839
4.66,0.1784152456,-0.2494676681
4.67,0.1603849001,-0.2588188357
4.68,0.1419995784,-0.2659887538
4.69,0.1236041533,-0.2710060478
4.7,0.1055296443,-0.2739595118
4.71,0.08808220387,-0.2749944019
4.72,0.07153300805,-0.2743066368
4.73,0.05610946105,-0.272135125
4.74,0.04198807209,-0.2687525183
4.75,0.02928929155,-0.264454764
4.76,0.01807451026,-0.259549878
4.77,0.008345331801,-0.2543463981
4.78,4.512816244E-05,-0.2491419879
4.79,-0.006937211255,-0.2442126555
4.8,-0.01276152425,-0.239803016
4.81,-0.01762888859,-0.2361179805
4.82,-0.0217727517,-0.2333161788
4.83,-0.0254490822,-0.2315053389
4.84,-0.02892598274,-0.2307397511
4.85,-0.03247321442,-0.2310198391
4.86,-0.03635206874,-0.2322937628
4.87,-0.04080598517,-0.2344608806
4.88,-0.04605225233,-0.2373768212
4.89,-0.05227505383,-0.2408598507
4.9,-0.05962003123,-0.2446981847
4.91,-0.06819044304,-0.2486578793
4.92,-0.07804490816,-0.25249095
4.93,-0.08919664143,-0.2559434005
4.94,-0.101614025,-0.2587629024
4.95,-0.115222317,-0.2607059318
4.96,-0.1299062806,-0.2615442486
4.97,-0.1455135259,-0.2610706727
4.98,-0.1618583858,-0.2591041764
4.99,-0.1787261981,-0.2554943572
5,-0.1958779275,-0.250125375
5.01,-0.2130551238,-0.2429194339
5.02,-0.2299852709,-0.2338398578
5.03,-0.2463876237,-0.2228937518
5.04,-0.2619796464,-0.2101341689
5.05,-0.2764841488,-0.1956616227
5.06,-0.2896371753,-0.1796247027
5.07,-0.3011966131,-0.1622194901
5.08,-0.310951379,-0.1436874309
5.09,-0.3187309118,-0.1243113273
5.1,-0.3244145591,-0.1044091531
5.11,-0.3279403155,-0.0843254974
5.12,-0.3293122621,-0.06442058551
5.13,-0.3286059943,-0.04505701403
5.14,-0.3259713134,-0.02658455615
5.15,-0.3216315181,-0.009323621808
5.16,-0.3158787641,0.006451819733
5.17,-0.3090651644,0.02053085813
5.18,-0.3015895724,0.03278067041
5.19,-0.2938803058,0.0431587714
5.2,-0.2863744132,0.05172133369
5.21,-0.2794944222,0.05862656193
5.22,-0.273623815,0.06413234615
5.23,-0.2690827142,0.06858775177
5.24,-0.2661054095,0.07241831023
5.25,-0.2648213815,0.07610552638
5.26,-0.265241376,0.08016148149
5.27,-0.2672498482,0.08509984451
5.28,-0.2706047291,0.09140496948
5.29,-0.2749450072,0.0995010167
5.3,-0.2798060759,0.1097231598
5.31,-0.2846422336,0.1222929101
5.32,-0.2888551693,0.1372993977
5.33,-0.2918267801,0.1546880999
5.34,-0.2929542843,0.174258031
5.35,-0.2916853591,0.1956678235
5.36,-0.2875509642,0.2184505042
5.37,-0.2801936299,0.2420361276
5.38,-0.2693892781,0.2657808488
5.39,-0.2550610969,0.289000533
5.4,-0.2372845579,0.3110066566
5.41,-0.2162833165,0.3311420934
5.42,-0.1924164039,0.3488143996
5.43,-0.166157756,0.3635244275
5.44,-0.1380696731,0.3748884836
5.45,-0.1087722197,0.3826527695
5.46,-0.07891081548,0.3866994646
5.47,-0.04912432764,0.3870444647
5.48,-0.02001583864,0.38382743
5.49,0.007872048935,0.3772953664
5.5,0.03407596523,0.3677814022
5.51,0.0582237394,0.3556807168
5.52,0.0800393454,0.3414256797
5.53,0.09934119792,0.325462182
5.54,0.1160347128,0.3082288921
5.55,0.1301004811,0.2901407715
5.56,0.1415796947,0.2715776872
5.57,0.1505585823,0.2528784044
5.58,0.1571535587,0.2343396931
5.59,0.1614985738,0.2162197805
5.6,0.1637357906,0.1987449869
5.61,0.1640102666,0.1821181196
5.62,0.1624688097,0.1665270944
5.63,0.1592626747,0.1521523188
5.64,0.1545533136,0.1391715827
5.65,0.1485200397,0.1277615462
5.66,0.1413682382,0.1180953473
5.67,0.1333366821,0.1103363321
5.68,0.1247025924,0.1046283794
5.69,0.1157833064,0.1010837167
5.7,0.1069337634,0.09976944638
5.71,0.0985394415,0.1006942028
5.72,0.09100484828,0.1037964171
5.73,0.08473812341,0.1089355729
5.74,0.08013271797,0.1158876119
5.75,0.07754742811,0.1243453087
5.76,0.07728625589,0.1339240191
5.77,0.0795796291,0.1441727578
5.78,0.08456843551,0.1545901193
5.79,0.09229212439,0.1646441623
5.8,0.1026818247,0.173795068
5.81,0.1155590557,0.1815191781
5.82,0.130640199,0.1873329349
5.83,0.1475464993,0.1908152812
5.84,0.165818998,0.1916272195
5.85,0.1849375092,0.1895274654
5.86,0.204342537,0.184383417
5.87,0.2234589211,0.1761769887
5.88,0.2417199767,0.1650051732
5.89,0.2585909579,0.1510754939
5.9,0.2735908033,0.134696752
5.91,0.2863112944,0.1162656626
5.92,0.2964329517,0.09625009411
5.93,0.3037371847,0.07516969066
5.94,0.3081143889,0.05357467247
5.95,0.3095678301,0.03202358936
5.96,0.3082132723,0.01106076768
5.97,0.3042743956,-0.008805848132
5.98,0.2980741163,-0.02712578724
5.99,0.2900219869,-0.04352541954
6,0.2805979196,-0.05772494033
