"Freq [GHz]","re(S(Tx_p1,Tx_p1)) []","im(S(Tx_p1,Tx_p1)) []"
1,0.2244675357,-0.2502278598
1.01,0.2123018083,-0.2614757875
1.02,0.1997854755,-0.2703472423
1.03,0.1876194872,-0.2770299289
1.04,0.1763939599,-0.2819191268
1.05,0.166526866,-0.2855676069
1.06,0.1582241439,-0.288617501
1.07,0.1514664375,-0.2917231689
1.08,0.1460238306,-0.2954754781
1.09,0.1414958933,-0.3003376828
1.1,0.1373706613,-0.3066013012
1.11,0.1330934616,-0.3143673005
1.12,0.1281351377,-0.3235539894
1.13,0.1220495224,-0.3339287863
1.14,0.1145119933,-0.3451572196
1.15,0.1053344013,-0.3568598261
1.16,0.09445584625,-0.3686666113
1.17,0.08191307933,-0.3802594061
1.18,0.06779805651,-0.3913950123
1.19,0.05221235157,-0.4019059011
1.2,0.03522866228,-0.4116795884
1.21,0.01686824751,-0.4206221964
1.22,-0.002900063013,-0.4286150506
1.23,-0.02413794401,-0.4354749128
1.24,-0.04689617703,-0.4409282864
1.25,-0.07116166273,-0.4446079631
1.26,-0.09680380364,-0.4460758823
1.27,-0.1235323237,-0.4448713387
1.28,-0.1508775469,-0.4405782432
1.29,-0.1782006691,-0.4329005942
1.3,-0.2047363914,-0.4217326988
1.31,-0.2296643232,-0.4072103836
1.32,-0.2521998365,-0.3897317852
1.33,-0.2716907547,-0.3699408994
1.34,-0.2877040724,-0.3486732137
1.35,-0.3000875495,-0.3268695496
1.36,-0.3089946374,-0.305470256
1.37,-0.3148670469,-0.2853058176
1.38,-0.3183762435,-0.2670012727
1.39,-0.3203324599,-0.2509101241
1.4,-0.3215757077,-0.2370884665
1.41,-0.3228664267,-0.2253131974
1.42,-0.3247935478,-0.2151405391
1.43,-0.3277145432,-0.2059940667
1.44,-0.3317362274,-0.197266422
1.45,-0.3367376344,-0.1884167517
1.46,-0.3424286615,-0.1790471971
1.47,-0.3484319107,-0.168946136
1.48,-0.3543713624,-0.1580923786
1.49,-0.3599507354,-0.1466220153
1.5,-0.3650070331,-0.1347668012
1.51,-0.369530237,-0.1227780297
1.52,-0.3736469768,-0.1108521609
1.53,-0.3775733302,-0.09907360425
1.54,-0.3815479173,-0.08738596539
1.55,-0.3857599842,-0.07559702043
1.56,-0.3902878061,-0.06341576863
1.57,-0.3950602981,-0.05051347215
1.58,-0.3998497738,-0.03659598703
1.59,-0.4042975635,-0.02147270583
1.6,-0.4079677272,-0.005108154442
1.61,-0.4104185403,0.01235410928
1.62,-0.4112782546,0.03060015226
1.63,-0.410310917,0.04918562464
1.64,-0.4074600119,0.06759981952
1.65,-0.4028620017,0.08534230277
1.66,-0.396827421,0.101998419
1.67,-0.3897931939,0.1173004366
1.68,-0.3822548605,0.131164105
1.69,-0.3746905488,0.1436949441
1.7,-0.3674896941,0.1551638871
1.71,-0.3608983631,0.1659573531
1.72,-0.3549895203,0.1765110605
1.73,-0.3496620296,0.1872390405
1.74,-0.3446672991,0.1984697064
1.75,-0.3396577756,0.2103991061
1.76,-0.3342481357,0.2230680288
1.77,-0.3280783915,0.2363652337
1.78,-0.3208685279,0.250054528
1.79,-0.3124563924,0.2638196459
1.8,-0.3028138679,0.2773183287
1.81,-0.2920403555,0.2902360043
1.82,-0.280336592,0.3023303072
1.83,-0.2679647805,0.3134600355
1.84,-0.2552027914,0.3235951417
1.85,-0.2423006684,0.3328079756
1.86,-0.2294463288,0.3412492585
1.87,-0.2167451068,0.3491143964
1.88,-0.2042149426,0.3566069163
1.89,-0.1917959862,0.3639054955
1.9,-0.179371077,0.3711395677
1.91,-0.1667921481,0.3783764063
1.92,-0.1539071455,0.3856201712
1.93,-0.1405828092,0.3928211311
1.94,-0.1267201137,0.399891899
1.95,-0.1122607537,0.4067267169
1.96,-0.09718496017,0.4132197515
1.97,-0.08150242561,0.419279196
1.98,-0.06523905837,0.4248351005
1.99,-0.04842267324,0.4298402546
2,-0.03107044454,0.4342646658
2.01,-0.0131804317,0.4380850781
2.02,0.005271311939,0.4412717219
2.03,0.02432764273,0.443774732
2.04,0.04404164797,0.4455123141
2.05,0.0644631724,0.4463625298
2.06,0.08562203468,0.4461603556
2.07,0.1075098587,0.4447009668
2.08,0.1300625654,0.4417497012
2.09,0.1531458305,0.4370585735
2.1,0.1765458124,0.4303884359
2.11,0.1999672646,0.421535066
2.12,0.2230405599,0.4103565951
2.13,0.2453381826,0.3967991234
2.14,0.2664001454,0.3809171537
2.15,0.285766509,0.3628855463
2.16,0.3030137637,0.3430004598
2.17,0.3177910107,0.3216681912
2.18,0.3298516176,0.2993822772
2.19,0.339076181,0.2766909849
2.2,0.3454838337,0.2541589322
2.21,0.3492305967,0.2323273709
2.22,0.3505953011,0.2116778878
2.23,0.3499555118,0.192603646
2.24,0.3477572339,0.1753908295
2.25,0.3444827602,0.1602112006
2.26,0.3406209095,0.1471248127
2.27,0.3366428452,0.1360901994
2.28,0.3329849511,0.1269785929
2.29,0.3300386635,0.1195886605
2.3,0.328145505,0.1136588436
2.31,0.3275945182,0.1088758396
2.32,0.3286190891,0.1048793888
2.33,0.331390702,0.1012651682
2.34,0.3360086328,0.0975886725
2.35,0.3424862174,0.0933730714
2.36,0.3507358006,0.08812356736
2.37,0.360555848,0.08134962124
2.38,0.3716242809,0.07259438962
2.39,0.3835014162,0.06146884295
2.4,0.3956447474,0.04768672826
2.41,0.4074360879,0.03109552654
2.42,0.4182193871,0.01169854236
2.43,0.4273456074,-0.0103357851
2.44,0.4342196124,-0.03467957579
2.45,0.4383434606,-0.06086625413
2.46,0.4393508518,-0.08832422034
2.47,0.437028638,-0.1164194063
2.48,0.4313232595,-0.1445013513
2.49,0.4223323049,-0.1719471892
2.5,0.4102833763,-0.1981986152
2.51,0.3955041355,-0.2227881101
2.52,0.3783884682,-0.2453527552
2.53,0.3593635544,-0.2656360583
2.54,0.338861918,-0.2834798882
2.55,0.3173011557,-0.2988100111
2.56,0.2950721676,-0.3116192248
2.57,0.2725350206,-0.3219517447
2.58,0.2500201921,-0.3298915701
2.59,0.2278321052,-0.3355560622
2.6,0.2062519765,-0.3390943255
2.61,0.1855377016,-0.3406888007
2.62,0.1659195834,-0.3405575739
2.63,0.1475922534,-0.3389547219
2.64,0.130704395,-0.336166673
2.65,0.1153486732,-0.3325036254
2.66,0.101554447,-0.3282864596
2.67,0.08928524829,-0.3238307613
2.68,0.07844206638,-0.3194303316
2.69,0.06887219131,-0.315342901
2.7,0.06038193592,-0.3117802811
2.71,0.05275076452,-0.3089039285
2.72,0.04574432885,-0.3068256897
2.73,0.03912421616,-0.3056123193
2.74,0.03265330193,-0.3052913132
2.75,0.02609710199,-0.3058554727
2.76,0.01922278433,-0.3072641735
2.77,0.01179842948,-0.3094404704
2.78,0.0035952921,-0.3122646998
2.79,-0.005604759768,-0.3155666622
2.8,-0.0159957119,-0.319119562
2.81,-0.02772868456,-0.32263921
2.82,-0.04089070222,-0.3257912593
2.83,-0.05548482614,-0.3282078379
2.84,-0.07141614617,-0.3295130223
2.85,-0.08848765139,-0.3293543247
2.86,-0.1064083722,-0.3274356842
2.87,-0.1248140868,-0.3235466103
2.88,-0.1432983874,-0.3175822065
2.89,-0.161449616,-0.3095501994
2.9,-0.1788878222,-0.2995633797
2.91,-0.1952956099,-0.2878185337
2.92,-0.2104376933,-0.2745656028
2.93,-0.2241661333,-0.2600727418
2.94,-0.2364109057,-0.2445937029
2.95,-0.2471582742,-0.2283436348
2.96,-0.2564219623,-0.2114876972
2.97,-0.2642135042,-0.1941442478
2.98,-0.2705183361,-0.176401439
2.99,-0.2752830492,-0.1583432516
3,-0.2784169512,-0.1400790386
3.01,-0.2798082701,-0.1217698072
3.02,-0.2793522968,-0.1036448569
3.03,-0.2769861639,-0.08600421226
3.04,-0.2727235598,-0.06920500962
3.05,-0.2666824483,-0.05363289595
3.06,-0.2590997791,-0.03966240616
3.07,-0.2503294307,-0.02761255461
3.08,-0.2408225406,-0.01770483727
3.09,-0.2310923659,-0.0100306191
3.1,-0.2216685094,-0.004533429308
3.11,-0.2130471591,-0.001009257082
3.12,-0.2056446775,0.0008749962172
3.13,-0.1997612729,0.00154773573
3.14,-0.1955596962,0.001488792348
3.15,-0.1930613859,0.001182092178
3.16,-0.1921596344,0.001071883888
3.17,-0.1926465282,0.001528628089
3.18,-0.194248394,0.002828635118
3.19,-0.1966634602,0.005149071922
3.2,-0.1995954211,0.008577215668
3.21,-0.2027778478,0.01313035166
3.22,-0.2059864764,0.01878113032
3.23,-0.2090388799,0.02548257145
3.24,-0.2117835695,0.03318740056
3.25,-0.2140825646,0.0418579564
3.26,-0.2157925722,0.05146506787
3.27,-0.2167500517,0.06197671048
3.28,-0.2167644544,0.07333951215
3.29,-0.2156220805,0.08545765795
3.3,-0.2131008092,0.09817432917
3.31,-0.2089936833,0.1112604307
3.32,-0.2031374917,0.1244140117
3.33,-0.1954414089,0.1372718602
3.34,-0.1859105519,0.1494325188
3.35,-0.1746601416,0.1604879064
3.36,-0.1619174858,0.1700592929
3.37,-0.1480108937,0.1778326439
3.38,-0.1333467027,0.1835884175
3.39,-0.1183774112,0.1872218966
3.4,-0.1035650082,0.188751665
3.41,-0.08934406898,0.1883155437
3.42,-0.07608896482,0.186155065
3.43,-0.06408864443,0.1825909794
3.44,-0.0535311971,0.1779932161
3.45,-0.04449895974,0.1727490858
3.46,-0.03697356295,0.1672333114
3.47,-0.03084918401,0.1617828643
3.48,-0.02595145118,0.1566786459
3.49,-0.02205907476,0.152134907
3.5,-0.01892536401,0.1482962243
3.51,-0.01629715613,0.1452408973
3.52,-0.01392940765,0.1429888431
3.53,-0.01159465707,0.141511697
3.54,-0.009087500525,0.1407428085
3.55,-0.006225151159,0.1405851238
3.56,-0.002845901126,0.1409156496
3.57,0.001192317991,0.1415861389
3.58,0.006011095812,0.1424206857
3.59,0.01170672505,0.1432119361
3.6,0.018340649,0.143718357
3.61,0.0259256126,0.14366528
3.62,0.03440926652,0.1427522099
3.63,0.04365817114,0.1406680156
3.64,0.05344586606,0.1371142351
3.65,0.06344878437,0.1318350747
3.66,0.07325314355,0.1246509838
3.67,0.08237455935,0.1154913619
3.68,0.09029023457,0.1044212451
3.69,0.09648138924,0.09165694418
3.7,0.1004815523,0.07756671684
3.71,0.1019249047,0.06265447119
3.72,0.1005882681,0.04752686907
3.73,0.09642073164,0.03284674396
3.74,0.08955638327,0.01927796854
3.75,0.08030786013,0.00742834166
3.76,0.06914107817,-0.002202469433
3.77,0.05663414916,-0.009263523244
3.78,0.04342566495,-0.01357693846
3.79,0.03015890115,-0.01514348606
3.8,0.01742884331,-0.01412960567
3.81,0.005738229885,-0.01083853582
3.82,-0.004532781085,-0.005670247266
3.83,-0.01314090687,0.0009239181483
3.84,-0.01997802848,0.008485775934
3.85,-0.02505572472,0.01658861417
3.86,-0.02847999065,0.02486538288
3.87,-0.03042102395,0.03302481139
3.88,-0.03108299645,0.04085559254
3.89,-0.03067796597,0.04822057433
3.9,-0.02940672956,0.05504418516
3.91,-0.02744772449,0.06129689298
3.92,-0.02495340023,0.06698030485
3.93,-0.02205211493,0.0721156735
3.94,-0.0188527629,0.07673727264
3.95,-0.01544918202,0.08089060288
3.96,-0.01192190906,0.08463403896
3.97,-0.00833589398,0.08804156841
3.98,-0.004734158668,0.0912038996
3.99,-0.001128771025,0.09422553115
4,0.002508391723,0.09721629206
4.01,0.006252036405,0.1002772245
4.02,0.01022406818,0.1034822011
4.03,0.01458629512,0.1068580071
4.04,0.01952444344,0.1103665073
4.05,0.02522439029,0.1138927496
4.06,0.03184320151,0.1172422901
4.07,0.03947886694,0.1201497716
4.08,0.04814331745,0.1222990558
4.09,0.05774320851,0.1233532853
4.1,0.06807204652,0.1229915196
4.11,0.07881568416,0.1209473631
4.12,0.08957128177,0.1170445121
4.13,0.09987787498,0.1112244713
4.14,0.1092550434,0.103562763
4.15,0.1172450983,0.09427155383
4.16,0.123453867,0.08368848675
4.17,0.1275855554,0.07225327946
4.18,0.1294681798,0.06047506478
4.19,0.1290674605,0.04889432488
4.2,0.126488607,0.03804351245
4.21,0.1219668033,0.02841012433
4.22,0.1158482642,0.02040525669
4.23,0.1085643843,0.01433970454
4.24,0.1006017307,0.01040867408
4.25,0.09247054012,0.008685301007
4.26,0.08467407837,0.009122475272
4.27,0.07768081285,0.01156197899
4.28,0.07190091411,0.01574961373
4.29,0.0676681749,0.02135477116
4.3,0.06522799824,0.02799276477
4.31,0.06473166141,0.03524818331
4.32,0.06623659364,0.04269756258
4.33,0.06971193293,0.04992984414
4.34,0.07504820571,0.05656341335
4.35,0.08206966398,0.06225898767
4.36,0.09054770556,0.06672821781
4.37,0.1002139482,0.06973846956
4.38,0.1107719255,0.07111475609
4.39,0.1219069699,0.070740073
4.4,0.1332945303,0.06855535469
4.41,0.144607766,0.06455989922
4.42,0.155525607,0.05881247295
4.43,0.1657424579,0.05143254065
4.44,0.1749803077,0.04260036809
4.45,0.1830032542,0.03255430659
4.46,0.1896335135,0.02158354094
4.47,0.1947670735,0.0100150257
4.48,0.1983864901,-0.001805794572
4.49,0.2005681,-0.01353973601
4.5,0.2014812314,-0.02488213831
4.51,0.2013778334,-0.03559165065
4.52,0.2005721961,-0.04551592802
4.53,0.1994118876,-0.05461055312
4.54,0.1982424574,-0.06294803001
4.55,0.1973695873,-0.07071477223
4.56,0.1970230222,-0.07819547011
4.57,0.1973266594,-0.08574585366
4.58,0.1982786084,-0.09375642206
4.59,0.1997439066,-0.1026109572
4.6,0.2014610723,-0.1126443929
4.61,0.2030619817,-0.1241047639
4.62,0.2041029276,-0.1371234816
4.63,0.2041033713,-0.151697151
4.64,0.2025880282,-0.1676826978
4.65,0.1991276377,-0.1848059277
4.66,0.1933741034,-0.2026820166
4.67,0.185086564,-0.2208450617
4.68,0.1741462646,-0.2387828849
4.69,0.1605596213,-0.2559728883
4.7,0.1444504085,-0.2719149631
4.71,0.1260433253,-0.2861581975
4.72,0.1056421236,-0.2983192967
4.73,0.08360587564,-0.3080920442
4.74,0.06032677149,-0.3152485516
4.75,0.0362121085,-0.3196342514
4.76,0.01167200342,-0.3211593656
4.77,-0.01288696429,-0.3197898208
4.78,-0.03706323625,-0.3155402378
4.79,-0.06045892055,-0.3084708006
4.8,-0.08267814519,-0.2986886627
4.81,-0.1033276331,-0.2863533317
4.82,-0.1220214634,-0.2716843979
4.83,-0.1383910425,-0.2549692674
4.84,-0.1521001736,-0.2365683191
4.85,-0.1628639998,-0.2169151731
4.86,-0.1704697162,-0.1965104565
4.87,-0.1747964427,-0.1759084277
4.88,-0.1758315845,-0.1556969037
4.89,-0.1736813797,-0.1364719114
4.9,-0.1685740197,-0.1188092274
4.91,-0.1608546257,-0.1032353707
4.92,-0.1509722944,-0.09020065609
4.93,-0.1394602696,-0.0800566362
4.94,-0.1269109629,-0.07303973012
4.95,-0.1139479676,-0.06926215375
4.96,-0.1011973862,-0.06871051476
4.97,-0.0892607225,-0.0712516971
4.98,-0.07869130321,-0.07664499483
4.99,-0.06997572076,-0.08455891852
5,-0.06352117083,-0.09459073557
5.01,-0.05964884075,-0.1062866644
5.02,-0.05859276354,-0.1191607576
5.03,-0.06050287744,-0.1327109002
5.04,-0.06545053405,-0.1464309923
5.05,-0.0734344897,-0.1598192135
5.06,-0.0843855777,-0.1723831503
5.07,-0.09816881477,-0.1836433333
5.08,-0.114582582,-0.193137202
5.09,-0.1333555876,-0.2004255378
5.1,-0.1541433443,-0.205102908
5.11,-0.1765266299,-0.2068126952
5.12,-0.2000146293,-0.2052659941
5.13,-0.2240550491,-0.2002623136
5.14,-0.2480524579,-0.191708923
5.15,-0.2713945821,-0.1796351237
5.16,-0.2934845563,-0.1641979054
5.17,-0.3137755589,-0.1456764331
5.18,-0.3318032035,-0.1244544711
5.19,-0.3472108174,-0.1009919305
5.2,-0.3597634483,-0.07578880346
5.21,-0.3693480454,-0.04934640158
5.22,-0.3759595147,-0.02213165429
5.23,-0.3796748361,0.005449986611
5.24,-0.3806196543,0.03306877947
5.25,-0.3789332763,0.06046998138
5.26,-0.374738461,0.0874587882
5.27,-0.3681216613,0.1138741977
5.28,-0.3591275501,0.139557227
5.29,-0.3477690581,0.1643201261
5.3,-0.3340512331,0.1879232365
5.31,-0.3180045422,0.2100649173
5.32,-0.2997212816,0.2303876955
5.33,-0.2793879071,0.2485008955
5.34,-0.2573065295,0.2640169782
5.35,-0.2339004653,0.2765962174
5.36,-0.2097013282,0.2859926286
5.37,-0.1853182246,0.2920935575
5.38,-0.1613926594,0.2949461256
5.39,-0.1385452242,0.2947656871
5.4,-0.1173216175,0.2919242468
5.41,-0.09814577144,0.286919942
5.42,-0.08128681067,0.280331671
5.43,-0.06684441009,0.2727652581
5.44,-0.05475423493,0.2647987919
5.45,-0.04481201228,0.2569347644
5.46,-0.0367119358,0.2495653813
5.47,-0.03009301529,0.2429551349
5.48,-0.02458599575,0.2372418278
5.49,-0.01985373991,0.2324542074
5.5,-0.01561943233,0.2285417404
5.51,-0.01167934904,0.2254102729
5.52,-0.007899815834,0.2229566837
5.53,-0.004200834512,0.2210962472
5.54,-0.0005311697334,0.2197781484
5.55,0.00315895024,0.218987103
5.56,0.006941195818,0.2187318613
5.57,0.01092327551,0.2190239703
5.58,0.01525059339,0.2198520612
5.59,0.02009477787,0.2211577594
5.6,0.02563112487,0.2228189498
5.61,0.03200924906,0.2246446675
5.62,0.03932262995,0.2263836261
5.63,0.04758303932,0.2277457907
5.64,0.056705015,0.2284339521
5.65,0.06650379865,0.2281804073
5.66,0.07670783713,0.2267829196
5.67,0.08698450078,0.2241342382
5.68,0.09697554318,0.220240538
5.69,0.1063373657,0.215225938
5.7,0.1147805547,0.2093224145
5.71,0.1221034693,0.2028465639
5.72,0.1282157295,0.1961664203
5.73,0.1331490427,0.1896626724
5.74,0.1370545898,0.1836890483
5.75,0.1401879051,0.1785363735
5.76,0.142883561,0.1744040031
5.77,0.1455229067,0.171381177
5.78,0.148498556,0.1694395536
5.79,0.152179309,0.1684369209
5.8,0.156878828,0.1681309837
5.81,0.1628307477,0.1682012481
5.82,0.1701720909,0.1682764166
5.83,0.1789359484,0.1679643553
5.84,0.1890534258,0.1668816217
5.85,0.2003639276,0.1646797532
5.86,0.2126320192,0.1610660009
5.87,0.2255684513,0.15581694
5.88,0.2388525649,0.1487843456
5.89,0.2521533041,0.1398937749
5.9,0.2651464665,0.1291372997
5.91,0.2775266197,0.1165626168
5.92,0.2890131765,0.1022611722
5.93,0.2993512893,0.08635784859
5.94,0.3083092695,0.06900419059
5.95,0.3156749329,0.05037613052
5.96,0.3212534615,0.03067594126
5.97,0.3248689659,0.01013692196
5.98,0.3263710033,-0.01097162021
5.99,0.3256459916,-0.03234195355
6,0.3226320623,-0.05363071557
