"Freq [GHz]","re(S(Antenna1_1_1,Antenna1_1_1)) []","im(S(Antenna1_1_1,Antenna1_1_1)) []"
3,-0.197691438591988,-0.171389310462434
3.014,-0.205171969143747,-0.160182738312958
3.028,-0.212212169283388,-0.148549665969664
3.042,-0.218774010041436,-0.136399129538439
3.056,-0.22476997193327,-0.123652305220411
3.07,-0.230069291702412,-0.110260748781446
3.084,-0.234510486569008,-0.0962216425883507
3.098,-0.237918823502923,-0.081587906908334
3.112,-0.240126658580844,-0.0664716101232406
3.126,-0.240994082421139,-0.0510399531436518
3.14,-0.240427166030347,-0.0355040919365288
3.154,-0.238391347058555,-0.0201020509745428
3.168,-0.234918105152906,-0.00507781523165386
3.182,-0.230103960445773,0.0093407637356198
3.196,-0.224101857481214,0.0229624375628529
3.21,-0.217106011042321,0.0356488203354012
3.224,-0.209321516147461,0.047309985142461
3.238,-0.200975968414831,0.0579159912007824
3.252,-0.192293831138574,0.0675487652821694
3.266,-0.183428476457104,0.0763241694523789
3.28,-0.174473200883805,0.0843889392285899
3.294,-0.16545546473813,0.0918976706460662
3.308,-0.156339269609909,0.098989436629712
3.322,-0.147035213926854,0.105766744636419
3.336,-0.137416931205228,0.112279179254311
3.35,-0.127341976674919,0.118513480928718
3.364,-0.116674828243092,0.124391082973404
3.378,-0.105309515651811,0.129773348340992
3.392,-0.093189471271791,0.134473986770907
3.406,-0.0803224773545975,0.138277445475274
3.42,-0.0667890344222683,0.140961490710802
3.434,-0.052743061745004,0.14232176174656
3.448,-0.0383109228842896,0.142098214834272
3.462,-0.0239130038419594,0.140195031116271
3.476,-0.0099184704075457,0.136664879361553
3.49,0.00336591406421702,0.131635461270356
3.504,0.0156861994278384,0.125317656858251
3.518,0.0268661914728556,0.117983694905805
3.532,0.0368238329991852,0.109937791989097
3.546,0.0455767494852764,0.101482458621807
3.56,0.0532358400278998,0.092884378532111
3.574,0.0599871875113923,0.0843440633957648
3.588,0.0660640448542823,0.0759732794982505
3.602,0.0717120387050261,0.0677835011481878
3.616,0.0771518159455648,0.0596874098139388
3.63,0.0825439572542814,0.051513849886566
3.644,0.0879609631279702,0.0430348660065701
3.658,0.0933704292219738,0.0340017261496184
3.672,0.0986322165646782,0.0241854353516502
3.686,0.1035106353674,0.0134163958932708
3.7,0.107700630987226,0.00161773133656625
3.714,0.110864971740683,-0.011172574507554
3.728,0.112677785585058,-0.0247942207021146
3.742,0.11286873340505,-0.0389734078002817
3.756,0.111261818681514,-0.0533473271133926
3.77,0.107803383487443,-0.0675015334451631
3.784,0.102575172247288,-0.0810155638140251
3.798,0.0957902829239628,-0.0935109199881818
3.812,0.0877721037207509,-0.10469508120958
3.826,0.0789186333861344,-0.114395628951509
3.84,0.069656582027782,-0.122579795796861
3.854,0.0603910681907174,-0.129356627160539
3.868,0.051457372083938,-0.134961208592751
3.882,0.0432686019004101,-0.139711373010484
3.896,0.0358941528690742,-0.144176510298487
3.91,0.0289795559600696,-0.148780765340081
3.924,0.0222288508555686,-0.153769419726521
3.938,0.0152785608354362,-0.159250310918868
3.952,0.0077518378979602,-0.165180719379036
3.966,-0.000687031020012535,-0.171374114196572
3.98,-0.0102846316729598,-0.177525316611568
3.994,-0.021162765668559,-0.183250407350628
4.008,-0.0332992313738186,-0.188136018873009
4.022,-0.0465270043455417,-0.191791690008373
4.036,-0.0605514952057873,-0.193898792083086
4.05,-0.074983409406951,-0.194250138446866
4.064,-0.0893829494404315,-0.192775653750816
4.078,-0.103309867039077,-0.189551230827136
4.092,-0.116373301483819,-0.184789926798511
4.106,-0.12827546524981,-0.178816716463709
4.12,-0.138844023198551,-0.172029908736212
4.134,-0.14804935662511,-0.164853846997704
4.148,-0.156004658389664,-0.157688505017817
4.162,-0.162948784057633,-0.150861957785679
4.176,-0.169213780035143,-0.14459141179936
4.19,-0.17518081302415,-0.138957545973468
4.204,-0.181229639354322,-0.13389542907624
4.218,-0.187687613090909,-0.129203388067141
4.232,-0.194784423060582,-0.124569099162488
4.246,-0.202618221295286,-0.119610089268347
4.26,-0.211137586711131,-0.113924012204606
4.274,-0.220141968208953,-0.107142731024325
4.288,-0.229301058709593,-0.0989835813322931
4.302,-0.238191216264989,-0.0892913272057852
4.316,-0.246298424440292,-0.0779927604323847
4.33,-0.252966842170773,-0.0652025684800981
4.344,-0.257954310934048,-0.0515650917853334
4.358,-0.261107160046928,-0.0375493895083935
4.372,-0.262435130883419,-0.0236447059045781
4.386,-0.262107055788468,-0.0103030751316124
4.4,-0.260426992482979,0.00211260724817361
4.414,-0.25779407240533,0.0133686374287646
4.428,-0.254651332490053,0.0233838649004784
4.442,-0.251430101544354,0.0322337332019363
4.456,-0.248496945407055,0.0401348523481796
4.47,-0.246109703649516,0.0474123975645164
4.484,-0.244387863462603,0.0544547135327862
4.498,-0.243300609642919,0.0616609731359671
4.512,-0.242673632837569,0.0693884321459067
4.526,-0.242213472161293,0.0779056854557424
4.54,-0.241546100830769,0.0873574259696978
4.554,-0.240264871433635,0.097744686386553
4.568,-0.237981980586079,0.108922622950571
4.582,-0.234377361716457,0.120615823391072
4.596,-0.22923935351999,0.132449128725037
4.61,-0.222492531516117,0.143990258499703
4.624,-0.21420958971607,0.154799279635889
4.638,-0.204605946803763,0.164479261662072
4.652,-0.194017643673666,0.17272235990942
4.666,-0.18286491759702,0.179346055918725
4.68,-0.171605417454143,0.184315309006979
4.694,-0.160682219353646,0.187747843914308
4.708,-0.150472493288819,0.189901591368943
4.722,-0.141242773371165,0.191145254597189
4.736,-0.133116252991788,0.191914911915596
4.75,-0.126056372926958,0.192661282990816
4.764,-0.119962329007416,0.194183964686829
4.778,-0.114143796965672,0.196426267749588
4.792,-0.108187044272316,0.199431289191882
4.806,-0.101692907998708,0.203091234276452
4.82,-0.0943274336179982,0.207162444470066
4.834,-0.0858641791300769,0.211296769284354
4.848,-0.0762130594079028,0.215085436077655
4.862,-0.0654322354162507,0.218110002985698
4.876,-0.0537216522873786,0.219994073979509
4.89,-0.0413991333405065,0.220449348084505
4.904,-0.0288621411336791,0.219310296103011
4.918,-0.0165401255452604,0.216553221887564
4.932,-0.00484354753479537,0.212297479889873
4.946,0.00588396172979721,0.206788916850351
4.96,0.0154043192790027,0.200367874164292
4.974,0.0236098441203005,0.193426026325032
4.988,0.0305313450464117,0.186357687011477
5.002,0.0363287235525323,0.179511819924117
5.016,0.0412656033329265,0.173150784046762
5.03,0.0456714853819434,0.167420870841589
5.044,0.0498964238215036,0.162338101036428
5.058,0.054264047234853,0.157790762554332
5.072,0.059028830912815,0.153558051533166
5.086,0.0643428718718983,0.149342193010108
5.1,0.0702361356540772,0.144809806280376
5.114,0.0766124079418302,0.139637225405465
5.128,0.0832612174188954,0.133554097359639
5.142,0.089884039660196,0.126379885773031
5.156,0.0961313754933582,0.118048853176295
5.17,0.101646017191041,0.108620554287122
5.184,0.106107113370879,0.0982746672259526
5.198,0.109269592421848,0.0872909049183787
5.212,0.110994104235123,0.0760165607709493
5.226,0.111263817257561,0.064825739501344
5.24,0.110186023091874,0.0540753302883401
5.254,0.107978363590963,0.0440631751274413
5.268,0.104941384740578,0.0349936200386819
5.282,0.101420810319891,0.0269547379248837
5.296,0.0977642096549389,0.0199100825626577
5.31,0.0942774469441865,0.0137060433547625
5.324,0.0911863507144478,0.00809393676793847
5.338,0.0886084180131481,0.00276413166016332
5.352,0.0865381404483636,-0.00261200780546312
5.366,0.0848478570150631,-0.00833757383121966
5.38,0.083304110114957,-0.0146485229251549
5.394,0.0815975477582545,-0.0216802578481783
5.408,0.0793827197232866,-0.0294466047745795
5.422,0.0763228718613301,-0.0378338823221395
5.436,0.0721342059380926,-0.0466108976297609
5.45,0.0666241204770975,-0.05545373934206
5.464,0.0597186721237643,-0.0639824121976513
5.478,0.0514758041992538,-0.0718048971923126
5.492,0.0420826156202011,-0.0785633011077269
5.506,0.0318368767373891,-0.0839764875309417
5.52,0.0211149045291708,-0.0878739860239988
5.534,0.0103295608172189,-0.0902170038122023
5.548,-0.00011666023805026,-0.0911038893702596
5.562,-0.00987787394114679,-0.0907592377113369
5.576,-0.0187048365199931,-0.0895077670290976
5.59,-0.0264739192045886,-0.0877359102333988
5.604,-0.0332014413825767,-0.0858455433740083
5.618,-0.0390414696242914,-0.0842052446794947
5.632,-0.0442180187702862,-0.0832275526612239
5.646,-0.0492186535291123,-0.0831146460940794
5.66,-0.0545392489192872,-0.083715775187015
5.674,-0.060542983869784,-0.0848368354509354
5.688,-0.0675011998710282,-0.0861655069401645
5.702,-0.0755590344641453,-0.0873100847078323
5.716,-0.0847163494951107,-0.0878473821290417
5.73,-0.0948260133713931,-0.0873739908081664
5.744,-0.105609549047653,-0.0855548588471643
5.758,-0.116688136246524,-0.0821635345173542
5.772,-0.127625193844451,-0.0771094607849939
5.786,-0.137975469209414,-0.0704492664002278
5.8,-0.147334869420245,-0.0623808906205537
5.814,-0.155385253858957,-0.0532213748155312
5.828,-0.161929056522259,-0.0433710223639311
5.842,-0.166909830173037,-0.0332681570179395
5.856,-0.170358630043235,-0.0233793463853902
5.87,-0.172581024534607,-0.0140742354252958
5.884,-0.173929378503914,-0.00559715109927759
5.898,-0.1748016585837,0.00193978414616441
5.912,-0.175602232764444,0.00856931573922307
5.926,-0.176692616537517,0.0144621679784363
5.94,-0.178347423345245,0.0199041158451231
5.954,-0.180720527018206,0.0252596591477471
5.968,-0.183825301030037,0.0309264320406307
5.982,-0.187531236436238,0.037285524759699
5.996,-0.191577419305475,0.0446533798310903
6.01,-0.195601458329186,0.0532407956805361
6.024,-0.199180693615533,0.0631238307854481
6.038,-0.201881079836848,0.0742301176376185
6.052,-0.203308185848763,0.0863423934763844
6.066,-0.203120292071254,0.0991406662810443
6.08,-0.201040145239603,0.112175475438265
6.094,-0.197159605656886,0.12486313876221
6.108,-0.191653651105037,0.136748795797173
6.122,-0.184834318635792,0.147463183569659
6.136,-0.177113088872837,0.15676382251613
6.15,-0.168951487152903,0.164560860109084
6.164,-0.160805842848815,0.170924450910767
6.178,-0.153072874481684,0.176072767028675
6.192,-0.1460426910705,0.180342073451164
6.206,-0.139864921169572,0.18414248172288
6.22,-0.134532101650544,0.187904744911564
6.234,-0.129882368966136,0.192024557991897
6.248,-0.125621151233757,0.196811142750682
6.262,-0.121359248487768,0.202446384309733
6.276,-0.116662694835333,0.208959510059404
6.29,-0.111108364040393,0.216220419000875
6.304,-0.104338582703441,0.223952511688049
6.318,-0.0961081342773992,0.231763515075784
6.332,-0.0863179537389377,0.239190628198109
6.346,-0.0750314112721024,0.245754593905234
6.36,-0.0624711671060717,0.251016231704502
6.374,-0.0489968976161723,0.254628669653131
6.388,-0.0350664680329919,0.256379018474786
6.402,-0.0211850931304461,0.256214473267873
6.416,-0.00784845600295013,0.254249657092005
6.43,0.00451351606863869,0.250754220355341
6.444,0.0155855714029411,0.246122024016372
6.458,0.0252029253377148,0.240825396896396
6.472,0.0333695985543087,0.235359720427654
6.486,0.0402569802872879,0.230184757252444
6.5,0.0461825746860205,0.22566957040397
6.514,0.0514919927668087,0.22236746948112
6.528,0.0569638612762731,0.220043936162071
6.542,0.0630647144594233,0.218482135446378
6.556,0.0701499619522426,0.217311855191071
6.57,0.0784184285898657,0.216057909662272
6.584,0.087886318138717,0.214200865125799
6.598,0.0983835265214376,0.211242729626037
6.612,0.109572570057305,0.206769726846065
6.626,0.120987722950029,0.200504674994557
6.64,0.132089584955403,0.192342763697902
6.654,0.14232849705821,0.182366513740157
6.668,0.151209197244947,0.170838182663817
6.682,0.158348977120868,0.158170555478804
6.696,0.163522377474064,0.144879622408293
6.71,0.166687056351199,0.131524797072185
6.724,0.167987692230186,0.118643817144783
6.738,0.167737387949181,0.106690120428442
6.752,0.16637871622401,0.0959802237622664
6.766,0.164428981479249,0.0866574774300571
6.78,0.162416179669829,0.0786766542853411
6.794,0.160813290912255,0.0718113807710395
6.808,0.159978798804297,0.065683709721888
6.822,0.160110658033446,0.0598124885255913
6.836,0.161219399361272,0.0536749018885891
6.85,0.163123840266156,0.0467739368467786
6.864,0.165470215549447,0.0387037268491737
6.878,0.167772760832655,0.0292048832889146
6.892,0.16947120089278,0.018203009688888
6.906,0.169998517684693,0.00582549851006603
6.92,0.168851051331581,-0.00760578054472272
6.934,0.165652585012224,-0.0216054657676255
6.948,0.159875072944894,-0.0355390175924872
6.962,0.15181850486858,-0.0485384603003496
6.976,0.14194938379534,-0.0600223441925785
6.99,0.130785370592507,-0.0695875334580476
7.004,0.118940352052481,-0.077027938129513
7.018,0.107051312912543,-0.0823537338962431
7.032,0.0957035148107084,-0.085784534951914
7.046,0.0853628879507708,-0.0877176317061442
7.06,0.0763236005335828,-0.0886753280043299
7.074,0.0686769123098729,-0.0892378363968978
7.088,0.0623048657499594,-0.0899698422160465
7.102,0.0568994190940928,-0.091349544035872
7.116,0.0520046225004728,-0.093708646719146
7.13,0.0470767246818249,-0.0971904667818494
7.144,0.041554983799557,-0.101731161511374
7.158,0.0349346842776422,-0.107066361143395
7.172,0.0268335779674201,-0.112762478362723
7.186,0.0170437099933286,-0.118269036855168
7.2,0.00556227816725208,-0.12298583787579
7.214,-0.0074023771702773,-0.126336965743029
7.228,-0.0214506227061557,-0.127842738386587
7.242,-0.0360351076344336,-0.127180853912876
7.256,-0.0505230755308881,-0.124229168226762
7.27,-0.0642700957376099,-0.119084641328741
7.284,-0.0766964040135617,-0.112055780471993
7.298,-0.0873565774589851,-0.103629071538592
7.312,-0.0959939111158632,-0.094413054868146
7.326,-0.102572561998627,-0.0850664910739939
7.34,-0.10728310131946,-0.0762191289755053
7.354,-0.110520277418182,-0.0683946646649689
7.368,-0.112835169848257,-0.0619454118538617
7.382,-0.114975342067486,-0.0571970158420036
7.396,-0.117759085291832,-0.0539098296692374
7.41,-0.121614927470008,-0.0514389135950417
7.424,-0.126822919386413,-0.0492199366912381
7.438,-0.13344200072611,-0.0466279834429384
7.452,-0.141304018505511,-0.0430578985434455
7.466,-0.150035680198646,-0.0380013611463247
7.48,-0.15910549759613,-0.0311113381906189
7.494,-0.167889765703864,-0.0222461795053431
7.508,-0.175749356394708,-0.0114881590232482
7.522,-0.182107859899955,0.000865579544986944
7.536,-0.186521522386871,0.0143383387391987
7.55,-0.188732505038192,0.0283309251898653
7.564,-0.188699086992844,0.0421933204482214
7.578,-0.186599288086638,0.0553021134505697
7.592,-0.182807643509093,0.0671342080093214
7.606,-0.177848124951457,0.0773278362694734
7.62,-0.172329078385423,0.0857235061289684
7.634,-0.166868195304763,0.0923799853523337
7.648,-0.162016701582299,0.0975634728798253
7.662,-0.15819200444146,0.101711360612746
7.676,-0.155626984739969,0.105375056448419
7.69,-0.154342091612955,0.109148858669282
7.704,-0.154143634681567,0.113593546355543
7.718,-0.154648507390515,0.119163985221653
7.732,-0.155332387307985,0.126149570995466
7.746,-0.155595624145594,0.134634801321206
7.76,-0.15483887773132,0.144484862964267
7.774,-0.152539361821736,0.155358127803466
7.788,-0.148318430028902,0.166744219840484
7.802,-0.141992225687551,0.178023229016145
7.816,-0.133534156166052,0.188481104472765
7.83,-0.123189940948274,0.197297384158163
7.844,-0.11172300299757,0.204172309323258
7.858,-0.0997527681597761,0.208905192339398
7.872,-0.0879224613353806,0.211513534913944
7.886,-0.0768236647198131,0.212226203663228
7.9,-0.0669282576684017,0.211451493595855
7.914,-0.0585357464830207,0.209724242451857
7.928,-0.0517420614248349,0.20763859069429
7.942,-0.0464332725150033,0.205774604742391
7.956,-0.0423046725827505,0.204627612721305
7.97,-0.0389026546399179,0.204548679818866
7.984,-0.0356841253089989,0.20570323529194
7.998,-0.032086162012804,0.208052633369404
8.012,-0.0275974693942761,0.211360655864196
8.026,-0.0218230484246419,0.21522397850656
8.04,-0.0145343659510131,0.219122778048658
8.054,-0.00569909171477596,0.222485286760351
8.068,0.00451306284238612,0.224758479152733
8.082,0.0157490087892536,0.22547638715808
8.096,0.0275131354434282,0.224317858716314
8.11,0.0392254160849013,0.22114685720415
8.124,0.0502897844078384,0.216030490386988
8.138,0.0601645926399265,0.209232609673276
8.152,0.0684267187266829,0.201183721760227
8.166,0.0748216389560188,0.192430766412404
8.18,0.0792934350401772,0.183572708156907
8.194,0.081991068267824,0.175189587553594
8.208,0.0832500535191731,0.16777348082433
8.222,0.0835515764460495,0.161669630117434
8.236,0.0834637810241865,0.157034848966666
8.25,0.0835720974519471,0.153818310056215
8.264,0.0846721762581112,0.151935290857272
8.278,0.0869883327053615,0.150598916891188
8.292,0.0906522853910603,0.149240238450757
8.306,0.0955863387207695,0.147282890024181
8.32,0.101514788836936,0.144215116826664
8.334,0.107999010159305,0.139653223836608
8.348,0.114491804450091,0.133388995992941
8.362,0.120404362704216,0.125415595357524
8.376,0.125177752796275,0.115929027119712
8.39,0.128350366555356,0.105305177180166
8.404,0.12961328960072,0.094055318885427
8.418,0.128847030227792,0.0827655275664342
8.432,0.12613528550313,0.0720273330853998
8.446,0.121754168941306,0.0623679620239105
8.46,0.116138253003188,0.0541885536281063
8.474,0.109827546587158,0.0477177730252353
8.488,0.103401806957685,0.0429864039087733
8.502,0.0974101077896551,0.0398259956986088
8.516,0.0923041679681247,0.0378917618061928
8.53,0.0883835172731447,0.0367070147159632
8.544,0.0857591812181012,0.0357238255007763
8.558,0.0843403683380242,0.0343926195058592
8.572,0.0838458961036433,0.0322323055075128
8.586,0.0838391193879482,0.0288924207582499
8.6,0.0837822813736797,0.0241996800798369
8.614,0.0831038311097891,0.0181831434645829
8.628,0.0812706330694688,0.0110747523135901
8.642,0.0778563320109164,0.00328493290256813
8.656,0.0725975196385389,-0.00464402348527596
8.67,0.0654307412276958,-0.0121013810465293
8.684,0.0565056244521563,-0.0184806705432583
8.698,0.0460490037949537,-0.0230081038140322
8.712,0.034861905387599,-0.0253981943762563
8.726,0.0236477370822561,-0.0256406737816307
8.74,0.0130237636574789,-0.0238778407966887
8.754,0.00351507164584219,-0.0204460720742297
8.768,-0.00450493079334977,-0.0158308671813792
8.782,-0.0108546266122952,-0.0106046962542962
8.796,-0.0155603685009268,-0.00535540435435497
8.81,-0.0188471125939039,-0.000613955565064141
8.824,-0.0211049888858929,0.00320973530001315
8.838,-0.0228361659501437,0.0058752173126301
8.852,-0.024588688066795,0.00733848521123921
8.866,-0.0268854572585445,0.00775449377780219
8.88,-0.0301570317851272,0.00745514918095222
8.894,-0.0346863682812492,0.00690567714073756
8.908,-0.0405721224082418,0.00664484674604201
8.922,-0.0477148325393933,0.00721642883562155
8.936,-0.0558275226870396,0.00910026897150349
8.95,-0.0644693100954515,0.012651346266301
8.964,-0.0730978419854721,0.0180541803473649
8.978,-0.08113414062955,0.0252980662407423
8.992,-0.0880319689741334,0.0341760912548002
9.006,-0.093343309342023,0.0443080202247503
9.02,-0.0967720318827191,0.0551842687346842
9.034,-0.0982092560234386,0.0662256549793766
9.048,-0.0977461051084904,0.076851728520025
9.062,-0.0956622621122124,0.0865494392470668
9.076,-0.0923916311806178,0.0949338536348822
9.09,-0.088469156684198,0.101793554017388
9.104,-0.0844651234067646,0.1071151622285
9.118,-0.0809147911645919,0.111083900234488
9.132,-0.0784178546871893,0.114030929413311
9.146,-0.0772517862665853,0.11661545145504
9.16,-0.0772427199498468,0.119465148329405
9.174,-0.0781734136335925,0.123075518912015
9.188,-0.0796661215524442,0.127830601474141
9.202,-0.0812316637696775,0.133955774647468
9.216,-0.0823311690449956,0.141490380158
9.23,-0.0824429496031763,0.150283126388427
9.244,-0.0811264645578172,0.160010494126695
9.258,-0.0780757811601601,0.170215637758296
9.272,-0.0731562859209862,0.180362874876678
9.286,-0.0664204632217215,0.18990106603132
9.3,-0.0581010956043129,0.198328207354192
9.314,-0.0485829441047026,0.205249499673653
9.328,-0.0383565162029419,0.210422015721301
9.342,-0.0279596249383889,0.213780751061116
9.356,-0.0179138417590115,0.215443109576503
9.37,-0.00866349000916778,0.215691466896999
