"Freq [GHz]","re(S(Tx_p1,Tx_p1)) []","im(S(Tx_p1,Tx_p1)) []"
3,-0.00299807205,-0.04426111486
3.014,-0.007763862355,-0.04360357366
3.028,-0.01242307239,-0.04243501271
3.042,-0.0169211183,-0.04077070882
3.056,-0.0212054626,-0.03863174904
3.07,-0.02522623089,-0.03604476811
3.084,-0.02893679586,-0.03304162055
3.098,-0.03229432162,-0.02965899147
3.112,-0.0352602621,-0.02593795075
3.126,-0.0378008074,-0.02192345599
3.14,-0.03988727305,-0.01766381031
3.154,-0.04149642755,-0.01321008139
3.168,-0.04261075433,-0.008615488898
3.182,-0.04321864521,-0.003934767636
3.196,-0.04331452311,0.0007764860655
3.21,-0.04289889268,0.005462476705
3.224,-0.04197831834,0.01006787288
3.238,-0.04056533024,0.01453846355
3.252,-0.03867825927,0.01882179935
3.266,-0.03634100331,0.02286781153
3.28,-0.03358272758,0.02662940085
3.294,-0.03043750297,0.03006298979
3.308,-0.02694388655,0.0331290312
3.322,-0.02314444967,0.0357924677
3.336,-0.01908525924,0.03802313614
3.35,-0.01481531855,0.03979611263
3.364,-0.01038597448,0.04109199396
3.378,-0.005850298198,0.04189711229
3.392,-0.001262446942,0.04220368056
3.406,0.003322985521,0.04200986718
3.42,0.007851621817,0.0413197991
3.434,0.01226994947,0.0401434935
3.448,0.01652595717,0.03849671915
3.462,0.02056975121,0.03640078898
3.476,0.02435414461,0.03388228702
3.49,0.02783521206,0.03097273262
3.504,0.03097280392,0.02770818665
3.518,0.03373101323,0.02412880423
3.532,0.03607859026,0.02027833975
3.546,0.03798929967,0.01620361022
3.56,0.03944221618,0.01195392356
3.574,0.04042195529,0.007580478869
3.588,0.04091883648,0.003135746032
3.602,0.04092897718,-0.001327167786
3.616,0.04045431649,-0.005755156986
3.63,0.03950256867,-0.01009575399
3.644,0.0380871072,-0.01429775557
3.658,0.03622678099,-0.01831183148
3.672,0.03394566536,-0.02209110807
3.686,0.03127275094,-0.02559171988
3.7,0.02824157455,-0.0287733226
3.714,0.02488979684,-0.03159956139
3.728,0.02125873193,-0.03403848894
3.742,0.01739283511,-0.03606292851
3.756,0.01333915493,-0.03765077771
3.77,0.009146756549,-0.03878524954
3.784,0.00486612348,-0.03945504822
3.798,0.0005485451183,-0.03965447779
3.812,-0.00375450242,-0.03938348258
3.826,-0.007991974577,-0.03864761944
3.84,-0.01211386824,-0.03745796233
3.854,-0.01607181584,-0.03583094084
3.868,-0.01981965659,-0.03378811499
3.882,-0.02331397791,-0.0313558893
3.896,-0.02651462079,-0.02856517012
3.91,-0.029385143,-0.02545097049
3.924,-0.03189323493,-0.02205196784
3.938,-0.03401108313,-0.01841002012
3.952,-0.03571567758,-0.01456964637
3.966,-0.03698905928,-0.01057747849
3.98,-0.03781850549,-0.006481690792
3.994,-0.03819665084,-0.002331414583
4.008,-0.03812154322,0.001823855136
4.022,-0.03759663424,0.005934853584
4.036,-0.03663070479,0.009953133538
4.05,-0.03523772702,0.01383163903
4.064,-0.03343666494,0.01752525856
4.078,-0.03125121638,0.0209913513
4.092,-0.02870949987,0.02419024013
4.106,-0.02584369067,0.02708566573
4.12,-0.02268961067,0.02964519659
4.134,-0.01928627739,0.03184059037
4.148,-0.0156754179,0.03364810248
4.162,-0.01190095381,0.03504873866
4.176,-0.008008463575,0.03602844893
4.19,-0.004044628984,0.03657826103
4.204,-5.667241305E-05,0.03669435215
4.218,0.003908208189,0.03637805867
4.232,0.007803399848,0.03563582423
4.246,0.01158342393,0.03447908724
4.26,0.01520446785,0.03292410971
4.274,0.01862489283,0.03099174982
4.288,0.02180571194,0.02870718162
4.302,0.02471103283,0.0260995654
4.316,0.02730846017,0.02320167331
4.33,0.02956945347,0.02004947491
4.344,0.03146963612,0.01668168809
4.358,0.03298905269,0.01313930085
4.372,0.03411237157,0.009465070107
4.386,0.03482903127,0.005703003421
4.4,0.03513332896,0.00189783027
4.414,0.03502445077,-0.001905530983
4.428,0.034506444,-0.005662503951
4.442,0.03358813216,-0.009329376636
4.456,0.03228297419,-0.01286380929
4.47,0.03060887025,-0.01622532185
4.484,0.0285879167,-0.01937575528
4.498,0.02624611374,-0.02227970175
4.512,0.02361302954,-0.02490489867
4.526,0.02072142526,-0.02722258248
4.54,0.01760684577,-0.02920779812
4.554,0.01430718115,-0.0308396613
4.568,0.01086220451,-0.03210157052
4.582,0.007313091625,-0.03298136726
4.596,0.003701928438,-0.03347144251
4.61,7.121207481E-05,-0.03356878929
4.624,-0.003536648526,-0.0332750008
4.638,-0.007079826609,-0.03259621481
4.652,-0.01051756047,-0.03154300556
4.666,-0.01381061968,-0.03013022479
4.68,-0.01692174931,-0.02837679432
4.694,-0.01981608731,-0.02630545307
4.708,-0.02246155032,-0.02394246191
4.722,-0.0248291838,-0.02131727015
4.736,-0.02689347271,-0.01846214793
4.75,-0.02863260956,-0.01541178916
4.764,-0.03002871709,-0.01220288985
4.778,-0.03106802347,-0.008873706949
4.792,-0.03174098839,-0.005463603024
4.806,-0.03204237919,-0.002012582211
4.82,-0.03197129648,0.001439177206
4.834,-0.03153114956,0.004851788081
4.848,-0.03072958232,0.008186112238
4.862,-0.02957835106,0.01140420565
4.876,-0.02809315597,0.01446974598
4.89,-0.02629342878,0.01734843766
4.904,-0.02420207939,0.02000839024
4.918,-0.02184520469,0.02242046573
4.932,-0.01925176351,0.02455859136
4.946,-0.01645322142,0.02640003456
4.96,-0.01348317005,0.02792563722
4.974,-0.01037692526,0.02912000713
4.988,-0.007171109135,0.02997166461
5.002,-0.003903220592,0.03047314338
5.016,-0.0006111996651,0.0306210446
5.03,0.002667009553,0.0304160442
5.044,0.005893892321,0.0298628537
5.058,0.009032788134,0.02897013543
5.072,0.01204830237,0.0277503736
5.086,0.0149067001,0.02621970292
5.1,0.0175762779,0.02439769726
5.114,0.02002770947,0.02230712109
5.128,0.02223436164,0.01997364663
5.142,0.02417257722,0.01742554054
5.156,0.02582192202,0.01469332362
5.17,0.02716539343,0.01180940775
5.184,0.02818958863,0.008807714373
5.198,0.02888483082,0.005723278813
5.212,0.02924525251,0.002591845122
5.226,0.02926883515,-0.0005505440115
5.24,0.02895740522,-0.003667957634
5.254,0.02831658693,-0.006724982594
5.268,0.0273557126,-0.009687120809
5.282,0.02608769197,-0.01252117336
5.296,0.02452884227,-0.01519560725
5.31,0.02269868107,-0.01768090083
5.324,0.02061968479,-0.01994986426
5.338,0.01831701553,-0.02197793158
5.352,0.01581821964,-0.02374342137
5.366,0.01315290155,-0.02522776326
5.38,0.01035237665,-0.02641568812
5.394,0.007449307212,-0.02729537997
5.408,0.004477325546,-0.02785858817
5.422,0.001470648631,-0.02810069899
5.436,-0.001536311424,-0.02802076595
5.45,-0.004509336748,-0.02762149882
5.464,-0.007414788559,-0.02690921181
5.478,-0.01021998328,-0.02589373155
5.492,-0.01289355573,-0.02458826633
5.506,-0.01540580553,-0.02300923812
5.52,-0.01772902286,-0.02117607951
5.534,-0.0198377901,-0.01911099809
5.548,-0.02170925613,-0.01683871092
5.562,-0.02332338048,-0.01438615228
5.576,-0.02466314448,-0.0117821582
5.59,-0.02571472763,-0.009057131125
5.604,-0.02646764707,-0.006242688884
5.618,-0.0269148589,-0.003371301667
5.632,-0.02705282047,-0.0004759212818
5.646,-0.02688151297,0.002410393197
5.66,-0.02640442446,0.005254849195
5.674,-0.02562849347,0.008025289652
5.688,-0.02456401417,0.01069055316
5.702,-0.02322450427,0.01322082131
5.716,-0.02162653723,0.01558794929
5.73,-0.01978954091,0.01776577633
5.744,-0.01773556493,0.01973041233
5.758,-0.0154890196,0.02146049782
5.772,-0.01307638936,0.02293743429
5.786,-0.01052592401,0.02414558243
5.8,-0.007867311424,0.02507242633
5.814,-0.005131335282,0.02570870173
5.828,-0.002349521877,0.02604848717
5.842,0.0004462200965,0.02608925702
5.856,0.00322396268,0.02583189605
5.87,0.005952120626,0.02528067546
5.884,0.008599808154,0.0244431907
5.898,0.01113718649,0.02333026203
5.912,0.01353579834,0.02195579894
5.926,0.0157688855,0.02033663011
5.94,0.01781168619,0.01849230102
5.954,0.01964170869,0.01644484138
5.968,0.02123897842,0.01421850526
5.982,0.02258625555,0.01183948693
5.996,0.02366922098,0.009335615537
6.01,0.0244766285,0.006736032279
6.024,0.02500042155,0.004070853698
6.038,0.0252358134,0.001370824965
6.052,0.02518132991,-0.001333032905
6.066,0.02483881436,-0.004009777875
6.08,0.02421339457,-0.00662889972
6.094,0.02331341268,-0.009160666865
6.108,0.02215031839,-0.01157646329
6.122,0.02073852717,-0.01384911168
6.136,0.01909524492,-0.01595317921
6.15,0.0172402613,-0.01786526239
6.164,0.01519571409,-0.01956424799
6.178,0.01298582735,-0.02103154679
6.192,0.01063662652,-0.02225129788
6.206,0.008175633579,-0.02321054095
6.22,0.005631546063,-0.02389935483
6.234,0.003033903471,-0.02431096075
6.248,0.0004127450014,-0.02444178907
6.262,-0.002201737415,-0.02429150901
6.276,-0.004779546798,-0.02386302094
6.29,-0.007291225493,-0.02316241152
6.304,-0.009708192265,-0.02219887223
6.318,-0.01200306824,-0.02098458234
6.332,-0.01414998794,-0.01953455784
6.346,-0.01612489187,-0.01786646797
6.36,-0.01790579728,-0.01600042181
6.374,-0.01947304406,-0.01395872729
6.388,-0.02080951293,-0.01176562556
6.402,-0.02190081353,-0.009447003906
6.416,-0.02273544027,-0.00703009057
6.43,-0.0233048942,-0.004543135056
6.444,-0.02360376967,-0.002015077746
6.458,-0.02362980476,0.000524787349
6.472,-0.02338389511,0.003047152731
6.486,-0.02287007106,0.005523036478
6.5,-0.02209543845,0.007924116289
6.514,-0.021070084,0.01022305462
6.528,-0.01980694635,0.01239381116
6.542,-0.01832165451,0.01441193903
6.556,-0.01663233565,0.01625486135
6.57,-0.01475939461,0.0179021249
6.584,-0.01272526779,0.01933562818
6.598,-0.01055415443,0.02053982112
6.612,-0.00827172844,0.02150187431
6.626,-0.005904834317,0.02221181591
6.64,-0.003481170668,0.02266263467
6.654,-0.001028965153,0.02285034805
6.668,0.001423355333,0.02277403487
6.682,0.003847495371,0.02243583203
6.696,0.006215618726,0.02184089575
6.71,0.008500669261,0.02099732772
6.724,0.01067668129,0.01991606735
6.738,0.01271907584,0.01861075134
6.752,0.01460493931,0.01709754255
6.766,0.01631328153,0.0153949302
6.78,0.01782527002,0.01352350391
6.794,0.01912443813,0.01150570427
6.808,0.02019686444,0.009365553135
6.822,0.02103132168,0.00712836677
6.836,0.0216193935,0.004820455292
6.85,0.02195555778,0.002468812086
6.864,0.02203723583,0.0001007968158
6.878,0.02186480702,-0.002256184197
6.892,0.02144158874,-0.004574996462
6.906,0.02077378228,-0.006829090954
6.92,0.01987038534,-0.008992809235
6.934,0.01874307233,-0.01104167652
6.948,0.01740604423,-0.01295267934
6.962,0.0158758497,-0.01470452461
6.976,0.01417117991,-0.01627787714
6.99,0.01231263946,-0.01765557302
7.004,0.01032249643,-0.01882280641
7.018,0.008224414385,-0.01976728774
7.032,0.006043169797,-0.02047937165
7.046,0.003804358107,-0.02095215338
7.06,0.001534092087,-0.02118153259
7.074,-0.0007413040008,-0.02116624411
7.088,-0.0029956008,-0.02090785556
7.102,-0.005202967231,-0.02041073192
7.116,-0.007338267296,-0.01968196776
7.13,-0.009377346894,-0.01873128819
7.144,-0.01129730734,-0.01757091985
7.158,-0.0130767625,-0.01621543359
7.172,-0.01469607664,-0.01468156101
7.186,-0.01613758033,-0.01298798711
7.2,-0.01738576208,-0.01115512162
7.214,-0.01842743354,-0.009204851903
7.228,-0.01925186672,-0.00716028038
7.242,-0.01985090159,-0.005045449734
7.256,-0.02021902324,-0.002885059097
7.27,-0.02035340783,-0.0007041746666
7.284,-0.02025393698,0.001472061877
7.298,-0.01992318087,0.00361872372
7.312,-0.01936635021,0.005711384678
7.326,-0.01859121814,0.007726397081
7.34,-0.01760801306,0.00964115862
7.354,-0.01642928389,0.01143436514
7.368,-0.0150697396,0.01308624656
7.382,-0.01354606494,0.01457878335
7.396,-0.0118767149,0.01589590117
7.41,-0.01008169029,0.01702364164
7.424,-0.008182297226,0.01795030745
7.438,-0.00620089347,0.01866658032
7.452,-0.004160624666,0.01916561074
7.466,-0.002085153539,0.01944307866
7.48,1.614718373E-06,0.0194972246
7.494,0.002075807677,0.01932885127
7.508,0.004113858371,0.0189412957
7.522,0.006092772344,0.01834037261
7.536,0.00799038602,0.01753428993
7.55,0.009785613524,0.01653353752
7.564,0.01145867922,0.0153507508
7.578,0.01299133341,0.0140005509
7.592,0.01436704895,0.01249936355
7.606,0.01557119658,0.01086521873
7.62,0.01659119726,0.009117533752
7.634,0.01741664996,0.007276882302
7.648,0.01803943366,0.005364752153
7.662,0.01845378258,0.003403294505
7.676,0.01865633409,0.00141506781
7.69,0.01864614901,-0.0005772209514
7.704,0.01842470425,-0.002550974563
7.718,0.01799585817,-0.004483960542
7.732,0.01736578927,-0.006354559908
7.746,0.01654290922,-0.008142007006
7.76,0.01553775127,-0.009826617755
7.774,0.01436283571,-0.01139000384
7.788,0.01303251403,-0.0128152706
7.802,0.01156279363,-0.01408719644
7.816,0.009971145372,-0.01519239206
7.83,0.008276296209,-0.01611943773
7.844,0.006498009347,-0.01685899741
7.858,0.004656854536,-0.01740390848
7.872,0.002773971135,-0.01774924654
7.886,0.0008708266658,-0.01789236441
7.9,-0.001031026399,-0.01783290553
7.914,-0.002910192903,-0.0175727915
7.928,-0.004745673617,-0.01711618429
7.942,-0.006517097582,-0.01646942371
7.956,-0.008204945641,-0.01564094106
7.97,-0.00979076276,-0.01464115015
7.984,-0.01125735686,-0.01348231697
7.998,-0.01258898209,-0.01217840983
8.012,-0.01377150462,-0.01074493157
8.026,-0.01479254923,-0.009198736086
8.04,-0.01564162532,-0.007557831081
8.054,-0.01631023104,-0.005841169556
8.068,-0.01679193455,-0.004068432285
8.082,-0.01708243176,-0.002259803822
8.096,-0.01717958009,-0.0004357445385
8.11,-0.01708340796,0.00138323876
8.124,-0.01679610029,0.003176821099
8.138,-0.01632196015,0.004925083976
8.152,-0.01566734731,0.006608733942
8.166,-0.01484059447,0.008209312746
8.18,-0.01385190226,0.009709396826
8.194,-0.01271321439,0.01109278401
8.208,-0.01143807434,0.01234466547
8.222,-0.01004146542,0.0134517812
8.236,-0.008539636043,0.01440255738
8.25,-0.006949912117,0.01518722422
8.264,-0.005290498894,0.01579791327
8.278,-0.003580274361,0.01622873313
8.292,-0.001838576553,0.01647582295
8.306,-8.498715073E-05,0.01653738327
8.32,0.00166088627,0.01641368404
8.334,0.003379626929,0.01610704988
8.348,0.005052222143,0.01562182282
8.362,0.006660270912,0.01496430321
8.376,0.008186183586,0.01414266945
8.39,0.009613371483,0.01316687761
8.404,0.01092642446,0.01204854217
8.418,0.01211127458,0.01080079923
8.432,0.01315534417,0.009438153852
8.446,0.01404767679,0.007976313225
8.46,0.01477904975,0.006432007586
8.474,0.01534206708,0.004822800872
8.488,0.01573123204,0.003166893249
8.502,0.0159429985,0.001482917663
8.516,0.0159758008,-0.0002102673166
8.53,0.01583006174,-0.001893786129
8.544,0.01550817888,-0.003548954045
8.558,0.01501448926,-0.005157481946
8.572,0.0143552132,-0.006701675847
8.586,0.01353837765,-0.008164629051
8.6,0.01257372025,-0.009530404857
8.614,0.01147257501,-0.01078420791
8.628,0.01024774114,-0.0119125424
8.642,0.008913336252,-0.01290335538
8.656,0.007484635884,-0.01374616382
8.67,0.005977900857,-0.01443216399
8.684,0.004410194568,-0.01495432206
8.698,0.002799192148,-0.01530744512
8.712,0.001162983598,-0.0154882317
8.726,-0.0004801269436,-0.01549530153
8.74,-0.002111823612,-0.01532920413
8.754,-0.003713980707,-0.01499240624
8.768,-0.005268861877,-0.01448925839
8.782,-0.006759314426,-0.01382594081
8.796,-0.008168956671,-0.01301038955
8.81,-0.009482356302,-0.01205220353
8.824,-0.01068519784,-0.01096253363
8.838,-0.01176443741,-0.009753955003
8.852,-0.01270844313,-0.008440324158
8.866,-0.01350711966,-0.007036622288
8.88,-0.01415201556,-0.005558786647
8.894,-0.01463641234,-0.004023531814
8.908,-0.01495539422,-0.002448162818
8.922,-0.01510589794,-0.0008503821951
8.936,-0.01508674206,0.0007519069233
8.95,-0.01489863545,0.00234079951
8.964,-0.01454416498,0.003898586963
8.978,-0.01402776252,0.005407952871
8.992,-0.01335565163,0.006852164081
9.006,-0.01253577465,0.008215254984
9.02,-0.01157770083,0.00948220299
9.034,-0.01049251679,0.0106390933
9.048,-0.009292700264,0.01167327116
9.062,-0.007991978787,0.01257347993
9.076,-0.006605174665,0.01332998349
9.09,-0.005148038131,0.01393467166
9.104,-0.003637070436,0.0143811474
9.118,-0.002089338865,0.01466479498
9.132,-0.0005222857211,0.0147828283
9.146,0.001046466617,0.01473431883
9.16,0.002599312399,0.01452020291
9.174,0.004118858804,0.01414326841
9.188,0.005588119661,0.01360812072
9.202,0.006990704461,0.01292112863
9.216,0.008311000553,0.01209035067
9.23,0.009534346522,0.01112544266
9.244,0.01064719483,0.01003754761
9.258,0.0116372619,0.008839169041
9.272,0.01249366402,0.007544029326
9.286,0.01320703751,0.006166914478
9.3,0.01376964182,0.004723507162
9.314,0.01417544449,0.00323020979
9.328,0.0144201869,0.001703959669
9.342,0.01450143016,0.0001620382424
9.356,0.01441858059,-0.001378123427
9.37,0.01417289453,-0.002899140777
9.384,0.01376746235,-0.004383871273
9.398,0.01320717193,-0.005815607147
9.412,0.01249865191,-0.007178263202
9.426,0.01165019538,-0.008456557561
9.44,0.01067166488,-0.009636183339
9.454,0.009574379742,-0.01070396929
9.468,0.00837098698,-0.01164802764
9.482,0.007075317274,-0.01245788739
9.496,0.005702227574,-0.01312461162
9.51,0.004267432128,-0.01364089744
9.524,0.002787323827,-0.01400115746
9.538,0.001278787878,-0.01420158179
9.552,-0.0002409900854,-0.0142401799
9.566,-0.001754719294,-0.01411680194
9.58,-0.003245200316,-0.01383313898
9.594,-0.004695520485,-0.01339270252
9.608,-0.006089246057,-0.01280078318
9.622,-0.007410608911,-0.01206438922
9.636,-0.008644685658,-0.01119216542
9.65,-0.009777567119,-0.01019429338
9.664,-0.01079651621,-0.009082374304
9.678,-0.01169011247,-0.007869295478
9.692,-0.01244838146,-0.006569082185
9.706,-0.01306290773,-0.005196736545
9.72,-0.01352692982,-0.003768065213
9.734,-0.01383541638,-0.002299497882
9.748,-0.01398512241,-0.0008078986643
9.762,-0.01397462506,0.0006896274899
9.776,-0.01380433844,0.002175931098
9.79,-0.01347650734,0.003634014936
9.804,-0.01299517997,0.005047229038
9.818,-0.01236615987,0.006399461665
9.832,-0.01159693768,0.007675324022
9.846,-0.01069660348,0.008860326609
9.86,-0.009675740702,0.009941045152
9.874,-0.008546302846,0.01090527419
9.888,-0.007321474454,0.01174216656
9.902,-0.006015517867,0.01244235709
9.916,-0.004643607602,0.01299806918
9.93,-0.003221654243,0.01340320291
9.944,-0.001766119886,0.01365340371
9.958,-0.0002938272827,0.01374611082
9.972,0.001178235097,0.01368058482
9.986,0.002633109828,0.01345791416
10,0.00405406681,0.01308100037
