"Freq [GHz]","re(S(Tx_p1,Tx_p1)) []","im(S(Tx_p1,Tx_p1)) []"
3,0.03374305158,-0.07035647113
3.014,0.0260404885,-0.07315067826
3.028,0.0181275584,-0.0751091118
3.042,0.01009416615,-0.07621884143
3.056,0.002030568761,-0.07647652504
3.07,-0.005973638196,-0.07588833571
3.084,-0.01383051458,-0.07446978265
3.098,-0.02145473898,-0.07224542925
3.112,-0.0287645309,-0.06924851283
3.126,-0.03568252184,-0.06552047167
3.14,-0.04213656616,-0.06111038574
3.154,-0.04806048327,-0.0560743387
3.168,-0.05339472372,-0.0504747093
3.182,-0.05808695254,-0.04437940109
3.196,-0.06209254455,-0.03786102004
3.21,-0.06537498699,-0.03099600993
3.224,-0.06790618635,-0.02386375585
3.238,-0.06966667705,-0.01654566635
3.252,-0.07064573115,-0.009124244782
3.266,-0.07084136904,-0.001682160581
3.28,-0.07026027236,0.005698669275
3.294,-0.06891760159,0.0129379783
3.308,-0.0668367215,0.01995801831
3.322,-0.06404883895,0.02668438763
3.336,-0.06059255833,0.03304681109
3.35,-0.05651336063,0.03897986359
3.364,-0.05186301326,0.04442363005
3.378,-0.04669891804,0.0493242953
3.392,-0.04108340564,0.05363465818
3.406,-0.03508298503,0.0573145653
3.42,-0.02876755706,0.06033126089
3.434,-0.02220960138,0.06265964978
3.448,-0.01548334622,0.06428247215
3.462,-0.008663930419,0.06519038929
3.476,-0.001826567298,0.06538198065
3.49,0.004954280569,0.0648636537
3.504,0.0116057065,0.06364946887
3.518,0.01805713626,0.06176088263
3.532,0.02424106784,0.0592264131
3.546,0.03009376675,0.05608123278
3.56,0.03555590997,0.05236669425
3.574,0.04057317214,0.04812979492
3.588,0.04509674839,0.04342258791
3.602,0.04908380914,0.0383015461
3.616,0.05249788291,0.03282688745
3.63,0.0553091639,0.02706186924
3.644,0.05749474248,0.0210720598
3.658,0.05903875693,0.01492459589
3.672,0.05993246632,0.008687434136
3.686,0.0601742448,0.002428604875
3.7,0.0597694988,-0.003784523529
3.714,0.05873050913,-0.009885962028
3.728,0.05707620108,-0.01581179234
3.742,0.05483184613,-0.02150082541
3.756,0.05202869964,-0.02689522028
3.77,0.04870357957,-0.03194105731
3.784,0.04489839171,-0.03658886013
3.798,0.04065960755,-0.04079406188
3.812,0.03603770112,-0.04451741116
3.826,0.03108655174,-0.04772531476
3.84,0.0258628195,-0.0503901142
3.854,0.02042530087,-0.05249029446
3.868,0.01483427156,-0.05401062368
3.882,0.009150823944,-0.05494222354
3.896,0.003436206376,-0.05528257076
3.91,-0.002248828781,-0.05503543095
3.924,-0.007844661402,-0.05421072658
3.938,-0.01329341768,-0.0528243417
3.952,-0.01853955588,-0.05089786655
3.966,-0.02353041801,-0.04845828591
3.98,-0.02821674214,-0.04553761537
3.994,-0.03255313063,-0.04217249038
4.008,-0.03649847015,-0.03840371325
4.022,-0.04001629973,-0.03427576358
4.036,-0.04307512412,-0.02983627802
4.05,-0.0456486699,-0.02513550535
4.064,-0.04771608282,-0.02022574294
4.078,-0.04926206528,-0.01516076108
4.092,-0.05027695362,-0.009995221177
4.106,-0.05075673538,-0.00478409416
4.12,-0.05070300763,0.0004179149019
4.134,-0.05012287766,0.005556930046
4.148,-0.04902880819,0.01058044993
4.162,-0.04743840972,0.01543787026
4.176,-0.04537418307,0.02008097811
4.19,-0.04286321574,0.02446441361
4.204,-0.03993683595,0.02854609473
4.218,-0.03663022877,0.03228760153
4.232,-0.03298201896,0.03565451665
4.246,-0.02903382532,0.03861671933
4.26,-0.02482979172,0.04114863078
4.274,-0.02041609994,0.04322940931
4.288,-0.01584046962,0.04484309411
4.302,-0.01115165066,0.04597869718
4.316,-0.006398913318,0.04663024336
4.33,-0.001631541191,0.04679675905
4.344,0.003101667811,0.04648221061
4.358,0.007752887685,0.04569539395
4.372,0.01227573306,0.04444977738
4.386,0.01662570603,0.04276329999
4.4,0.02076061712,0.04065812848
4.414,0.02464097647,0.03816037555
4.428,0.02823035209,0.03529978334
4.442,0.03149569206,0.03210937563
4.456,0.03440760815,0.02862508288
4.47,0.03694061883,0.0248853442
4.484,0.03907334984,0.02093069061
4.498,0.0407886912,0.01680331395
4.512,0.04207390987,0.01254662603
4.526,0.0429207176,0.008204812297
4.54,0.04332529425,0.003822384686
4.554,0.04328826696,-0.0005562621959
4.568,0.0428146462,-0.004887287167
4.582,0.04191371999,-0.009127826834
4.596,0.04059890806,-0.0132364043
4.61,0.0388875779,-0.01717331854
4.624,0.03680082526,-0.02090101111
4.638,0.0343632216,-0.02438440683
4.652,0.0316025315,-0.02759122593
4.666,0.02854940323,-0.03049226485
4.68,0.02523703579,-0.03306164368
4.694,0.02170082592,-0.03527701838
4.708,0.01797799881,-0.03711975628
4.722,0.01410722609,-0.03857507384
4.736,0.01012823503,-0.03963213586
4.75,0.006081412612,-0.04028411582
4.764,0.002007408398,-0.04052821737
4.778,-0.002053260282,-0.04036565725
4.792,-0.006060597002,-0.03980161047
4.806,-0.009975505343,-0.0388451186
4.82,-0.01376015503,-0.03750896278
4.834,-0.01737833189,-0.03580950275
4.848,-0.0207957686,-0.03376648423
4.862,-0.02398045349,-0.03140281645
4.876,-0.02690291478,-0.02874432258
4.89,-0.02953647793,-0.02581946535
4.904,-0.03185749422,-0.02265905101
4.918,-0.03384553861,-0.01929591433
4.932,-0.0354835756,-0.01576458779
4.946,-0.03675809185,-0.01210095828
4.96,-0.03765919476,-0.008341914317
4.974,-0.03818067643,-0.004524987298
4.988,-0.03832004282,-0.0006879899919
5.002,-0.03807850823,0.003131344447
5.016,-0.03746095536,0.006895719643
5.03,-0.03647586175,0.01056862619
5.044,-0.03513519351,0.0141146818
5.058,-0.03345426761,0.01749995833
5.072,-0.03145158413,0.02069229307
5.086,-0.02914863039,0.02366158137
5.1,-0.02656965874,0.02638004834
5.114,-0.02374144032,0.02882249721
5.128,-0.02069299712,0.0309665323
5.142,-0.01745531486,0.03279275491
5.156,-0.01406103938,0.03428493027
5.17,-0.01054415941,0.03543012454
5.184,-0.00693967856,0.03621881054
5.198,-0.003283279524,0.03664494159
5.212,0.0003890164008,0.03670599282
5.226,0.004041191481,0.03640296989
5.24,0.007637572294,0.03574038497
5.254,0.01114316603,0.03472620047
5.268,0.0145239893,0.03337174104
5.282,0.01774738665,0.0316915748
5.296,0.02078233572,0.02970336484
5.31,0.02359973665,0.02742769247
5.324,0.02617268282,0.02488785385
5.338,0.02847671081,0.02210963183
5.352,0.03049002712,0.01912104512
5.366,0.03219370981,0.01595207708
5.38,0.0335718831,0.0126343865
5.394,0.03461186342,0.009201003166
5.408,0.0353042756,0.00568601076
5.422,0.03564313805,0.002124220156
5.436,0.03562591623,-0.001449164063
5.45,0.03525354378,-0.004998880753
5.464,0.03453041113,-0.008489949982
5.478,0.03346432165,-0.01188800832
5.492,0.03206641559,-0.01515963855
5.506,0.03035106257,-0.01827269085
5.52,0.02833572334,-0.02119659225
5.534,0.02604078219,-0.02390264175
5.548,0.02348935134,-0.02636428805
5.562,0.02070704905,-0.02855738745
5.576,0.01772175351,-0.03046043936
5.59,0.01456333451,-0.03205479709
5.604,0.01126336561,-0.03332485193
5.618,0.007854819046,-0.03425818863
5.632,0.004371746559,-0.0348457107
5.646,0.0008489487634,-0.03508173414
5.66,-0.00267836367,-0.03496404862
5.674,-0.00617491393,-0.03449394538
5.688,-0.009605704821,-0.03367621126
5.702,-0.01293636305,-0.0325190889
5.716,-0.01613347876,-0.03103420318
5.73,-0.01916493701,-0.02923645445
5.744,-0.02200023796,-0.02714387934
5.758,-0.02461080261,-0.02477748029
5.772,-0.02697026099,-0.02216102537
5.786,-0.02905471998,-0.0193208199
5.8,-0.03084300787,-0.01628545212
5.814,-0.03231689329,-0.01308551517
5.828,-0.033461276,-0.009753307801
5.842,-0.03426434761,-0.006322516872
5.856,-0.03471772036,-0.002827884346
5.87,-0.03481652248,0.0006951378232
5.884,-0.03455945887,0.00421074167
5.898,-0.03394883639,0.007683122597
5.912,-0.0329905531,0.0110768406
5.926,-0.03169405133,0.01435717975
5.94,-0.03007223481,0.01749050228
5.954,-0.02814135041,0.02044459378
5.968,-0.02592083532,0.02318899572
5.982,-0.02343313115,0.02569532218
5.996,-0.02070346631,0.02793755711
6.01,-0.01775960894,0.02989232916
6.024,-0.01463159238,0.03153916107
6.038,-0.011351416,0.03286069078
6.052,-0.007952724205,0.0338428619
6.066,-0.004470466608,0.03447508122
6.08,-0.0009405429717,0.03475034152
6.094,0.002600563751,0.03466530804
6.108,0.00611616245,0.03422036737
6.122,0.009569733175,0.03341963824
6.136,0.01292530681,0.0322709434
6.15,0.01614784118,0.03078574303
6.164,0.01920358954,0.02897902961
6.178,0.02206045767,0.02686918554
6.192,0.02468834562,0.02447780434
6.206,0.02705947043,0.02182947722
6.22,0.0291486663,0.01895154702
6.234,0.03093365887,0.01587383181
6.248,0.03239531043,0.0126283209
6.262,0.03351783342,0.00924884631
6.276,0.03428896951,0.005770732897
6.29,0.03470013232,0.002230430918
6.304,0.03474651178,-0.001334865352
6.318,0.03442713893,-0.004887608864
6.332,0.03374491014,-0.008390296807
6.346,0.03270657012,-0.01180586915
6.36,0.03132265377,-0.01509810444
6.374,0.02960738714,-0.01823200856
6.388,0.0275785483,-0.02117419224
6.402,0.02525728943,-0.02389323308
6.416,0.02266792175,-0.02636001817
6.43,0.01983766543,-0.02854806335
6.444,0.016796367,-0.03043380565
6.458,0.01357618704,-0.03199686534
6.472,0.01021126157,-0.03322027482
6.486,0.006737340527,-0.03409067139
6.5,0.003191407219,-0.0345984518
6.514,-0.0003887171874,-0.03473788654
6.528,-0.003964779863,-0.03450719248
6.542,-0.007498508813,-0.03390856276
6.556,-0.01095202716,-0.03294815345
6.57,-0.01428826464,-0.03163602689
6.584,-0.01747136178,-0.02998605206
6.598,-0.0204670622,-0.028015763
6.612,-0.02324308876,-0.02574617656
6.626,-0.02576949912,-0.02320157123
6.64,-0.02801901686,-0.02040922964
6.654,-0.02996733433,-0.01739914702
6.668,-0.03159338357,-0.01420370909
6.682,-0.03287957251,-0.01085734259
6.696,-0.03381198329,-0.007396142397
6.71,-0.03438053061,-0.003857479228
6.724,-0.03457907812,-0.0002795922352
6.738,-0.0344055114,0.003298828936
6.752,-0.03386176652,0.006839068053
6.766,-0.03295381381,0.01030280739
6.78,-0.03169159685,0.01365254926
6.794,-0.03008892721,0.01685202927
6.808,-0.02816333604,0.01986661653
6.822,-0.02593588401,0.02266369646
6.836,-0.02343093179,0.02521303163
6.85,-0.02067587329,0.02748709671
6.864,-0.01770083494,0.02946138358
6.878,-0.014538344,0.03111467311
6.892,-0.01122296984,0.03242927052
6.906,-0.007790942084,0.03339120165
6.92,-0.004279749862,0.03399036763
6.934,-0.0007277268202,0.03422065651
6.948,0.002826373561,0.03408001014
6.962,0.006343807477,0.03357044584
6.976,0.009786270278,0.03269803233
6.99,0.01311632106,0.03147282031
7.004,0.01629779752,0.02990872833
7.018,0.0192962164,0.02802338536
7.032,0.02207915491,0.02583793173
7.046,0.02461660885,0.02337678077
7.06,0.02688132334,0.02066734381
7.074,0.02884909233,0.01773972173
7.088,0.0304990237,0.01462636656
7.102,0.03181376664,0.01136171695
7.116,0.03277969903,0.00798181179
7.13,0.03338707259,0.004523886352
7.144,0.0336301142,0.001025955505
7.158,0.0335070823,-0.002473611105
7.172,0.03302027775,-0.005936517141
7.186,0.03217600923,-0.009324965996
7.2,0.03098451349,-0.01260208071
7.214,0.02945983151,-0.0157323126
7.228,0.0276196421,-0.0186818339
7.242,0.02548505495,-0.02141891012
7.256,0.02308036553,-0.02391424773
7.27,0.02043277471,-0.02614131336
7.284,0.01757207655,-0.02807662101
7.298,0.01453031777,-0.02969998392
7.312,0.01134143293,-0.03099472849
7.326,0.00804085959,-0.03194786786
7.34,0.004665137848,-0.03255023327
7.354,0.001251498983,-0.03279656191
7.368,-0.002162552154,-0.03268554046
7.382,-0.005539656143,-0.03221980386
7.396,-0.008843014632,-0.03140588963
7.41,-0.01203679787,-0.03025414838
7.424,-0.0150865395,-0.02877861185
7.438,-0.01795951423,-0.02699681996
7.452,-0.02062509402,-0.02492960926
7.466,-0.02305507904,-0.02260086529
7.48,-0.02522399948,-0.02003724184
7.494,-0.02710938523,-0.01726785054
7.508,-0.02869200024,-0.01432392443
7.522,-0.02995603932,-0.01123845958
7.536,-0.03088928524,-0.00804583882
7.55,-0.03148322457,-0.004781442148
7.564,-0.03173312128,-0.001481248202
7.578,-0.03163804744,0.001818568555
7.592,-0.03120087105,0.005082040342
7.606,-0.0304282013,0.008273803673
7.62,-0.02933029231,0.01135948762
7.634,-0.02792090663,0.01430608833
7.648,-0.02621714039,0.01708232575
7.662,-0.02423921239,0.01965897849
7.676,-0.0220102197,0.02200919333
7.69,-0.01955586292,0.02410876602
7.704,-0.01690414438,0.02593639039
7.718,-0.0140850429,0.02747387324
7.732,-0.01113016899,0.02870631285
7.746,-0.008072404647,0.02962223944
7.76,-0.004945531757,0.03021371625
7.774,-0.001783853563,0.0304764005
7.788,0.001378186562,0.0304095639
7.802,0.0045063847,0.03001607286
7.816,0.007567150076,0.02930232887
7.83,0.01052786872,0.02827817035
7.844,0.01335725307,0.02695673718
7.858,0.01602567387,0.02535429995
7.872,0.01850547057,0.02349005612
7.886,0.0207712373,0.02138589581
7.9,0.02280008119,0.01906613994
7.914,0.02457185059,0.01655725423
7.928,0.02606933094,0.01388754217
7.942,0.02727840644,0.0110868209
7.956,0.02818818613,0.008186083577
7.97,0.02879109332,0.005217152269
7.984,0.02908291783,0.002212325223
7.998,0.02906283091,-0.0007959774461
8.012,0.02873336301,-0.003775565759
8.026,0.02810034523,-0.006694825682
8.04,0.02717281536,-0.009523055025
8.054,0.02596289007,-0.01223078584
8.068,0.0244856051,-0.01479008995
8.082,0.02275872542,-0.01717486447
8.096,0.02080252805,-0.0193610944
8.11,0.01863956003,-0.02132708982
8.124,0.01629437467,-0.02305369525
8.138,0.01379324914,-0.02452446945
8.152,0.01116388667,-0.02572583391
8.166,0.008435106944,-0.02664718896
8.18,0.005636528001,-0.02728099658
8.194,0.002798243346,-0.02762282956
8.208,-4.950227178E-05,-0.0276713868
8.222,-0.002876634885,-0.02742847519
8.236,-0.005653567706,-0.02689895855
8.25,-0.008351508604,-0.02609067483
8.264,-0.01094275549,-0.02501432272
8.278,-0.01340097663,-0.02368331938
8.292,-0.01570147316,-0.02211363123
8.306,-0.01782142117,-0.02032357992
8.32,-0.0197400912,-0.01833362589
8.334,-0.02143904315,-0.01616613216
8.348,-0.02290229474,-0.01384511109
8.362,-0.02411646241,-0.011395957
8.376,-0.02507087328,-0.008845167711
8.39,-0.02575764772,-0.006220057936
8.404,-0.02617175186,-0.00354846781
8.418,-0.02631102,-0.0008584694872
8.432,-0.02617614726,0.001821925042
8.446,-0.02577065274,0.004465051951
8.46,-0.02510081424,0.00704387649
8.474,-0.0241755754,0.009532264031
8.488,-0.02300642683,0.01190523863
8.502,-0.02160726265,0.01413922666
8.516,-0.01999421427,0.0162122832
8.53,-0.01818546358,0.01810429928
8.544,-0.01620103752,0.01979718796
8.558,-0.01406258646,0.02127504793
8.572,-0.0117931489,0.022524303
8.586,-0.00941690492,0.02353381679
8.6,-0.006958921046,0.02429498154
8.614,-0.004444889206,0.02480178061
8.628,-0.001900862397,0.02505082452
8.642,0.0006470102768,0.02504136037
8.656,0.003172746564,0.02477525505
8.67,0.005650789509,0.02425695268
8.684,0.008056258898,0.02349340704
8.698,0.01036519336,0.02249399004
8.712,0.01255478089,0.02127037734
8.726,0.01460357576,0.01983641258
8.74,0.01649169982,0.01820795175
8.754,0.01820102655,0.01640268949
8.768,0.01971534618,0.01443996914
8.782,0.02102051073,0.01234057854
8.796,0.02210455752,0.01012653381
8.81,0.02295781061,0.007820853096
8.824,0.02357295904,0.005447322654
8.838,0.02394511174,0.003030257583
8.852,0.02407182859,0.0005942594027
8.866,0.02395312768,-0.001836027132
8.88,0.02359146894,-0.00423615574
8.894,0.02299171444,-0.006582116596
8.908,0.02216106607,-0.008850568392
8.922,0.02110898117,-0.0110190624
8.936,0.01984706732,-0.01306625652
8.95,0.01838895717,-0.01497211733
8.964,0.01675016484,-0.01671810856
8.978,0.01494792518,-0.01828736409
8.992,0.01300101757,-0.01966484416
9.006,0.01092957595,-0.02083747345
9.02,0.008754886885,-0.0217942597
9.034,0.006499177641,-0.02252639213
9.048,0.004185396184,-0.02302731865
9.062,0.001836985236,-0.02329280132
9.076,-0.0005223475722,-0.02332094968
9.09,-0.002868861295,-0.02311223161
9.104,-0.005179012899,-0.02266946185
9.118,-0.007429686,-0.02199776815
9.132,-0.009598415002,-0.02110453562
9.146,-0.0116636026,-0.01999932956
9.16,-0.01360472863,-0.01869379789
9.174,-0.01540254841,-0.01720155364
9.188,-0.01703927865,-0.01553803902
9.202,-0.0184987693,-0.01372037202
9.216,-0.01976665967,-0.01176717709
9.23,-0.02083051748,-0.009698401471
9.244,-0.02167995932,-0.007535118794
9.258,-0.02230675161,-0.005299321795
9.272,-0.02270489091,-0.003013706066
9.286,-0.02287066281,-0.0007014468222
9.3,-0.02280267885,0.001614029219
9.314,-0.02250189102,0.003909274734
9.328,-0.02197158359,0.006161053288
9.342,-0.02121734233,0.008346569237
9.356,-0.02024700125,0.01044369386
9.37,-0.01907056735,0.01243118553
9.384,-0.0177001239,0.01428890186
9.398,-0.01614971319,0.01599800163
9.412,-0.01443519957,0.01754113461
9.426,-0.01257411434,0.01890261738
9.44,-0.01058548341,0.0200685933
9.454,-0.008489639802,0.02102717498
9.468,-0.0063080223,0.02176856785
9.482,-0.004062962447,0.02228517345
9.496,-0.001777461696,0.02257167118
9.51,0.0005250390488,0.02262507785
9.524,0.002820895317,0.02244478389
9.538,0.005086498076,0.0220325661
9.552,0.00729851349,0.02139257633
9.566,0.009434121053,0.02053130627
9.58,0.0114712477,0.01945752827
9.594,0.01338879549,0.01818221286
9.608,0.01516686056,0.01671842352
9.622,0.01678694101,0.01508118947
9.636,0.01823213158,0.01328735784
9.65,0.01948730294,0.01135542636
9.664,0.0205392638,0.009305358289
9.678,0.02137690382,0.007158381172
9.692,0.02199131591,0.004936771547
9.706,0.02237589636,0.002663627584
9.72,0.02252642164,0.0003626319832
9.734,0.02244110087,-0.001942192513
9.748,0.02212060322,-0.004226732478
9.762,0.02156805978,-0.006467035477
9.776,0.02078903963,-0.00863956144
9.79,0.01979150023,-0.01072143107
9.804,0.01858571242,-0.01269066864
9.818,0.01718416056,-0.01452643665
9.832,0.0156014188,-0.01620925958
9.846,0.01385400456,-0.0177212346
9.86,0.01196021059,-0.01904622653
9.874,0.009939917236,-0.02017004519
9.888,0.007814386874,-0.02108060279
9.902,0.005606042463,-0.02176804985
9.916,0.003338232589,-0.02222488769
9.93,0.001034985377,-0.02244605641
9.944,-0.0012792461,-0.02242899708
9.958,-0.003579844247,-0.02217368726
9.972,-0.005842290388,-0.0216826494
9.986,-0.008042428394,-0.02096093178
10,-0.01015672561,-0.02001606204
