"Freq [GHz]","re(S(Tx_p1,Tx_p1)) []","im(S(Tx_p1,Tx_p1)) []"
3,0.007428758435,-0.06153229442
3.014,0.0009151613407,-0.06178935402
3.028,-0.005569388261,-0.06136161275
3.042,-0.01195346613,-0.06025811812
3.056,-0.01816723631,-0.05849529777
3.07,-0.02414320523,-0.05609672519
3.084,-0.02981694413,-0.05309280941
3.098,-0.03512777222,-0.04952041284
3.112,-0.04001939367,-0.04542240189
3.126,-0.04444048184,-0.040847136
3.14,-0.04834520512,-0.03584790099
3.154,-0.05169368901,-0.03048229339
3.168,-0.0544524103,-0.02481156283
3.182,-0.05659451951,-0.01889991976
3.196,-0.05810008881,-0.01281381638
3.21,-0.05895628344,-0.006621208477
3.224,-0.05915745539,-0.0003908064262
3.238,-0.05870515887,0.005808676754
3.252,-0.05760808821,0.01190927218
3.266,-0.05588193927,0.01784448883
3.28,-0.05354919646,0.02355002651
3.294,-0.05063884817,0.02896446072
3.308,-0.04718603417,0.03402989221
3.322,-0.04323162913,0.03869255475
3.336,-0.03882176705,0.04290337483
3.35,-0.03400731216,0.04661847783
3.364,-0.02884328204,0.04979963542
3.378,-0.02338822951,0.05241465011
3.392,-0.01770358988,0.05443767292
3.406,-0.01185300083,0.05584945159
3.42,-0.005901602074,0.05663750665
3.434,8.467761271E-05,0.05679623424
3.448,0.006039838395,0.05632693477
3.462,0.0118985249,0.05523776746
3.476,0.01759673169,0.05354363167
3.49,0.02307249123,0.05126597655
3.504,0.02826653729,0.04843254122
3.518,0.03312293678,0.04507702865
3.532,0.03758968353,0.04123871682
3.546,0.04161924781,0.03696201142
3.56,0.04516907603,0.03229594521
3.574,0.04820203541,0.0272936292
3.588,0.05068679916,0.02201166183
3.602,0.05259816811,0.01650950233
3.616,0.05391732572,0.01084881509
3.63,0.05463202376,0.005092791898
3.644,0.05473669691,-0.0006945405885
3.658,0.05423250513,-0.006449020888
3.672,0.05312730354,-0.01210705278
3.686,0.05143553999,-0.01760629801
3.7,0.04917808187,-0.02288635426
3.714,0.04638197354,-0.0278894112
3.728,0.04308012754,-0.03256087761
3.742,0.03931095236,-0.03684997292
3.756,0.03511792119,-0.04071027693
3.77,0.03054908591,-0.04410023161
3.784,0.02565654175,-0.04698358981
3.798,0.0204958481,-0.04932980596
3.812,0.0151254119,-0.05111436441
3.826,0.00960583993,-0.05231904196
3.84,0.003999267179,-0.05293210151
3.854,-0.001631331594,-0.05294841482
3.868,-0.007222839687,-0.05236951272
3.882,-0.01271269809,-0.0512035622
3.896,-0.01803959931,-0.0494652705
3.91,-0.02314416783,-0.04717571699
3.924,-0.02796961974,-0.04436211455
3.938,-0.03246239423,-0.04105750293
3.952,-0.03657274993,-0.03730037718
3.966,-0.04025531947,-0.03313425505
3.98,-0.04346961601,-0.02860718812
3.994,-0.04618048587,-0.0237712216
4.008,-0.04835850224,-0.01868180901
4.022,-0.04998029528,-0.01339718767
4.036,-0.05102881468,-0.00797772224
4.05,-0.05149352161,-0.002485223283
4.064,-0.05137050758,0.00301775152
4.078,-0.0506625386,0.008468605656
4.092,-0.04937902393,0.01380541366
4.106,-0.04753590947,0.01896762457
4.12,-0.04515549661,0.02389675088
4.134,-0.04226618855,0.02853703521
4.148,-0.03890216651,0.03283608687
4.162,-0.03510299934,0.03674548112
4.176,-0.03091319083,0.04022131383
4.19,-0.02638166957,0.04322470532
4.204,-0.02156122715,0.04572224714
4.218,-0.01650791088,0.04768638655
4.232,-0.01128037812,0.04909574403
4.246,-0.005939219293,0.0499353598
4.26,-0.0005462575736,0.0501968664
4.274,0.004836166715,0.04987858494
4.288,0.01014591873,0.04898554369
4.302,0.01532179028,0.04752941861
4.316,0.02030421105,0.04552839619
4.33,0.02503594158,0.04300696006
4.344,0.02946273967,0.0399956036
4.358,0.03353399229,0.03653047182
4.372,0.03720330558,0.03265293651
4.386,0.04042904562,0.0284091095
4.4,0.04317482357,0.0238492997
4.414,0.04540991931,0.0190274203
4.428,0.04710963829,0.01400035297
4.442,0.04825559728,0.008827276565
4.456,0.04883593547,0.003568968439
4.47,0.04884544822,-0.001712913536
4.484,0.04828564178,-0.006956559516
4.498,0.04716470808,-0.01210073813
4.512,0.04549741998,-0.01708552007
4.526,0.043304948,-0.02185298601
4.54,0.04061460057,-0.02634791047
4.554,0.03745949113,-0.03051841317
4.568,0.03387813576,-0.03431657005
4.582,0.02991398625,-0.03769897662
4.596,0.02561490436,-0.04062725656
4.61,0.02103258337,-0.04306850959
4.624,0.01622192418,-0.04499569308
4.638,0.01124037334,-0.04638793264
4.652,0.006147231203,-0.04723075805
4.666,0.001002938602,-0.04751626156
4.68,-0.004131649253,-0.0472431767
4.694,-0.009195992748,-0.0464168766
4.708,-0.01413059278,-0.04504929197
4.722,-0.01887770171,-0.04315874972
4.736,-0.02338201169,-0.04076973429
4.75,-0.02759131183,-0.03791257475
4.764,-0.03145710624,-0.0346230615
4.778,-0.03493518539,-0.03094199755
4.792,-0.03798614372,-0.02691468981
4.806,-0.04057583726,-0.02259038694
4.82,-0.04267577576,-0.01802167081
4.834,-0.04426344448,-0.01326380899
4.848,-0.04532255196,-0.008374076732
4.862,-0.04584320074,-0.003411056584
4.876,-0.04582197927,0.001566075352
4.89,-0.04526197393,0.006498267738
4.904,-0.04417270142,0.01132730789
4.918,-0.04256996246,0.01599652238
4.932,-0.04047561908,0.02045145564
4.946,-0.03791729845,0.0246405182
4.96,-0.03492802729,0.02851559658
4.974,-0.03154580173,0.0320326174
4.988,-0.02781309828,0.03515205878
5.002,-0.02377633234,0.03783940302
5.016,-0.01948527125,0.04006552502
5.03,-0.01499240956,0.04180701205
5.044,-0.01035231443,0.0430464112
5.058,-0.00562094976,0.04377240176
5.072,-0.0008549874166,0.04397989097
5.086,0.003888885539,0.04367003225
5.1,0.00855465495,0.0428501664
5.114,0.01308765439,0.04153368684
5.128,0.01743521833,0.03973983129
5.142,0.02154730555,0.03749340301
5.156,0.02537708534,0.03482442558
5.17,0.0288814792,0.03176773626
5.184,0.03202165184,0.02836252338
5.198,0.03476344561,0.02465181415
5.212,0.03707775342,0.02068191975
5.226,0.03894082617,0.01650184509
5.24,0.04033451123,0.01216267089
5.254,0.04124641986,0.007716916195
5.268,0.04167002212,0.003217889478
5.282,0.04160466881,-0.001280963416
5.296,0.04105554092,-0.005726706307
5.31,0.04003352812,-0.01006754663
5.324,0.03855503851,-0.01425344855
5.338,0.03664174284,-0.01823671776
5.352,0.03432025709,-0.0219725511
5.366,0.03162176829,-0.02541954444
5.38,0.02858160869,-0.02854015315
5.394,0.0252387844,-0.03130109985
5.408,0.02163546495,-0.03367372524
5.422,0.01781644051,-0.03563427821
5.436,0.01382855399,-0.03716414256
5.45,0.009720115454,-0.03824999837
5.464,0.005540306273,-0.03888391682
5.478,0.001338580525,-0.03906338834
5.492,-0.002835928871,-0.03879128469
5.506,-0.006934992066,-0.03807575624
5.52,-0.01091184524,-0.03693006693
5.534,-0.01472172797,-0.03537236962
5.548,-0.01832238878,-0.03342542564
5.562,-0.02167455315,-0.03111627288
5.576,-0.02474234889,-0.02847584709
5.59,-0.0274936843,-0.02553856203
5.604,-0.02990057525,-0.02234185403
5.618,-0.03193941806,-0.01892569728
5.632,-0.03359120571,-0.0153320961
5.646,-0.03484168578,-0.01160456086
5.66,-0.03568145899,-0.007787574083
5.674,-0.03610601846,-0.003926053481
5.688,-0.03611572997,-6.481844297E-05
5.702,-0.03571575461,0.003751933671
5.716,-0.03491591583,0.007481135226
5.73,-0.03373051336,0.0110813342
5.744,-0.03217808735,0.01451315278
5.758,-0.03028113633,0.01773971371
5.772,-0.02806579335,0.02072702979
5.786,-0.02556146494,0.02344435266
5.8,-0.02280043783,0.02586447737
5.814,-0.0198174589,0.027964
5.828,-0.0166492937,0.02972352623
5.842,-0.01333426937,0.03112782917
5.856,-0.009911807581,0.03216595583
5.87,-0.006421953317,0.03283128174
5.884,-0.002904905075,0.03312151431
5.898,0.0005994479593,0.03303864588
5.912,0.004051976467,0.03258885803
5.926,0.007414744256,0.03178237933
5.94,0.01065141951,0.0306332991
5.954,0.01372765966,0.02915934044
5.968,0.01661146606,0.02738159585
5.982,0.0192735048,0.02532422954
5.996,0.02168739094,0.02301415038
6.01,0.0238299334,0.02048066018
6.024,0.02568133878,0.01775508161
6.038,0.02722537258,0.01487037075
6.052,0.0284494769,0.01186071894
6.066,0.0293448444,0.008761148731
6.08,0.02990644845,0.00560710864
6.094,0.03013303041,0.002434071479
6.108,0.03002704491,-0.0007228594335
6.122,0.02959456496,-0.003829331829
6.136,0.02884514863,-0.006852109829
6.15,0.02779167002,-0.009759419356
6.164,0.02645011697,-0.01252127022
6.178,0.02483935867,-0.01510975186
6.192,0.02298088646,-0.01749930008
6.206,0.02089853134,-0.01966693252
6.22,0.01861816178,-0.02159245102
6.234,0.01616736567,-0.02325860947
6.248,0.01357512026,-0.02465124609
6.262,0.01087145392,-0.02575937965
6.276,0.008087103684,-0.02657526929
6.29,0.005253172243,-0.02709443836
6.304,0.00240078815,-0.02731566276
6.318,-0.000439227186,-0.02724092473
6.332,-0.003236682366,-0.02687533353
6.346,-0.00596232553,-0.02622701456
6.36,-0.008588137593,-0.02530696875
6.374,-0.01108760648,-0.02412890463
6.388,-0.01343597996,-0.02270904524
6.402,-0.01561049485,-0.02106591263
6.416,-0.0175905809,-0.01922009272
6.43,-0.01935803771,-0.01719398326
6.444,-0.02089718348,-0.01501152805
6.458,-0.02219497477,-0.01269794041
6.472,-0.02324109669,-0.0102794189
6.486,-0.02402802311,-0.007782858519
6.5,-0.02455104726,-0.00523556021
6.514,-0.02480828266,-0.00266494189
6.528,-0.0248006354,-9.825371188E-05
6.542,-0.02453174838,0.002437699597
6.556,-0.02400791881,0.004916826681
6.57,-0.0232379904,0.007314005336
6.584,-0.02223322167,0.00960532381
6.598,-0.02100713236,0.01176830553
6.612,-0.01957532981,0.01378211537
6.626,-0.01795531747,0.01562774581
6.64,-0.01616628778,0.01728818148
6.654,-0.01422890173,0.01874854101
6.668,-0.01216505756,0.01999619517
6.682,-0.009997651024,0.02102086056
6.696,-0.007750329821,0.02181466849
6.71,-0.005447244514,0.0223722088
6.724,-0.003112798586,0.02269054861
6.738,-0.0007713999842,0.02276922635
6.752,0.001552783461,0.02261022151
6.766,0.003836062438,0.02221790092
6.78,0.006055456201,0.02159894228
6.794,0.008188912195,0.02076223635
6.808,0.01021551332,0.01971876882
6.822,0.0121156711,0.01848148353
6.836,0.01387130301,0.01706512854
6.85,0.01546599276,0.01548608679
6.864,0.01688513203,0.01376219325
6.878,0.01811604274,0.01191254051
6.892,0.01914807897,0.009957274752
6.906,0.01997270785,0.007917384251
6.92,0.02058356895,0.005814482467
6.934,0.02097651196,0.003670587888
6.948,0.02114961254,0.001507902704
6.962,0.0211031666,-0.0006514075657
6.976,0.02083966325,-0.002785431445
6.99,0.02036373694,-0.004872723874
7.004,0.01968209962,-0.006892511655
7.018,0.01880345375,-0.00882489014
7.032,0.0177383871,-0.01065100942
7.046,0.01649925075,-0.01235324843
7.06,0.01510002139,-0.01391537545
7.074,0.01355614964,-0.01532269364
7.088,0.01188439563,-0.01656217059
7.102,0.0101026539,-0.01762255055
7.116,0.008229768965,-0.01849444875
7.13,0.00628534364,-0.01917042703
7.144,0.004289541862,-0.01964505017
7.158,0.002262887872,-0.01991492276
7.172,0.0002260637066,-0.01997870627
7.186,-0.001800293149,-0.01983711646
7.2,-0.003795790051,-0.01949290133
7.214,-0.00574047561,-0.01895079986
7.228,-0.007615030435,-0.01821748226
7.242,-0.009400950494,-0.01730147224
7.256,-0.01108072145,-0.01621305234
7.27,-0.01263798246,-0.01496415316
7.284,-0.01405767789,-0.01356822773
7.298,-0.01532619587,-0.01204011225
7.312,-0.01643149218,-0.01039587459
7.326,-0.01736319868,-0.008652651955
7.34,-0.01811271528,-0.006828479439
7.354,-0.01867328467,-0.004942110868
7.368,-0.01904004932,-0.003012833837
7.382,-0.01921009014,-0.001060280549
7.396,-0.01918244682,0.0008957637497
7.41,-0.01895811947,0.00283555296
7.424,-0.01854005175,0.0047395712
7.438,-0.01793309582,0.006588720993
7.452,-0.01714395929,0.008364506874
7.466,-0.01618113493,0.01004921274
7.48,-0.01505481365,0.01162607137
7.494,-0.01377678182,0.01307942452
7.508,-0.01236030365,0.01439487229
7.522,-0.01081998997,0.01555941026
7.536,-0.009171654451,0.01656155334
7.55,-0.007432158744,0.01739144505
7.564,-0.005619247847,0.01804095142
7.578,-0.003751377261,0.0185037386
7.592,-0.001847533501,0.01877533336
7.606,7.295041732E-05,0.01885316625
7.62,0.001990582832,0.01873659659
7.634,0.003885902934,0.01842691944
7.648,0.005739670186,0.01792735423
7.662,0.007533051944,0.01724301516
7.676,0.009247807567,0.01638086367
7.69,0.01086646734,0.01534964328
7.704,0.01237250454,0.01415979734
7.718,0.01375049908,0.01282337047
7.732,0.0149862912,0.01135389436
7.746,0.0160671237,0.009766259055
7.76,0.01698177142,0.008076570709
7.774,0.01772065663,0.006301997079
7.788,0.01827594929,0.004460602115
7.802,0.018641651,0.002571171067
7.816,0.01881366182,0.0006530276649
7.83,0.01878982926,-0.001274154993
7.844,0.01856997871,-0.003190548145
7.858,0.0181559249,-0.005076363884
7.872,0.01755146416,-0.006912052689
7.886,0.0167623473,-0.008678500101
7.9,0.01579623314,-0.01035722069
7.914,0.01466262295,-0.01193054744
7.928,0.01337277627,-0.01338181466
7.942,0.01193960857,-0.01469553267
7.956,0.01037757158,-0.01585755239
7.97,0.008702517229,-0.01685521809
7.984,0.0069315463,-0.01767750687
7.998,0.005082843075,-0.01831515298
8.012,0.003175497376,-0.01876075588
8.026,0.001229315622,-0.01900887056
8.04,-0.0007353774014,-0.01905607895
8.054,-0.002697944202,-0.01890104159
8.068,-0.004637645731,-0.01854452854
8.082,-0.006533855953,-0.01798942904
8.096,-0.008366277725,-0.01724073951
8.11,-0.01011515779,-0.0163055295
8.124,-0.01176149867,-0.01519288583
8.138,-0.01328726518,-0.01391383492
8.152,-0.01467558345,-0.01248124399
8.166,-0.01591093006,-0.01090970156
8.18,-0.01697930929,-0.009215378448
8.194,-0.01786841645,-0.007415870138
8.208,-0.01856778513,-0.005530022122
8.222,-0.01906891671,-0.003577739625
8.236,-0.01936539042,-0.001579783579
8.25,-0.01945295234,0.0004424452076
8.264,-0.01932958214,0.002467131538
8.278,-0.01899553639,0.004472278685
8.292,-0.01845336761,0.006435946184
8.306,-0.01770791842,0.008336490039
8.32,-0.01676629045,0.01015280272
8.334,-0.01563778801,0.01186455027
8.348,-0.01433383654,0.01345240389
8.362,-0.01286787663,0.01489826323
8.376,-0.01125523408,0.01618546879
8.39,-0.00951296735,0.01729900088
8.404,-0.007659693648,0.01822566262
8.418,-0.005715395257,0.01895424463
8.432,-0.003701208108,0.01947566928
8.446,-0.001639194673,0.01978311254
8.46,0.0004478964121,0.01987210159
8.474,0.002536881431,0.01974058677
8.488,0.004604400617,0.01938898662
8.502,0.006627182223,0.01882020506
8.516,0.00858230863,0.01803962015
8.53,0.01044748138,0.01705504406
8.544,0.01220128203,0.01587665442
8.558,0.0138234256,0.01451689735
8.572,0.01529500363,0.01299036298
8.586,0.01659871374,0.01131363457
8.6,0.01771907267,0.009505112666
8.614,0.01864261033,0.007584815995
8.628,0.01935804187,0.005574161347
8.642,0.01985641578,0.003495724657
8.656,0.02013123578,0.001372986048
8.67,0.02017855461,-0.000769938324
8.684,0.01999703846,-0.002908574504
8.698,0.01958800072,-0.005018375795
8.712,0.01895540442,-0.007075011233
8.726,0.01810583288,-0.009054653986
8.74,0.01704842866,-0.01093426615
8.754,0.01579480121,-0.0126918764
8.768,0.01435890397,-0.014306847
8.782,0.01275688224,-0.01576012679
8.796,0.01100689333,-0.01703448686
8.81,0.009128900956,-0.01811473583
8.824,0.007144446315,-0.01898791195
8.838,0.005076398296,-0.01964344929
8.852,0.00294868591,-0.02007331584
8.866,0.0007860160612,-0.02027212159
8.88,-0.001386419915,-0.02023719483
8.894,-0.003543247366,-0.01996862571
8.908,-0.005659213359,-0.01946927604
8.922,-0.007709491855,-0.01874475521
8.936,-0.009669985174,-0.01780336202
8.95,-0.01151761794,-0.01665599326
8.964,-0.01323061974,-0.01531601966
8.978,-0.0147887929,-0.01379913086
8.992,-0.01617376188,-0.01212315099
9.006,-0.01736920103,-0.01030782718
9.02,-0.01836103777,-0.008374593438
9.034,-0.01913762841,-0.006346312817
9.048,-0.01968990441,-0.004247001083
9.062,-0.0200114869,-0.002101535253
9.076,-0.02009876809,6.464930299E-05
9.09,-0.01995095825,0.002225869399
9.104,-0.01957009767,0.004356508276
9.118,-0.01896103328,0.006431329547
9.132,-0.01813136013,0.008425786844
9.146,-0.01709132851,0.01031632521
9.16,-0.01585371759,0.01208067032
9.174,-0.01443367744,0.01369810192
9.188,-0.01284854113,0.01514970778
9.202,-0.01111760946,0.01641861507
9.216,-0.009261911007,0.01749019607
9.23,-0.007303940497,0.01835224553
9.244,-0.005267378965,0.01899512746
9.258,-0.003176799195,0.01941188949
9.272,-0.0010573603,0.01959834319
9.286,0.001065504648,0.01955310951
9.3,0.003166403893,0.01927762862
9.314,0.005220301118,0.01877613422
9.328,0.007202824353,0.01805559257
9.342,0.009090565703,0.01712560717
9.356,0.01086136802,0.01599829036
9.37,0.01249459485,0.01468810357
9.384,0.01397138023,0.01321166839
9.398,0.01527485514,0.01158755096
9.412,0.0163903477,0.009836022624
9.426,0.01730555473,0.007978799929
9.44,0.01801068245,0.006038767547
9.454,0.01849855465,0.004039687677
9.468,0.01876468716,0.002005899833
9.482,0.01880732761,-3.798507538E-05
9.496,0.01862746041,-0.002067392338
9.51,0.01822877684,-0.004058088723
9.524,0.01761761096,-0.005986481474
9.538,0.01680284244,-0.007829907177
9.552,0.01579576759,-0.009566906792
9.566,0.01460994072,-0.01117748338
9.58,0.01326098796,-0.01264333929
9.594,0.01176639621,-0.01394808982
9.608,0.01014528021,-0.01507745088
9.622,0.008418130915,-0.01601939826
9.636,0.006606548562,-0.01676429681
9.65,0.004732964178,-0.01730499805
9.664,0.00282035315,-0.01763690529
9.678,0.0008919447248,-0.0177580056
9.692,-0.001029068745,-0.01766886877
9.706,-0.002919819019,-0.01737261338
9.72,-0.004758041944,-0.01687484101
9.734,-0.006522346622,-0.01618353955
9.748,-0.008192470396,-0.01530895756
9.762,-0.009749516499,-0.01426345133
9.776,-0.0111761715,-0.01306130722
9.79,-0.01245689998,-0.01171854174
9.804,-0.0135781142,-0.01025268246
9.818,-0.01452831689,-0.008682532603
9.832,-0.01529821576,-0.007027922834
9.846,-0.01588080854,-0.005309453541
9.86,-0.01627143799,-0.003548231103
9.874,-0.01646781653,-0.001765601661
9.888,-0.01647002082,1.711412405E-05
9.902,-0.01628045659,0.001778881915
9.916,-0.01590379495,0.003499206854
9.93,-0.01534688121,0.005158375896
9.944,-0.01461861812,0.006737686382
9.958,-0.01372982531,0.008219658159
9.972,-0.0126930772,0.009588226835
9.986,-0.01152252193,0.01082891602
10,-0.01023368392,0.01192898675
