"Freq [GHz]","re(S(Tx_p1,Tx_p1)) []","im(S(Tx_p1,Tx_p1)) []"
3,0.07408489751,-0.06175848671
3.014,0.06696313498,-0.06895842154
3.028,0.05914827996,-0.07534889333
3.042,0.05073126642,-0.08086387442
3.056,0.04180924679,-0.08544745507
3.07,0.03248447501,-0.08905442177
3.084,0.02286313655,-0.09165071304
3.098,0.01305413871,-0.09321374794
3.112,0.003167875082,-0.09373262391
3.126,-0.00668502182,-0.09320818212
3.14,-0.01639492559,-0.09165293994
3.154,-0.02585444447,-0.08909089183
3.168,-0.03495961943,-0.08555718111
3.182,-0.04361107848,-0.08109764703
3.196,-0.05171513389,-0.07576825244
3.21,-0.05918481033,-0.06963439922
3.224,-0.06594079214,-0.06277013943
3.238,-0.07191227942,-0.05525729175
3.252,-0.07703774335,-0.04718447353
3.266,-0.08126557248,-0.03864605992
3.28,-0.08455460294,-0.02974108214
3.294,-0.08687452708,-0.02057207797
3.308,-0.08820617609,-0.01124390755
3.322,-0.08854167403,-0.001862548607
3.336,-0.08788446189,0.007466115344
3.35,-0.08624919198,0.0166374995
3.364,-0.08366149444,0.02554950133
3.378,-0.08015761901,0.03410364954
3.392,-0.07578395681,0.04220620532
3.406,-0.07059644817,0.04976920341
3.42,-0.06465988385,0.05671142105
3.434,-0.05804710826,0.06295926417
3.448,-0.05083813436,0.06844756069
3.462,-0.04311918093,0.07312025228
3.476,-0.03498164375,0.07693097703
3.49,-0.02652101302,0.07984353676
3.504,-0.01783574987,0.08183224417
3.518,-0.009026135195,0.08288214628
3.532,-0.0001931044925,0.08298912235
3.546,0.008562917756,0.08215985567
3.56,0.01714317044,0.08041168035
3.574,0.02545168159,0.07777230542
3.588,0.03339635449,0.07427942034
3.602,0.04089000167,0.06998018708
3.616,0.04785131501,0.0649306254
3.63,0.05420576079,0.05919489924
3.644,0.05988638992,0.05284451303
3.658,0.06483455396,0.04595742809
3.672,0.06900051952,0.03861710985
3.686,0.07234397405,0.0309115176
3.7,0.07483441809,0.02293204906
3.714,0.07645143982,0.01477245237
3.728,0.07718486968,0.006527718759
3.742,0.07703481383,-0.001707031173
3.756,0.07601156705,-0.009837654118
3.77,0.0741354068,-0.01777207081
3.784,0.0714362718,-0.02542132006
3.798,0.06795332972,-0.03270056782
3.812,0.06373443992,-0.03953005977
3.826,0.05883551827,-0.04583600633
3.84,0.05331981257,-0.05155139036
3.854,0.0472570975,-0.05661668826
3.868,0.04072279956,-0.06098049686
3.882,0.03379706286,-0.06460005908
3.896,0.02656376724,-0.06744168318
3.91,0.01910951099,-0.06948105124
3.924,0.01152257035,-0.07070341418
3.938,0.00389184863,-0.07110367196
3.952,-0.003694172665,-0.07068633888
3.966,-0.011148468,-0.06946539545
3.98,-0.01838647518,-0.06746402944
3.994,-0.02532706397,-0.06471427037
4.008,-0.03189345491,-0.06125652247
4.022,-0.03801407752,-0.05713900293
4.036,-0.04362335842,-0.05241709271
4.05,-0.04866243035,-0.04715260873
4.064,-0.05307975448,-0.04141300683
4.078,-0.05683164911,-0.03527052542
4.092,-0.05988271971,-0.02880128145
4.106,-0.06220618563,-0.02208432899
4.12,-0.06378410083,-0.01520069291
4.134,-0.06460746699,-0.008232389141
4.148,-0.06467623859,-0.001261443592
4.162,-0.06399922114,0.005631078533
4.176,-0.06259386475,0.01236602137
4.19,-0.06048595671,0.01886705379
4.204,-0.05770921777,0.02506154085
4.218,-0.05430480803,0.03088136127
4.232,-0.05032074942,0.03626366162
4.246,-0.0458112726,0.04115153876
4.26,-0.04083609695,0.04549464313
4.274,-0.03545965325,0.0492496964
4.288,-0.02975025895,0.05238091826
4.302,-0.02377925663,0.05486035806
4.316,-0.01762012643,0.05666812856
4.33,-0.01134758361,0.05779253988
4.344,-0.005036672258,0.05823013336
4.358,0.001238133733,0.05798561597
4.372,0.007403811703,0.05707169733
4.386,0.01338964268,0.0555088324
4.4,0.01912802533,0.05332487419
4.414,0.02455524193,0.05055464173
4.428,0.02961216765,0.04723940966
4.442,0.03424491528,0.04342632655
4.456,0.03840540827,0.03916776998
4.47,0.04205187607,0.03452064696
4.484,0.04514926673,0.02954564903
4.498,0.04766957281,0.02430647146
4.512,0.04959206762,0.01886900685
4.526,0.05090345031,0.01330052296
4.54,0.05159789904,0.00766883527
4.554,0.05167703282,0.002041484279
4.568,0.05114978387,-0.003515072428
4.582,0.05003218303,-0.008936243679
4.596,0.04834706213,-0.01416005455
4.61,0.04612367817,-0.0191278538
4.624,0.04339726479,-0.02378497095
4.638,0.04020851765,-0.02808131545
4.652,0.03660302089,-0.03197191168
4.666,0.03263062255,-0.03541736395
4.68,0.02834476723,-0.03838424676
4.694,0.02380179486,-0.04084541683
4.708,0.01906021459,-0.04278024392
4.722,0.01417996309,-0.04417475895
4.736,0.009221656557,-0.04502171873
4.75,0.004245845715,-0.04532058773
4.764,-0.0006877171247,-0.04507743829
4.778,-0.005520790098,-0.04430477174
4.792,-0.0101973245,-0.04302126379
4.806,-0.01466411019,-0.04125143833
4.82,-0.01887137639,-0.03902527491
4.834,-0.02277334106,-0.03637775548
4.848,-0.02632870291,-0.03334835711
4.862,-0.02950107092,-0.02998049752
4.876,-0.03225932691,-0.02632094114
4.89,-0.03457791781,-0.02241917355
4.904,-0.03643707509,-0.01832675237
4.918,-0.03782295968,-0.01409664319
4.932,-0.03872773189,-0.009782548717
4.946,-0.03914954647,-0.005438239693
4.96,-0.03909247413,-0.001116895697
4.974,-0.03856635164,0.003129536149
4.988,-0.03758656336,0.007250956932
5.002,-0.03617375807,0.01119969897
5.016,-0.03435350569,0.0149310694
5.03,-0.03215589876,0.01840384829
5.044,-0.02961510494,0.02158073573
5.058,-0.02676887637,0.02442874329
5.072,-0.02365802299,0.02691952586
5.086,-0.02032585669,0.02902965067
5.1,-0.01681761381,0.03074080116
5.114,-0.01317986325,0.03203991433
5.128,-0.009459908013,0.03291925074
5.142,-0.005705187488,0.03337639755
5.156,-0.001962687963,0.03341420552
5.17,0.001721631461,0.03304066185
5.184,0.005303390725,0.03226870143
5.198,0.008740311909,0.03111595991
5.212,0.01199270758,0.02960447246
5.226,0.01502392884,0.02776032295
5.24,0.01780076826,0.0256132486
5.254,0.02029381325,0.02319620576
5.268,0.02247774647,0.02054490288
5.282,0.02433159028,0.01769730687
5.296,0.02583889303,0.01469312955
5.31,0.02698785599,0.01157330076
5.324,0.02777140008,0.008379435027
5.338,0.02818717273,0.005153298308
5.352,0.02823749547,0.001936281709
5.366,0.02792925412,-0.001231111611
5.38,0.02727373367,-0.004309760069
5.394,0.0262864008,-0.007262392007
5.408,0.02498663757,-0.01005402333
5.422,0.02339743044,-0.01265235948
5.436,0.02154501901,-0.01502815724
5.45,0.01945850961,-0.01715554257
5.464,0.01716945906,-0.01901228108
5.478,0.01471143419,-0.02057999864
5.492,0.01211955306,-0.02184434995
5.506,0.009430013746,-0.02279513395
5.52,0.006679616892,-0.02342635521
5.534,0.003905287968,-0.02373623158
5.548,0.001143605236,-0.02372714858
5.562,-0.001569660784,-0.02340556199
5.576,-0.004199990774,-0.02278185058
5.59,-0.006714537703,-0.02187012154
5.604,-0.009082520626,-0.02068797169
5.618,-0.01127558664,-0.01925620806
5.632,-0.01326813696,-0.01759853199
5.646,-0.01503761349,-0.015741191
5.66,-0.01656474289,-0.01371260344
5.674,-0.01783373566,-0.01154296081
5.688,-0.01883243831,-0.009263813114
5.702,-0.01955243741,-0.006907642542
5.716,-0.01998911474,-0.004507431079
5.73,-0.02014165355,-0.002096227438
5.744,-0.02001299648,0.0002932812364
5.758,-0.01960975617,0.002629187589
5.772,-0.01894208033,0.004880767114
5.786,-0.01802347351,0.007018861173
5.8,-0.01687057826,0.009016235437
5.814,-0.01550291888,0.01084790953
5.828,-0.01394261148,0.01249145409
5.842,-0.01221404424,0.01392725191
5.856,-0.01034353231,0.01513872019
5.87,-0.008358951745,0.01611249172
5.884,-0.006289357615,0.01683855289
5.898,-0.004164590847,0.0173103375
5.912,-0.002014879121,0.01752477544
5.926,0.0001295632511,0.0174822962
5.94,0.002238931407,0.01718678746
5.954,0.004284217055,0.01664550988
5.968,0.00623758185,0.0158689693
5.982,0.008072712483,0.01487074855
5.996,0.009765153158,0.01366730126
6.01,0.0112926115,0.01227771038
6.024,0.01263523424,0.01072341507
6.038,0.01377584946,0.009027909269
6.052,0.01470017261,0.00721641619
6.066,0.01539697397,0.005315542837
6.08,0.01585820569,0.003352919121
6.094,0.01607908709,0.001356826141
6.108,0.01605814744,-0.0006441816147
6.122,0.01579722591,-0.002621655364
6.136,0.0153014289,-0.004547627665
6.15,0.01457904556,-0.006394979887
6.164,0.01364142281,-0.008137796947
6.178,0.01250280152,-0.009751704911
6.192,0.01118011613,-0.01121418732
6.206,0.009692760456,-0.01250487631
6.22,0.008062322604,-0.01360581506
6.234,0.006312292595,-0.01450168826
6.248,0.004467746335,-0.01518001788
6.262,0.002555010044,-0.01563132192
6.276,0.0006013093849,-0.01584923415
6.29,-0.001365592256,-0.01583058356
6.304,-0.003317761775,-0.01557543243
6.318,-0.005227466005,-0.01508707288
6.332,-0.007067538388,-0.0143719817
6.346,-0.008811738048,-0.01343973439
6.36,-0.01043509678,-0.01230287925
6.374,-0.01191424959,-0.01097677336
6.388,-0.01322774469,-0.00947938239
6.402,-0.01435632896,-0.007831046781
6.416,-0.01528320545,-0.00605421726
6.43,-0.01599425951,-0.004173162976
6.444,-0.01647825082,-0.002213655893
6.458,-0.0167269688,-0.0002026353893
6.472,-0.01673534941,0.001832142767
6.486,-0.01650155193,0.003862468675
6.5,-0.01602699451,0.005860047277
6.514,-0.01531634805,0.007796869436
6.528,-0.01437748843,0.009645580477
6.542,-0.01322140752,0.01137984155
6.556,-0.011862084,0.01297467929
6.57,-0.01031631544,0.01440681931
6.584,-0.008603513662,0.01565499939
6.598,-0.006745465847,0.01670025823
6.612,-0.004766064142,0.0175261962
6.626,-0.002691007124,0.01811920458
6.64,-0.0005474766983,0.01846866042
6.654,0.00163620564,0.01856708429
6.668,0.003830938955,0.01841025885
6.682,0.006007215024,0.01799730657
6.696,0.008135497894,0.01733072541
6.71,0.01018660613,0.0164163817
6.724,0.01213209301,0.01526346021
6.738,0.01394461983,0.01388437174
6.752,0.01559831777,0.01229461903
6.766,0.01706913351,0.01051262261
6.78,0.01833515437,0.008559508259
6.794,0.01937690866,0.006458858792
6.808,0.02017763739,0.00423643271
6.822,0.02072353367,0.001919853242
6.836,0.02100394673,-0.0004617286581
6.85,0.02101154758,-0.00287799331
6.864,0.0207424541,-0.005297828988
6.878,0.02019631365,-0.007689721714
6.892,0.01937634183,-0.01002215339
6.906,0.01828931662,-0.01226400341
6.92,0.01694552755,-0.01438494867
6.934,0.01535868025,-0.01635585719
6.948,0.01354575719,-0.01814917006
6.962,0.01152683589,-0.01973926722
6.976,0.009324866726,-0.02110281216
6.99,0.006965412486,-0.02221907103
7.004,0.004476352851,-0.02307020228
7.018,0.001887556985,-0.02364151251
7.032,-0.0007694718681,-0.02392167555
7.046,-0.003461975639,-0.02390291127
7.06,-0.006156340037,-0.02358112195
7.074,-0.008818507711,-0.02295598378
7.088,-0.01141440098,-0.0220309922
7.102,-0.01391034898,-0.02081346003
7.116,-0.0162735139,-0.01931446791
7.13,-0.01847231112,-0.01754876735
7.144,-0.02047681794,-0.01553463704
7.158,-0.02225916562,-0.01329369388
7.172,-0.02379390991,-0.01085066058
7.186,-0.02505837516,-0.008233092293
7.2,-0.02603296747,-0.00547106537
7.214,-0.0267014529,-0.002596831626
7.228,-0.02705119666,0.000355557848
7.242,-0.02707336034,0.003350655003
7.256,-0.02676305395,0.006352038543
7.27,-0.02611944078,0.009322753999
7.284,-0.0251457932,0.01222576488
7.298,-0.02384949822,0.01502440943
7.312,-0.02224201231,0.01768285748
7.326,-0.02033876562,0.02016656158
7.34,-0.01815901612,0.02244269709
7.354,-0.01572565521,0.02448058533
7.368,-0.01306496656,0.02625209481
7.382,-0.01020634076,0.02773201507
7.396,-0.007181948885,0.02889839846
7.41,-0.004026378622,0.02973286531
7.424,-0.0007762370214,0.03022086831
7.438,0.002530275524,0.03035191263
7.452,0.005853815119,0.03011972852
7.466,0.00915436272,0.02952239391
7.48,0.01239170545,0.02856240494
7.494,0.01552592506,0.02724669322
7.508,0.01851788767,0.02558658902
7.522,0.02132972875,0.02359773029
7.536,0.02392532736,0.02129991822
7.55,0.0262707638,0.01871692068
7.564,0.02833475491,0.01587622516
7.578,0.03008906141,0.01280874423
7.592,0.03150886213,0.00954847625
7.606,0.03257309032,0.006132125342
7.62,0.03326472739,0.002598684831
7.634,0.0335710504,-0.001011011139
7.648,0.03348382956,-0.004654762579
7.662,0.03299947317,-0.008289499677
7.676,0.03211911761,-0.01187179401
7.69,0.03084866085,-0.01535837887
7.704,0.02919873856,-0.01870667242
7.718,0.02718464272,-0.02187529736
7.732,0.02482618305,-0.02482459079
7.746,0.02214749261,-0.02751709788
7.76,0.0191767794,-0.0299180434
7.774,0.01594602653,-0.031995775
7.788,0.01249064419,-0.03372217276
7.802,0.008849077158,-0.03507301977
7.816,0.005062372392,-0.03602832879
7.83,0.001173711475,-0.03657262089
7.844,-0.002772086626,-0.03669515212
7.858,-0.006729086742,-0.03639008519
7.872,-0.01065077649,-0.03565660355
7.886,-0.01449061674,-0.0344989661
7.9,-0.01820259688,-0.03292650142
7.914,-0.0217417884,-0.03095354107
7.928,-0.02506488995,-0.02859929234
7.942,-0.02813075725,-0.02588765152
7.956,-0.03090091146,-0.02284695949
7.97,-0.03334001959,-0.01950970222
7.984,-0.03541634107,-0.0159121592
7.998,-0.0371021348,-0.0120940039
8.012,-0.03837402149,-0.008097860509
8.026,-0.03921329672,-0.003968822122
8.04,-0.03960619051,0.0002460642188
8.054,-0.03954406992,0.004498339595
8.068,-0.03902358194,0.008738696122
8.082,-0.03804673446,0.01291755407
8.096,-0.03662091406,0.01698564637
8.11,-0.03475883978,0.02089460362
8.124,-0.03247845327,0.02459753241
8.138,-0.02980274599,0.02804958031
8.152,-0.0267595253,0.03120848034
8.166,-0.02338112171,0.03403506853
8.18,-0.01970404057,0.03649376816
8.194,-0.01576856183,0.03855303461
8.208,-0.01161829251,0.04018575546
8.222,-0.007299676831,0.04136960054
8.236,-0.002861469615,0.04208731778
8.25,0.001645821015,0.04232697075
8.264,0.006170515125,0.04208211486
8.278,0.01066035993,0.04135190983
8.292,0.01506313918,0.04014116653
8.306,0.01932728579,0.03846032755
8.32,0.02340249047,0.03632538112
8.334,0.02724029914,0.0337577092
8.348,0.0307946919,0.03078387112
8.362,0.03402263676,0.02743532503
8.376,0.03688461128,0.02374809009
8.39,0.03934508585,0.01976235317
8.404,0.04137296278,0.01552202434
8.418,0.04294196565,0.01107424624
8.432,0.0440309742,0.006468862792
8.446,0.04462430047,0.00175785348
8.46,0.0447119027,-0.003005260486
8.474,0.04428953415,-0.007766031084
8.488,0.04335882481,-0.01246971242
8.502,0.04192729471,-0.01706189634
8.516,0.04000829836,-0.02148914723
8.53,0.03762090073,-0.02569962858
8.544,0.03478968581,-0.02964371389
8.558,0.03154449986,-0.03327457469
8.572,0.02792013193,-0.03654873867
8.586,0.02395593531,-0.03942661119
8.6,0.01969539385,-0.04187295406
8.614,0.01518563835,-0.04385731559
8.628,0.01047691814,-0.04535440692
8.642,0.005622034116,-0.04634441976
8.656,0.0006757395468,-0.04681328182
8.67,-0.004305884372,-0.04675284654
8.684,-0.009266071053,-0.0461610148
8.698,-0.01414802171,-0.04504178675
8.712,-0.01889556159,-0.04340524313
8.726,-0.02345379166,-0.04126745578
8.74,-0.02776972808,-0.03865032842
8.754,-0.03179292198,-0.03558136898
8.768,-0.03547605228,-0.03209339627
8.782,-0.03877548454,-0.02822418379
8.796,-0.04165178919,-0.02401604495
8.81,-0.0440702131,-0.01951536405
8.824,-0.04600109868,-0.01477207859
8.838,-0.04742024558,-0.009839118433
8.852,-0.04830921066,-0.004771808451
8.866,-0.04865554243,0.0003727586292
8.88,-0.04845294706,0.005536371993
8.894,-0.04770138395,0.01066036765
8.908,-0.04640708938,0.01568630081
8.922,-0.04458252786,0.020556618
8.936,-0.04224627146,0.02521532112
8.95,-0.03942280843,0.02960861567
8.964,-0.03614228287,0.03368553575
8.978,-0.03244016866,0.03739853836
8.992,-0.02835688078,0.04070406024
9.006,-0.02393732877,0.04356303052
9.02,-0.01923041694,0.04594133331
9.034,-0.01428849733,0.04781021466
9.048,-0.009166781262,0.04914662906
9.062,-0.003922716425,0.04993352138
9.076,0.001384663569,0.05016004079
9.09,0.00669540966,0.049821684
9.104,0.0119493402,0.04892036609
9.118,0.01708672838,0.04746441781
9.132,0.02204898628,0.04546850931
9.146,0.0267793377,0.04295350092
9.16,0.031223472,0.03994622264
9.174,0.03533017142,0.03647918451
9.188,0.0390519045,0.03259022124
9.202,0.04234537884,0.0283220749
9.216,0.04517204668,0.02372192038
9.23,0.04749855745,0.0188408389
9.244,0.04929715185,0.01373324551
9.258,0.05054599296,0.008456277117
9.272,0.05122943039,0.003069147821
9.286,0.05133819429,-0.002367520954
9.3,0.05086951676,-0.007792388014
9.314,0.04982717933,-0.01314408975
9.328,0.04822148559,-0.01836193933
9.342,0.04606915927,-0.02338661974
9.356,0.04339316869,-0.02816086266
9.37,0.04022247952,-0.03263010548
9.384,0.03659173848,-0.03674311881
9.398,0.03254089151,-0.0404525972
9.412,0.02811474058,-0.04371570638
9.426,0.02336244417,-0.04649458056
9.44,0.01833696694,-0.04875676401
9.454,0.01309448493,-0.0504755918
9.468,0.007693752769,-0.05163050518
9.482,0.002195440352,-0.05220729796
9.496,-0.003338553758,-0.05219829082
9.51,-0.008845804206,-0.05160243148
9.524,-0.0142640681,-0.05042531948
9.538,-0.0195319935,-0.04867915508
9.552,-0.02458981911,-0.04638261276
9.566,-0.029380057,-0.04356064066
9.58,-0.03384815078,-0.04024418802
9.594,-0.03794310139,-0.03646986371
9.608,-0.04161805342,-0.03227952958
9.622,-0.04483083526,-0.02771983319
9.636,-0.04754444663,-0.02284168509
9.65,-0.04972748804,-0.01769968665
9.664,-0.05135452697,-0.01235151475
9.678,-0.05240639663,-0.006857270417
9.692,-0.05287042366,-0.001278798728
9.706,-0.05274058217,0.004321012258
9.72,-0.05201757206,0.009878945592
9.734,-0.05070882075,0.01533217437
9.748,-0.04882840813,0.0206189773
9.762,-0.04639691544,0.02567944272
9.776,-0.04344119968,0.03045615303
9.79,-0.03999409612,0.03489484151
9.804,-0.03609405198,0.03894501423
9.818,-0.03178469566,0.04256052964
9.832,-0.02711434611,0.04570012925
9.846,-0.02213546799,0.04832791323
9.86,-0.01690407872,0.05041375539
9.874,-0.01147911426,0.05193365274
9.888,-0.005921760601,0.05287000543
9.902,-0.0002947588917,0.0532118239
9.916,0.005338308181,0.05295486063
9.93,0.01091374038,0.05210166495
9.944,0.01636844607,0.0506615602
9.958,0.02164066223,0.04865054331
9.972,0.02667065999,0.04609110794
9.986,0.03140142761,0.04301199305
10,0.03577932305,0.03944785972
