"Freq [GHz]","re(S(Tx_p1,Tx_p1)) []","im(S(Tx_p1,Tx_p1)) []"
3,-0.02010196701,-0.06324238901
3.014,-0.02684582328,-0.0605358545
3.028,-0.03323916431,-0.05711506085
3.042,-0.0392069073,-0.05302416129
3.056,-0.04467941605,-0.04831513521
3.07,-0.04959330873,-0.04304712727
3.084,-0.05389218664,-0.03728570414
3.098,-0.05752727551,-0.03110203814
3.112,-0.06045797225,-0.02457202798
3.126,-0.06265229105,-0.01777536753
3.14,-0.06408720402,-0.01079457394
3.154,-0.06474887304,-0.003713987099
3.168,-0.06463277046,0.003381247532
3.182,-0.06374368794,0.01040620043
3.196,-0.06209563395,0.01727717167
3.21,-0.05971162171,0.02391268455
3.224,-0.05662335077,0.03023444768
3.238,-0.05287078661,0.03616827395
3.252,-0.04850164385,0.04164494586
3.266,-0.04357077971,0.04660101706
3.28,-0.03813950559,0.05097954111
3.294,-0.03227482522,0.05473071889
3.308,-0.02604860907,0.05781245775
3.322,-0.01953671506,0.06019083594
3.336,-0.0128180663,0.06184046757
3.35,-0.005973697195,0.06274476418
3.364,0.0009142207071,0.06289609036
3.378,0.007763361417,0.06229581236
3.392,0.01449222404,0.06095423949
3.406,0.02102109757,0.05889045969
3.42,0.0272729996,0.05613207184
3.434,0.03317457792,0.05271481847
3.448,0.03865696471,0.04868212381
3.462,0.04365657323,0.04408454313
3.476,0.04811582813,0.03897913043
3.49,0.05198382103,0.03342873223
3.504,0.05521688403,0.02750121639
3.518,0.05777907479,0.02126864527
3.532,0.05964256806,0.01480640327
3.546,0.06078794938,0.008192289363
3.56,0.06120440816,0.001505585389
3.574,0.06088982826,-0.005173888768
3.588,0.05985077557,-0.01176672193
3.602,0.0581023834,-0.01819484918
3.616,0.05566813729,-0.0243824693
3.63,0.05257956244,-0.03025693133
3.644,0.04887581796,-0.03574958014
3.658,0.04460320293,-0.04079655114
3.672,0.03981458067,-0.04533950523
3.686,0.03456872835,-0.04932629558
3.7,0.02892961972,-0.05271155872
3.714,0.0229656499,-0.0554572235
3.728,0.01674881137,-0.05753293225
3.742,0.01035383106,-0.05891636962
3.756,0.003857278854,-0.05959349575
3.77,-0.002663342077,-0.05955868133
3.784,-0.009130512347,-0.05881474348
3.798,-0.01546761014,-0.05737288251
3.812,-0.02159981108,-0.05525252049
3.826,-0.02745496368,-0.0524810441
3.84,-0.03296443045,-0.04909345508
3.854,-0.03806388478,-0.04513193258
3.868,-0.04269405465,-0.04064531303
3.882,-0.04680140463,-0.03568849373
3.896,-0.05033874852,-0.03032176735
3.91,-0.05326578565,-0.02461009543
3.924,-0.05554955494,-0.01862232948
3.938,-0.05716480165,-0.01243038877
3.952,-0.05809425286,-0.00610840471
3.966,-0.05832879876,0.0002681582771
3.98,-0.05786757785,0.006623395107
3.994,-0.05671796536,0.01288185515
4.008,-0.05489546538,0.01896942975
4.022,-0.05242350792,0.02481422184
4.036,-0.04933315384,0.03034738762
4.05,-0.04566271099,0.03550394055
4.064,-0.04145726638,0.04022350838
4.078,-0.03676813987,0.04445103465
4.092,-0.03165226606,0.0481374164
4.106,-0.02617151144,0.051240071
4.12,-0.02039193508,0.0537234255
4.134,-0.01438300137,0.05555932294
4.148,-0.008216754189,0.05672734113
4.162,-0.001966962008,0.05721502009
4.176,0.00429175596,0.0570179959
4.19,0.01048481244,0.05614003918
4.204,0.01653853326,0.05459299813
4.218,0.02238102686,0.05239664669
4.232,0.02794303175,0.0495784397
4.246,0.0331587324,0.04617317809
4.26,0.03796653372,0.04222258782
4.274,0.04230978533,0.03777481781
4.288,0.04613744705,0.03288386242
4.302,0.04940468786,0.02760891563
4.316,0.05207341139,0.02201366409
4.33,0.05411270164,0.01616552761
4.344,0.05549918385,0.01013485586
4.358,0.05621729618,0.003994090693
4.372,0.05625946896,-0.00218309608
4.386,0.05562620943,-0.008322679309
4.4,0.0543260909,-0.01435116127
4.414,0.05237564629,-0.0201964462
4.428,0.04979916747,-0.02578869823
4.442,0.0466284124,-0.03106117275
4.456,0.04290222367,-0.03595101113
4.47,0.03866606272,-0.04039998964
4.484,0.03397146525,-0.04435521344
4.498,0.02887542409,-0.04776974748
4.512,0.02343970676,-0.05060317677
4.526,0.01773011586,-0.0528220892
4.54,0.01181570072,-0.05440047509
4.554,0.005767929937,-0.05532003871
4.568,-0.0003401657027,-0.05557041776
4.582,-0.006434869591,-0.05514930819
4.596,-0.01244266459,-0.05406249259
4.61,-0.01829111671,-0.05232377176
4.624,-0.02390974657,-0.04995480007
4.638,-0.02923087824,-0.04698482632
4.652,-0.03419045524,-0.04345034315
4.666,-0.03872881387,-0.03939464897
4.68,-0.04279140441,-0.03486732746
4.694,-0.04632945155,-0.02992365077
4.708,-0.04930054594,-0.02462391348
4.722,-0.05166915952,-0.01903270507
4.736,-0.05340707834,-0.01321812968
4.75,-0.05449374738,-0.007250982417
4.764,-0.05491652316,-0.001203891967
4.778,-0.0546708307,0.004849559981
4.792,-0.05376022279,0.01083573209
4.806,-0.05219634069,0.01668181859
4.82,-0.04999877639,0.02231673548
4.834,-0.04719483802,0.02767198701
4.848,-0.04381922084,0.03268250179
4.862,-0.03991358785,0.03728742821
4.876,-0.03552606474,0.04143087953
4.89,-0.03071065514,0.04506261926
4.904,-0.02552658332,0.04813867843
4.918,-0.02003757198,0.05062189692
4.932,-0.01431106399,0.05248238217
4.946,-0.008417397476,0.05369787933
4.96,-0.002428944134,0.05425404815
4.974,0.003580778466,0.05414464295
4.988,0.009538009951,0.05337159335
5.002,0.01536965435,0.05194498434
5.016,0.02100418034,0.04988293585
5.03,0.0263725033,0.04721138303
5.044,0.0314088383,0.04396375979
5.058,0.03605151339,0.04018058912
5.072,0.04024373298,0.03590898535
5.086,0.04393428175,0.03120207408
5.1,0.04707816021,0.02611833692
5.114,0.04963714389,0.02072088905
5.128,0.05158025903,0.01507669835
5.142,0.05288416858,0.009255755879
5.156,0.05353346369,0.00333020778
5.17,0.05352085667,-0.002626540532
5.184,0.05284727294,-0.008540736746
5.198,0.05152184063,-0.01433919923
5.212,0.04956177767,-0.01995022835
5.226,0.0469921777,-0.02530449996
5.24,0.04384569727,-0.03033593007
5.254,0.04016214808,-0.03498249944
5.268,0.0359879993,-0.03918702795
5.282,0.03137579598,-0.04289788875
5.296,0.02638350089,-0.04606965318
5.31,0.02107376783,-0.04866365815
5.324,0.01551315568,-0.05064848872
5.338,0.009771292787,-0.05200036978
5.352,0.003920002514,-0.05270346155
5.366,-0.001967599301,-0.05275005521
5.38,-0.007818023401,-0.05214066598
5.394,-0.0135583311,-0.05088402245
5.408,-0.01911705144,-0.04899695202
5.422,-0.02442507991,-0.04650416399
5.436,-0.02941654724,-0.04343793291
5.45,-0.03402964711,-0.03983768607
5.464,-0.03820741236,-0.03574950048
5.478,-0.04189842967,-0.03122551548
5.492,-0.0450574835,-0.0263232687
5.506,-0.04764612115,-0.02110496356
5.52,-0.04963313164,-0.01563667785
5.534,-0.05099493224,-0.009987523422
5.548,-0.05171585766,-0.004228767663
5.562,-0.05178834829,0.001567071798
5.576,-0.05121303498,0.007327147726
5.59,-0.04999871932,0.01297920735
5.604,-0.04816224965,0.01845250799
5.618,-0.04572829455,0.02367871258
5.632,-0.04272901658,0.02859275337
5.646,-0.03920365069,0.03313365297
5.66,-0.03519799266,0.03724529201
5.674,-0.03076380433,0.04087711356
5.688,-0.02595814325,0.04398475541
5.702,-0.02084262556,0.04653060197
5.716,-0.01548263162,0.04848424889
5.73,-0.009946464777,0.04982287433
5.744,-0.004304474078,0.0505315124
5.758,0.001371847491,0.05060322516
5.772,0.007010777723,0.05003917126
5.786,0.0125412809,0.04884857043
5.8,0.01789391267,0.04704856448
5.814,0.02300170238,0.0446639767
5.828,0.02780100146,0.04172697318
5.842,0.032232287,0.0382766304
5.856,0.03624091007,0.03435841511
5.87,0.03977777929,0.03002358328
5.884,0.04279997091,0.02532850624
5.898,0.0452712577,0.02033393284
5.912,0.04716254986,0.01510419753
5.926,0.04845224262,0.00970638461
5.94,0.04912646625,0.004209459779
5.954,0.04917923538,-0.001316619682
5.968,0.04861249625,-0.006801804442
5.982,0.04743607133,-0.01217685064
5.996,0.04566750262,-0.01737420372
6.01,0.04333179586,-0.02232885715
6.024,0.04046106944,-0.02697917486
6.038,0.0370941128,-0.03126766697
6.052,0.03327586065,-0.03514170873
6.066,0.02905678994,-0.03855419365
6.08,0.02449224791,-0.04146411253
6.094,0.01964172019,-0.04383705124
6.108,0.01456804883,-0.04564560094
6.122,0.009336610571,-0.04686967605
6.136,0.00401446627,-0.04749673602
6.15,-0.001330507235,-0.04752190861
6.164,-0.006630491513,-0.04694801349
6.178,-0.01181859572,-0.04578548642
6.192,-0.01682970927,-0.04405220535
6.206,-0.02160132699,-0.04177322144
6.22,-0.0260743362,-0.03898039887
6.234,-0.03019375553,-0.0357119686
6.248,-0.03390941639,-0.03201200254
6.262,-0.03717657823,-0.02792981524
6.276,-0.03995647027,-0.0235193015
6.29,-0.04221675287,-0.01883821873
6.304,-0.0439318931,-0.01394742386
6.318,-0.04508345028,-0.008910074985
6.332,-0.04566026811,-0.003790808314
6.346,-0.04565857173,0.001345098674
6.36,-0.0450819689,0.006432566907
6.374,-0.0439413561,0.01140754729
6.388,-0.04225473121,0.01620783346
6.402,-0.04004691611,0.02077384519
6.416,-0.03734919321,0.02504937266
6.43,-0.03419886138,0.02898227202
6.444,-0.03063871763,0.03252510373
6.458,-0.02671647173,0.03563570571
6.472,-0.02248410199,0.03827769445
6.486,-0.01799716092,0.04042088807
6.5,-0.01331404011,0.04204164658
6.514,-0.008495204398,0.04312312535
6.528,-0.003602405117,0.0436554395
6.542,0.001302116837,0.04363573763
6.556,0.006156428016,0.04306818465
6.57,0.01089968908,0.04196385489
6.584,0.01547292104,0.04034053742
6.598,0.01981974141,0.03822245699
6.612,0.02388706102,0.03563991485
6.626,0.02762573277,0.03262885479
6.64,0.03099114456,0.02923036075
6.654,0.03394374911,0.02549009297
6.668,0.03644952449,0.02145767052
6.682,0.03848036008,0.01718600876
6.696,0.04001436371,0.01273062049
6.71,0.04103608672,0.008148890254
6.724,0.04153666489,0.003499331292
6.738,0.04151387423,-0.001159165135
6.752,0.04097210175,-0.005768078367
6.766,0.03992223238,-0.01026999534
6.78,0.03838145437,-0.01460932662
6.794,0.03637298645,-0.01873299262
6.808,0.03392573104,-0.02259107135
6.822,0.03107385866,-0.02613740006
6.836,0.02785632959,-0.0293301234
6.85,0.02431635949,-0.03213218174
6.864,0.02050083638,-0.03451173404
6.878,0.01645969696,-0.03644251061
6.892,0.01224527047,-0.03790409199
6.906,0.007911599015,-0.03888211119
6.92,0.003513742952,-0.03936837766
6.934,-0.0008929194627,-0.03936092208
6.948,-0.005253389395,-0.03886396242
6.962,-0.00951373287,-0.03788779256
6.976,-0.01362174581,-0.03644859562
6.99,-0.01752759055,-0.03456818533
7.004,-0.02118439602,-0.03227367939
7.018,-0.02454881461,-0.02959710981
7.032,-0.02758152909,-0.02657497573
7.046,-0.03024770376,-0.02324774512
7.06,-0.03251737499,-0.01965931201
7.074,-0.03436577668,-0.0158564168
7.088,-0.0357735976,-0.0118880371
7.102,-0.03672716795,-0.007804757283
7.116,-0.03721857381,-0.003658124586
7.13,-0.03724569878,0.0004999997378
7.144,-0.03681219319,0.004618086323
7.158,-0.0359273721,0.008645572539
7.172,-0.03460604422,0.01253347855
7.186,-0.03286827468,0.01623499717
7.2,-0.03073908532,0.01970605054
7.214,-0.02824809702,0.02290580703
7.228,-0.02542911917,0.02579715268
7.242,-0.02231969186,0.02834711156
7.256,-0.0189605872,0.03052721088
7.27,-0.01539527616,0.03231378665
7.284,-0.01166936805,0.03368822707
7.298,-0.007830029816,0.03463715134
7.312,-0.003925392396,0.03515252244
7.326,-3.951718758E-06,0.03523169334
7.34,0.00388602842,0.03487738678
7.354,0.007697104261,0.03409760974
7.368,0.01138322375,0.03290550435
7.382,0.01490027518,0.03131913789
7.396,0.0182066065,0.02936123495
7.41,0.02126350917,0.02705885597
7.424,0.02403566133,0.02444302632
7.438,0.02649152521,0.02154832134
7.452,0.02860369464,0.01841241254
7.466,0.03034918899,0.01507558112
7.48,0.03170969056,0.01158020482
7.494,0.03267172335,0.007970224787
7.508,0.03322677162,0.004290598915
7.522,0.03337133742,0.0005867484014
7.536,0.03310693733,-0.003095995729
7.55,0.0324400388,-0.006712939583
7.564,0.03138193772,-0.01022056035
7.578,0.02994857933,-0.01357702105
7.592,0.02816032493,-0.01674266012
7.606,0.02604166816,-0.0196804503
7.62,0.02362090434,-0.02235642177
7.634,0.02092975749,-0.02474004471
7.648,0.01800296987,-0.02680456735
7.662,0.01487785921,-0.02852730588
7.676,0.01159384913,-0.02988988322
7.69,0.008191978708,-0.03087841443
7.704,0.004714397047,-0.03148363704
7.718,0.00120384895,-0.03170098522
7.732,-0.002296842111,-0.03153060759
7.746,-0.005745287687,-0.03097732881
7.76,-0.009100038666,-0.03005055597
7.774,-0.0123210744,-0.02876413142
7.788,-0.01537027105,-0.02713613408
7.802,-0.01821184375,-0.02518863217
7.816,-0.02081275778,-0.02294739043
7.83,-0.02314310406,-0.02044153591
7.844,-0.02517643488,-0.01770318618
7.858,-0.0268900563,-0.01476704504
7.872,-0.02826527403,-0.01166997024
7.886,-0.02928759034,-0.008450518836
7.9,-0.02994685003,-0.005148475429
7.914,-0.03023733402,-0.001804368944
7.928,-0.03015779994,0.001541016257
7.942,-0.02971146949,0.004847129273
7.956,-0.02890596307,0.008074135818
7.97,-0.02775318279,0.01118339005
7.984,-0.0262691455,0.01413788962
7.998,-0.02447376804,0.01690270872
8.012,-0.02239060752,0.01944540424
8.026,-0.02004655987,0.02173639032
8.04,-0.01747152042,0.02374927718
8.054,-0.01469801062,0.02546117041
8.068,-0.01176077541,0.02685292738
8.082,-0.008696356148,0.02790936793
8.096,-0.005542644144,0.02861943717
8.11,-0.002338420119,0.02897631849
8.124,0.0008771149474,0.02897749591
8.138,0.00406481204,0.02862476488
8.152,0.007186043855,0.02792419188
8.166,0.01020316654,0.02688602333
8.18,0.01307996803,0.025524545
8.194,0.01578209773,0.02385789382
8.208,0.01827747249,0.02190782432
8.222,0.02053665421,0.01969943274
8.236,0.02253319465,0.01726084198
8.25,0.02424394334,0.01462285134
8.264,0.0256493152,0.01181855527
8.278,0.02673351464,0.008882935625
8.292,0.0274847135,0.005852432442
8.306,0.02789518106,0.002764498258
8.32,0.02796136427,-0.0003428585868
8.334,0.02768391763,-0.003431536248
8.348,0.02706768225,-0.006463801747
8.362,0.02612161447,-0.009402747852
8.376,0.02485866493,-0.01221273902
8.39,0.02329560961,-0.01485984104
8.404,0.02145283485,-0.01731222927
8.418,0.01935407912,-0.01954057046
8.432,0.01702613449,-0.02151837374
8.446,0.01449851159,-0.02322230637
8.46,0.01180307208,-0.02463247065
8.474,0.008973633073,-0.02573263844
8.488,0.006045548364,-0.02651044062
8.502,0.00305527153,-0.0269575092
8.516,3.990626593E-05,-0.02706957021
8.53,-0.002963250593,-0.02684648648
8.544,-0.00591716777,-0.02629224961
8.558,-0.008785534347,-0.02541492132
8.572,-0.01153320511,-0.0242265249
8.586,-0.01412663096,-0.02274288815
8.6,-0.01653426915,-0.02098343958
8.614,-0.01872696822,-0.01897096063
8.628,-0.02067832295,-0.01673129671
8.642,-0.02236499501,-0.01429303083
8.656,-0.02376699517,-0.01168712377
8.67,-0.02486792374,-0.008946525234
8.684,-0.02565516627,-0.006105760827
8.698,-0.02612004192,-0.003200500019
8.712,-0.02625790289,-0.0002671104137
8.726,-0.02606818345,0.002657796102
8.74,-0.02555439817,0.005537819675
8.754,-0.02472408923,0.008337225576
8.768,-0.02358872357,0.0110213884
8.782,-0.02216354118,0.01355722185
8.796,-0.02046735631,0.01591358862
8.81,-0.01852231431,0.01806168545
8.824,-0.01635360705,0.01997539829
8.838,-0.01398915048,0.02163162328
8.852,-0.01145922853,0.02301054948
8.866,-0.008796107704,0.02409589974
8.88,-0.006033627418,0.02487512684
8.894,-0.003206771083,0.02533956229
8.908,-0.0003512235154,0.02548451608
8.922,0.002497079793,0.02530932599
8.936,0.005302405799,0.02481735607
8.95,0.008029673687,0.02401594422
8.964,0.01064489561,0.02291629955
8.978,0.01311560275,0.02153335107
8.992,0.0154112514,0.01988554942
9.006,0.01750360379,0.01799462443
9.02,0.01936707894,0.01588530151
9.034,0.02097906903,0.01358498067
9.048,0.0223202174,0.01112338217
9.062,0.02337465451,0.008532163482
9.076,0.02413018913,0.005844512462
9.09,0.02457845214,0.003094721962
9.104,0.02471499145,0.0003177513895
9.118,0.0245393166,-0.002451219179
9.132,0.02405489289,-0.005177236578
9.146,0.02326908486,-0.00782601809
9.16,0.02219305034,-0.01036438526
9.174,0.02084158612,-0.01276068244
9.188,0.01923292768,-0.01498517467
9.202,0.01738850542,-0.01701041991
9.216,0.01533266077,-0.01881161084
9.23,0.01309232585,-0.02036688184
9.244,0.01069667094,-0.0216575775
9.258,0.008176724382,-0.02266847895
9.272,0.005564969882,-0.02338798562
9.286,0.002894926442,-0.02380824982
9.3,0.000200716463,-0.02392526284
9.314,-0.002483372433,-0.02373889142
9.328,-0.005123326154,-0.02325286436
9.342,-0.0076858378,-0.02247470952
9.356,-0.01013873064,-0.02141564234
9.37,-0.01245136498,-0.0200904073
9.384,-0.01459502369,-0.01851707465
9.398,-0.01654327156,-0.01671679515
9.412,-0.01827228377,-0.01471351625
9.426,-0.01976113952,-0.01253366329
9.44,-0.020992077,-0.0102057903
9.454,-0.02195070671,-0.007760204786
9.468,-0.02262618033,-0.005228571608
9.482,-0.02301131335,-0.002643501094
9.496,-0.02310265988,-3.812686703E-05
9.51,-0.02290053904,0.002554321168
9.524,-0.0224090127,0.005100943067
9.538,-0.02163581508,0.007569588835
9.552,-0.02059223546,0.009929266711
9.566,-0.01929295554,0.01215053454
9.58,-0.01775584402,0.0142058692
9.594,-0.0160017111,0.01607000947
9.608,-0.01405402632,0.01772026793
9.622,-0.01193860368,0.01913680812
9.636,-0.009683258156,0.02030288341
9.65,-0.007317438365,0.02120503485
9.664,-0.004871840131,0.02183324552
9.678,-0.002378006189,0.02218104966
9.692,0.0001320827773,0.02224559554
9.706,0.002626420388,0.02202766125
9.72,0.005073384742,0.02153162382
9.734,0.007442141218,0.02076538204
9.748,0.00970303273,0.0197402345
9.762,0.01182795245,0.01847071455
9.776,0.01379069428,0.01697438465
9.79,0.0155672767,0.01527159304
9.804,0.01713623589,0.01338519609
9.818,0.01847888471,0.0113402502
9.832,0.01957953414,0.009163677358
9.846,0.0204256749,0.006883908938
9.86,0.02100811683,0.004530512485
9.874,0.02132108483,0.002133806369
9.888,0.02136227024,-0.0002755325624
9.902,0.02113283732,-0.002666863239
9.916,0.02063738517,-0.005009971434
9.93,0.01988386582,-0.007275452595
9.944,0.01888345996,-0.009435081586
9.958,0.01765041207,-0.01146216465
9.972,0.01620182759,-0.01333186921
9.986,0.01455743487,-0.0150215274
10,0.01273931533,-0.01651090965
