"Freq [GHz]","re(S(Antenna1_1_1,Antenna1_1_1)) []","im(S(Antenna1_1_1,Antenna1_1_1)) []"
3,-0.194829033666988,-0.185156846108434
3.0175,-0.205980583882741,-0.170091495528255
3.035,-0.215770182810963,-0.15415191477383
3.0525,-0.224129934643331,-0.137470393371896
3.07,-0.231005193668112,-0.120182299780446
3.0875,-0.236354055253439,-0.102424869165797
3.105,-0.240146794415026,-0.0843362158357804
3.1225,-0.242365308697745,-0.0660545503670005
3.14,-0.243002612272347,-0.0477175691232188
3.1575,-0.242062416398814,-0.029461976154132
3.175,-0.23955881875823,-0.0114230919066469
3.1925,-0.235516111094123,0.00626549869042075
3.21,-0.229968702132221,0.0234723052004012
3.2275,-0.222918341598511,0.0401191544720196
3.245,-0.21440136067989,0.0560630543077954
3.2625,-0.204523569275007,0.0711207191918415
3.28,-0.193366520935805,0.0851696675626899
3.2975,-0.181023435274634,0.0980938922151963
3.315,-0.167598955527858,0.109785132947929
3.3325,-0.153208723962745,0.120144217191342
3.35,-0.137978749490919,0.129082433388718
3.3675,-0.122044549735695,0.13652289599116
3.385,-0.105550058916842,0.14240185674321
3.4025,-0.0886463027461355,0.146669914851177
3.42,-0.0714898512952683,0.149293078522802
3.4375,-0.0542410712471426,0.150253632282606
3.455,-0.0367428413212905,0.14939822608743
3.4725,-0.019518954174226,0.146851523593217
3.49,-0.00273019621178298,0.142656426075356
3.5075,0.013468909644687,0.136871792024778
3.525,0.028931840856434,0.129571510745914
3.5425,0.0435216664664025,0.12084335713693
3.56,0.0571124599998998,0.110787652949111
3.5775,0.0695905061985331,0.0995157650212893
3.595,0.0808552794800108,0.0871484759363399
3.6125,0.0908201785770211,0.0738142658624511
3.63,0.0994130090812814,0.059647546618196
3.6475,0.106576213188751,0.044786889837984
3.665,0.112266853740042,0.0293732902653373
3.6825,0.116456366830361,0.0135485030576646
3.7,0.119130104672226,-0.00254650980543375
3.7175,0.120286695758461,-0.0187729939667643
3.735,0.119937254908259,-0.0349956542082204
3.7525,0.118104478704811,-0.0510837263234811
3.77,0.114821664105443,-0.0669118603561631
3.7875,0.110131687986283,-0.082360814042821
3.805,0.104085984077271,-0.0973179630391161
3.8225,0.0967435505149024,-0.111677641615296
3.84,0.088170016770782,-0.125341333779861
3.8575,0.0784367930225075,-0.138217739822101
3.875,0.0676203182922044,-0.150222746818828
3.8925,0.0550243505137907,-0.160915230637682
3.91,0.0415703448040696,-0.170440203925081
3.9275,0.0273674342994918,-0.178739157315842
3.945,0.012528223170734,-0.185763200989088
3.9625,-0.00283193695459327,-0.191473258055884
3.98,-0.0185956917373598,-0.195840231243568
3.9975,-0.0346444564932965,-0.198845136575648
4.015,-0.0508592206996635,-0.200479195337416
4.0325,-0.0671213865108587,-0.200743873780897
4.05,-0.083313640029451,-0.199650858323866
4.0675,-0.0993208506213367,-0.19722195411641
4.085,-0.115030990026823,-0.193488894893446
4.1025,-0.130336059599248,-0.188493053592081
4.12,-0.145133010918551,-0.182285045456212
4.1375,-0.159324642421417,-0.174924218303469
4.155,-0.172820453051467,-0.166478028142933
4.1725,-0.185537432601455,-0.157021302529037
4.19,-0.19740076868415,-0.146635398192268
4.2075,-0.208344450909105,-0.135407263837721
4.225,-0.218311754847807,-0.123428423109208
4.2425,-0.227255591103942,-0.110793896379528
4.26,-0.235138708170131,-0.0976010831486062
4.2775,-0.241933742264521,-0.083948629121657
4.295,-0.247623111793342,-0.0699353034938181
4.3125,-0.252198758917425,-0.0556589123342706
4.33,-0.255116916416773,-0.0419137081890981
4.3475,-0.257078105405822,-0.028189421713946
4.365,-0.258110745594288,-0.014552384458835
4.3825,-0.258247081887959,-0.00106358571199865
4.4,-0.257522355357079,0.0122213762411736
4.4175,-0.25597401951158,0.0252522160194125
4.435,-0.253641022140171,0.0379837698288194
4.4525,-0.250563169685378,0.0503757082193418
4.47,-0.246780587363516,0.0623921723455164
4.4875,-0.242333283893963,0.0740013557285523
4.505,-0.237260825281743,0.0851750537542628
4.5225,-0.231602117474628,0.0958882035045558
4.54,-0.225395293295769,0.106118435768698
4.5575,-0.218677694937633,0.11584565882738
4.575,-0.211485939653405,0.125051691631254
4.5925,-0.203856053249589,0.133719960347075
4.61,-0.195823653703117,0.141835268785703
4.6275,-0.187424165840619,0.149383649061304
4.645,-0.17869304732074,0.156352294605552
4.6625,-0.169666006540423,0.162729573427386
4.68,-0.160379194351143,0.168505115485979
4.6975,-0.150869353349459,0.173669964348729
4.715,-0.141173911135961,0.178216780184119
4.7325,-0.131331007486239,0.182140078598698
4.75,-0.121379448764958,0.185436488191816
4.7675,-0.111754462067794,0.188991213020503
4.785,-0.101938528230125,0.191974633608199
4.8025,-0.0919662546600615,0.194371895325253
4.82,-0.0818736193429982,0.196170637335066
4.8375,-0.0716976778333232,0.197361107751398
4.855,-0.0614762690972341,0.19793622486437
4.8725,-0.0512477313257593,0.197891588060548
4.89,-0.0410506375875065,0.197225443775505
4.9075,-0.0309235594234634,0.195938614164571
4.925,-0.020904864449922,0.194034397377985
4.9425,-0.0110325517015019,0.191518449279106
4.96,-0.00134412604399729,0.188398656887292
4.9775,0.00812348944476693,0.184685013703895
4.995,0.0173340065687032,0.180389506289809
5.0125,0.0262517960643187,0.175526020450314
5.03,0.0348418899388434,0.170110273625589
5.0475,0.0430699706407186,0.164159778251315
5.065,0.0509023567815305,0.157693838597156
5.0825,0.058305995089403,0.150733581248558
5.1,0.0652484685920772,0.143302017048376
5.1175,0.0716980299247098,0.135424129984817
5.135,0.0776236677837738,0.127126986429657
5.1525,0.0829952127871384,0.1184398563478
5.17,0.0877834870320413,0.109394336642122
5.1875,0.0919604993316909,0.100024465894915
5.205,0.0954996857809959,0.0903668192821935
5.2225,0.0983761926196691,0.080460572572623
5.24,0.100567196022874,0.0703475247413401
5.2575,0.102052251068922,0.0600720699052638
5.275,0.102813660148498,0.049681111009743
5.2925,0.102836849415499,0.0392239095718386
5.31,0.102110740675386,0.0287518685037625
5.3275,0.10062810544809,0.0183182473886924
5.345,0.0983858878145006,0.00797781248929569
5.3625,0.0953854831344052,-0.00221357350316312
5.38,0.091632960754957,-0.0121994144171549
5.3975,0.0871392204161717,-0.0219230859886789
5.415,0.0819200741180398,-0.0313283719465188
5.4325,0.0759962476726521,-0.0403600168214314
5.45,0.0693932989540975,-0.04896428088856
5.4675,0.0621414528324609,-0.0570894819361681
5.485,0.0542753557454059,-0.0646865087504329
5.5025,0.0458337560348081,-0.0717092919263718
5.52,0.0368591186301708,-0.0781152189624988
5.5375,0.0273971856326497,-0.0838654825132753
5.555,0.017496495966993,-0.0889253530545906
5.5725,0.00720787908536132,-0.0932643700121621
5.59,-0.0034160612925886,-0.0968564484873988
5.6075,-0.0143214572538458,-0.0996799019494835
5.625,-0.0254536646004906,-0.101717384545568
5.6425,-0.0372490447859649,-0.102713520177805
5.66,-0.0491216684292872,-0.102825150585015
5.6775,-0.0610105101094448,-0.10205127236157
5.695,-0.0728555142971668,-0.100394352132251
5.7125,-0.084597628714585,-0.0978600405703282
5.73,-0.0961787739263931,-0.0944569312461665
5.7475,-0.107541762578685,-0.0901963774346428
5.765,-0.11863018422328,-0.085092376601887
5.7825,-0.129388273505842,-0.0791615289437771
5.8,-0.139760780563445,-0.0724230720745537
5.8175,-0.149692862694371,-0.0648989902083269
5.835,-0.159130015731798,-0.0566141917494345
5.8525,-0.167989475801672,-0.0475220393300511
5.87,-0.176197166977607,-0.0376577100552958
5.8875,-0.183720775720759,-0.0271353858878577
5.905,-0.190507138861569,-0.015998462215869
5.9225,-0.196504765583272,-0.00429520107983717
5.94,-0.201664405857245,0.00792108496512305
5.9575,-0.205939692110136,0.0205919373854955
5.975,-0.209287837531464,0.0336537615741396
5.9925,-0.211670370582582,0.0470379553475322
6.01,-0.213053882931586,0.0606711652095361
6.0275,-0.213410766275434,0.0744756748943054
6.045,-0.212719912471305,0.0883699257489496
6.0625,-0.210967352062442,0.102269163529758
6.08,-0.207829274099603,0.116051645579265
6.0975,-0.203634324817982,0.129594109287446
6.115,-0.198404819821242,0.142809076062332
6.1325,-0.192171307079429,0.155611537425554
6.15,-0.184972206155903,0.167919900426084
6.1675,-0.17685331365046,0.179656864362508
6.185,-0.167867189983399,0.190750207123916
6.2025,-0.158072446080565,0.201133462692095
6.22,-0.147532951846544,0.210746475386564
6.2375,-0.136316990228971,0.219535821071478
6.255,-0.124496382033104,0.227455090259874
6.2725,-0.112145606806025,0.234465033112592
6.29,-0.0993409443783929,0.240533571044875
6.3075,-0.0861596599182221,0.245635684563616
6.325,-0.0726792527687821,0.249753190632867
6.3425,-0.0589767860304626,0.252874426865119
6.36,-0.0451283098460717,0.254993862311502
6.3775,-0.0312083870044293,0.256111656405943
6.395,-0.0172897247029073,0.25623318901711
6.4125,-0.00344291175754578,0.255368583994125
6.43,0.0102637443286387,0.253532248018341
6.4475,0.0237642900208625,0.250742444422371
6.465,0.0369951217753592,0.247020919098831
6.4825,0.0498949220308117,0.242392592038454
6.5,0.0624045542540205,0.23688532407637
6.5175,0.0739909213413447,0.230409936291987
6.535,0.0850611568858673,0.223199405326649
6.5525,0.0955694208324357,0.215289962704384
6.57,0.105471403429866,0.206720631873072
6.5875,0.114724527953381,0.197533408177559
6.605,0.123288229172174,0.187773409783774
6.6225,0.13112430021866,0.177488981584499
6.64,0.138197296977403,0.166731736207902
6.6575,0.144474986128499,0.155556518527547
6.675,0.14992882002561,0.144021283708938
6.6925,0.154534420061536,0.132186882045534
6.71,0.158272048897199,0.120116748137185
6.7275,0.161127051744976,0.107876495730128
6.745,0.16309024746202,0.0955334239980792
6.7625,0.16415825159912,0.0831559442960463
6.78,0.164333715685829,0.0708129406493411
6.7975,0.163625469829977,0.0585730794871236
6.815,0.162048559035664,0.046504087009057
6.8325,0.159624167434557,0.0346720139319351
6.85,0.156379428479156,0.0231405084367786
6.8675,0.152347123548825,0.0119701179221576
6.885,0.1475652749281,0.00121763957456181
6.9025,0.14207664347606,-0.00906446184287138
6.92,0.135928144091581,-0.0188285528667227
6.9375,0.129170195474758,-0.0280322336961899
6.955,0.122611212488998,-0.0364280620477639
6.9725,0.115588421719701,-0.0443450729958994
6.99,0.108136473039507,-0.0517628116200476
7.0075,0.100290015161633,-0.0586634924927592
7.025,0.0920834728765304,-0.0650317674463887
7.0425,0.083550885017602,-0.0708544757767474
7.06,0.0747258035935828,-0.0761203901126299
7.0775,0.0656412516231783,-0.0808199707072541
7.095,0.056329734596651,-0.0849451399717621
7.1125,0.04682329860077,-0.0884890875073569
7.13,0.0371536257148249,-0.0914461140818495
7.1475,0.0273521563938918,-0.0938115206752363
7.165,0.0174502272867337,-0.095581546438967
7.1825,0.00747921272041825,-0.0967533565808453
7.2,-0.00252934180874792,-0.0973250788867895
7.2175,-0.0125436050695925,-0.0972958850759615
7.235,-0.022531374222273,-0.096666110760576
7.2525,-0.0324600257484388,-0.0954374061304009
7.27,-0.0422965093466099,-0.0936129078987405
7.2875,-0.0520073886428831,-0.0911974217866238
7.305,-0.0615589302775851,-0.0881976046505022
7.3225,-0.0709172402882969,-0.0846221348822216
7.34,-0.0800484445174602,-0.0804818606965053
7.3575,-0.0889189073053352,-0.0757899164424839
7.375,-0.097495480986691,-0.070561798920719
7.3925,-0.106499058252451,-0.0648515712233693
7.41,-0.115140536540008,-0.0585033953290417
7.4275,-0.123372320972705,-0.0515423505607112
7.445,-0.131148991064914,-0.0439973714670384
7.4625,-0.138427640849805,-0.0359009709758135
7.48,-0.14516817103813,-0.0272889314406189
7.4975,-0.1513335301748,-0.0181999730545109
7.515,-0.156889903842931,-0.00867540918564561
7.5325,-0.161806852610176,0.00124120180847105
7.55,-0.166057401529192,0.0115043996828653
7.5675,-0.169618085249144,0.0220671521400996
7.585,-0.172468954421036,0.0328811648882344
7.6025,-0.174593550052815,0.0438971665900334
7.62,-0.175978853219823,0.0550651649389684
7.6375,-0.17661521795673,0.066334672171123
7.655,-0.176496295160215,0.0776548995088802
7.6725,-0.175618955018419,0.0889749222795354
7.69,-0.173983214796955,0.100243818587282
7.7075,-0.171592177841485,0.111410786058652
7.725,-0.168451988423303,0.122425242147708
7.7425,-0.164571805581458,0.133236914497157
7.76,-0.15996379765532,0.143795928144267
7.7775,-0.15464315730668,0.1540528967686
7.795,-0.148628135553233,0.163959024742165
7.8125,-0.141940091436927,0.173466226518717
7.83,-0.133984785079274,0.182565414156163
7.8475,-0.125408140256254,0.191053879880527
7.865,-0.116257362643588,0.198887174477635
7.8825,-0.106582944444549,0.206024262523444
7.9,-0.0964384626184017,0.212427791480855
7.9175,-0.0858803481491139,0.21806435767219
7.935,-0.0749676241423749,0.22290476447996
7.9525,-0.0637616118646439,0.226924267645646
7.97,-0.0523256046319179,0.230102802168866
7.9875,-0.0407245106904344,0.232425185382871
8.005,-0.0290244672280776,0.233881290522878
8.0225,-0.0172924287100957,0.234466186107015
8.04,-0.00559573368201311,0.234180236178758
8.0575,0.00599834494457647,0.233029157901649
8.075,0.0174230604565333,0.231024033482799
8.0925,0.0286126575913037,0.228181274453222
8.11,0.0395028359919013,0.22452253747415
8.1275,0.050031205306892,0.220074591920264
8.145,0.0601377254890081,0.21486914066385
8.1625,0.0697651261858586,0.208942596249314
8.18,0.0788592996301773,0.202335816135907
8.1975,0.0873696621032435,0.195093800978898
8.215,0.0952494799665537,0.187265361035557
8.2325,0.102456157041249,0.178902756003009
8.25,0.108951481247947,0.170061314191215
8.2675,0.114178590375908,0.160703222886846
8.285,0.118622773330555,0.151084671909593
8.3025,0.122273419031864,0.141267621995247
8.32,0.125124652306936,0.131313976850664
8.3375,0.127175229606965,0.121285236700823
8.355,0.128428411743097,0.111242174279524
8.3725,0.128891817888333,0.101244534262635
8.39,0.128577264975356,0.0913507563471664
8.4075,0.127500596244339,0.0816177214723704
8.425,0.125681502474329,0.0721005199881911
8.4425,0.123143338927665,0.0628522400493183
8.46,0.119912940290188,0.0539237741181063
8.4775,0.116020435457072,0.0453636410162534
8.495,0.111499063191367,0.037217821026973
8.5125,0.106384989024368,0.02952960130553
8.53,0.100717123109245,0.0223394292440632
8.5475,0.0945369381187162,0.0156847714770183
8.565,0.0878882857236427,0.00959997681683155
8.5825,0.0808172097607067,0.00411614170817648
8.6,0.0733717538996797,-0.000739022300163065
8.6175,0.0656017613995703,-0.00494131930767047
8.635,0.0575586645454047,-0.00847019730721703
8.6525,0.04929526145383,-0.0113088725594974
8.67,0.0408654782176958,-0.0134444482845293
8.6875,0.0323241146900384,-0.0148680249165085
8.705,0.0241941395919121,-0.0154623272232491
8.7225,0.0160761974323259,-0.0154278486339256
8.74,0.0080143694744789,-0.0147686864026887
8.7575,5.24998467664288E-05,-0.0134919592603342
8.775,-0.00776602599294943,-0.0116078454043659
8.7925,-0.0153985177101728,-0.0091295990964215
8.81,-0.0228032285269039,-0.00607354256406414
8.8275,-0.0299396116029631,-0.00245903047308773
8.845,-0.0367685803280904,0.00169161497784749
8.8625,-0.0432527676892935,0.00635319953931008
8.88,-0.0493567800401272,0.0114977832909522
8.8975,-0.0550474404327601,0.0170948373582738
8.915,-0.0602940167866096,0.0231114296042152
8.9325,-0.0650684305729356,0.0295124370657452
8.95,-0.0693454420624515,0.036260782216301
8.9675,-0.0731028087757691,0.0433176894399142
8.985,-0.0763214144574053,0.0506429577726109
9.0025,-0.0789853666304429,0.0581952451948775
9.02,-0.0810820615957191,0.0659323601342842
9.0375,-0.0826022165660825,0.073811555040918
9.055,-0.0835398694265325,0.0817898176703415
9.0725,-0.083892347381233,0.0898241553815418
9.09,-0.083660206473198,0.0978718685393877
9.1075,-0.0828471445505051,0.105890809204379
9.125,-0.0814598907886738,0.113839622196953
9.1425,-0.0798682142149128,0.121586392510399
9.16,-0.0777352959498468,0.129251690877405
9.1775,-0.0750669870791513,0.136798411642604
9.195,-0.0718715876441001,0.144189915461343
9.2125,-0.0681597996363015,0.151390173072758
9.23,-0.0639446753961763,0.158363903479427
9.2475,-0.0592415620058125,0.165076707367546
9.265,-0.0540680418362529,0.171495196526423
9.2825,-0.0484438693321836,0.177587119961149
9.3,-0.0423909036483129,0.183321487257192
9.3175,-0.0359330369219739,0.188668689544653
9.335,-0.0290961176255149,0.193600618242917
9.3525,-0.0219078685142347,0.198090781511061
9.37,-0.0143977987221678,0.202114418171999
9.3875,-0.00659710961807992,0.205648608648415
9.405,0.00146140580853726,0.208672382363401
9.4225,0.00974347009496805,0.211166820911162
9.44,0.0182134348539779,0.213115156322602
9.4575,0.0268344003951773,0.214502863737689
9.475,0.0355683409072102,0.215317747931461
9.4925,0.0443762345285444,0.215550023240339
9.51,0.053218197537718,0.215192386703433
9.5275,0.0620536218266487,0.214240084404574
9.545,0.0708413148903445,0.212690971333663
9.5625,0.0795396416141433,0.210545565293656
9.58,0.0882589500460333,0.207904977720794
9.5975,0.0968209736013844,0.204648851547374
9.615,0.105179982027774,0.20078418793296
9.6325,0.113290220478987,0.196321190048939
9.65,0.121106085072425,0.19127331670537
9.6675,0.128582304639785,0.185657336863089
9.685,0.135674131372873,0.179493385321926
9.7025,0.142337543456443,0.172805019257805
9.72,0.148529463008609,0.165619274503365
9.7375,0.154207992743639,0.157966719587298
9.755,0.159332674737232,0.149881504619777
9.7725,0.163864774392965,0.141401401063605
9.79,0.16781357624223,0.132541944768466
9.8075,0.171136749847082,0.123336025794663
9.825,0.173752415255465,0.113855426876727
9.8425,0.175630323470536,0.104154113076268
9.86,0.176744003935064,0.0942897106940974
9.8775,0.177071237048746,0.0843233345100855
9.895,0.176594543705801,0.0743193525346126
9.9125,0.175301684032924,0.0643450798282895
9.93,0.173186155234933,0.0544703937131021
9.9475,0.170247676180925,0.0447672639266428
9.965,0.166492644192684,0.035309193116863
9.9825,0.161934547492884,0.0261705655089236
10,0.156594315177714,0.0174259045681649
