"Freq [GHz]","re(S(Antenna1_1_1,Antenna1_1_1)) []","im(S(Antenna1_1_1,Antenna1_1_1)) []"
3,-0.197829386805988,-0.181696786940434
3.0175,-0.208736166439741,-0.166321954495255
3.035,-0.218246811685663,-0.15004182379483
3.0525,-0.226274145318731,-0.132994754897896
3.07,-0.232745984177212,-0.115328099534446
3.0875,-0.237606131138439,-0.0971964357947975
3.105,-0.240815148185026,-0.0787596796717804
3.1225,-0.242350891179745,-0.0601810999820005
3.14,-0.242208789536347,-0.0416252676092188
3.1575,-0.240401858007814,-0.023255974340132
3.175,-0.23696043314123,-0.0052341603436469
3.1925,-0.231931633634123,0.0122841078794208
3.21,-0.225378551439221,0.0291495659434012
3.2275,-0.217355800314511,0.0452102194830196
3.245,-0.20797048261589,0.0603258535882954
3.2625,-0.197357116236007,0.0743922408546415
3.28,-0.185630575233805,0.0873115355605899
3.2975,-0.172912101131634,0.0989994483291963
3.315,-0.159327556510858,0.109385272573929
3.3325,-0.145005798921745,0.118411666894342
3.35,-0.130077211940919,0.126034231491718
3.3675,-0.114672420654695,0.13222092269316
3.385,-0.0989212083168418,0.136951353426211
3.4025,-0.0829516397801355,0.140216028780177
3.42,-0.0668893862992683,0.142015564591802
3.4375,-0.0508572358381426,0.142359933320606
3.455,-0.0347205234032905,0.14129289774343
3.4725,-0.018829138993226,0.138762508123217
3.49,-0.00330523195978298,0.134795356404356
3.5075,0.011730420561387,0.129427244985778
3.525,0.026158947702134,0.122703519164914
3.5425,0.0398640775728025,0.11467939486993
3.56,0.0527329930398998,0.105420235756111
3.5775,0.0646573435035331,0.0950017332392893
3.595,0.0755343943180108,0.0835099453463399
3.6125,0.0852682849700211,0.0710411550164511
3.63,0.0937713579872814,0.057701515665196
3.6475,0.100965513178751,0.043606460866984
3.665,0.106783536749042,0.0288798656063373
3.6825,0.111170352195361,0.0136529580116646
3.7,0.114084139920226,-0.00193700770643375
3.7175,0.115497275148461,-0.0177482947517643
3.735,0.115397038851259,-0.0336364106397204
3.7525,0.113786063759811,-0.0494559749811811
3.77,0.110682486797443,-0.0650626780411631
3.7875,0.106119789932283,-0.080315274456821
3.805,0.100146323082271,-0.0950775533551161
3.8225,0.0928245147549024,-0.109220225514296
3.84,0.084229788026782,-0.122622670084861
3.8575,0.0744492107875075,-0.135174487719101
3.875,0.0635799193212044,-0.146776813523828
3.8925,0.0513070289767907,-0.157020329414682
3.91,0.0382368070830696,-0.166086462566081
3.9275,0.0244913132304918,-0.173929359645842
3.945,0.010192750287734,-0.180516647549088
3.9625,-0.00453814256539327,-0.185828740845884
3.98,-0.0195834924209598,-0.189857943411568
3.9975,-0.0348294637932965,-0.192607393128648
4.015,-0.0501671822946635,-0.194089901530416
4.0325,-0.0654934059768587,-0.194326741441897
4.05,-0.080710950485451,-0.193346433975866
4.0675,-0.0957288843413367,-0.19118358259741
4.085,-0.110462519785823,-0.187877796293446
4.1025,-0.124833232074248,-0.183472736459081
4.12,-0.138768145819551,-0.178015313501212
4.1375,-0.152199730562417,-0.171555049567469
4.155,-0.165065349182467,-0.164143613907933
4.1725,-0.177306802044455,-0.155834527469737
4.19,-0.18886990686315,-0.146683024020868
4.2075,-0.199704149554105,-0.136746046682721
4.225,-0.209762434839806,-0.126082351754208
4.2425,-0.219000957663942,-0.114752686317528
4.26,-0.227379207758131,-0.102820002679606
4.2775,-0.234860110573521,-0.090349671245657
4.295,-0.241410298571342,-0.0774096541278181
4.3125,-0.247000498159425,-0.0640706044612706
4.33,-0.251268182006773,-0.0507404927120981
4.3475,-0.254589296902822,-0.037226376059946
4.365,-0.256960151337288,-0.023600837420835
4.3825,-0.258383275005959,-0.00993653888199865
4.4,-0.258867565670979,0.00369450811117361
4.4175,-0.25842830426928,0.0172217260494125
4.435,-0.257087025540971,0.0305767780388194
4.4525,-0.254871238707378,0.0436943652293418
4.47,-0.251814000340516,0.0565129816555164
4.4875,-0.247953349108963,0.0689755945715523
4.505,-0.243331619238743,0.0810302205382628
4.5225,-0.237994655856628,0.0926303723295558
4.54,-0.231990960628769,0.103735357047698
4.5575,-0.225370799969633,0.11431041255838
4.575,-0.218185310383405,0.124326676757254
4.5925,-0.210485636129589,0.133760991862075
4.61,-0.202322133233117,0.142595553620703
4.6275,-0.193743671180619,0.150817422613804
4.645,-0.18479705914074,0.158417921344552
4.6625,-0.175526617940423,0.165391946205386
4.68,-0.165973912431143,0.171737227511979
4.6975,-0.156177650949459,0.177453573246729
4.715,-0.146173751191961,0.182542132996119
4.7325,-0.135995563378239,0.187004717594698
4.75,-0.125674234510958,0.190843207330816
4.7675,-0.115472403435794,0.194622329844503
4.785,-0.105069184168125,0.197803098468199
4.8025,-0.0944936976620615,0.200367231175253
4.82,-0.0837779163359982,0.202296742975066
4.8375,-0.0729568949883232,0.203574535121398
4.855,-0.0620688714143641,0.20418503623137
4.8725,-0.0511552286797593,0.204114866090548
4.89,-0.0402603173255065,0.203353492752505
4.9075,-0.0294311421134634,0.201893853386571
4.925,-0.018716923939922,0.199732911551985
4.9425,-0.00816855305750192,0.196872126370106
4.96,0.00216204559100271,0.193317813272292
4.9775,0.0122226104437669,0.189081380939895
4.995,0.0219612777967032,0.184179434643809
5.0125,0.0313273244393187,0.178633742208314
5.03,0.0402718902698434,0.172471064847589
5.0475,0.0487486540617186,0.165722861003315
5.065,0.0567144380875305,0.158424876718156
5.0825,0.064129720989403,0.150616640771058
5.1,0.0709590427560772,0.142340886567776
5.1175,0.0771712909087098,0.133642925485317
5.135,0.0827398625867738,0.124569997848657
5.1525,0.0876427030061384,0.1151706279708
5.17,0.0918622263960413,0.105494008683122
5.1875,0.0953851307676909,0.095589438575915
5.205,0.0982021225099959,0.0855058319471935
5.2225,0.100307570556669,0.075291317241623
5.24,0.101699112632874,0.0649929349813401
5.2575,0.102377237733922,0.0546564408042638
5.275,0.102344869358498,0.044326213805743
5.2925,0.101606973276799,0.0340452648768386
5.31,0.100170211609886,0.0238553346927625
5.3275,0.0980426620104904,0.0137970664576924
5.345,0.0952336167932006,0.00391023478029569
5.3625,0.0917534722424052,-0.00576599069516312
5.38,0.087613713210957,-0.0151927699581549
5.3975,0.0828269927831717,-0.0243313291526789
5.415,0.0774073014810398,-0.0331427318135188
5.4325,0.0713702154506521,-0.0415877058484314
5.45,0.0647332086330975,-0.04962654439756
5.4675,0.0575160101304609,-0.0572190948971681
5.485,0.0497409852474059,-0.0643248461374329
5.5025,0.0414335169028082,-0.0709031180733718
5.52,0.0326223635501708,-0.0769133538569988
5.5375,0.0233399703326497,-0.0823155082345753
5.555,0.013622711946993,-0.0870705214592906
5.5725,0.00351104846536132,-0.0911408632741621
5.59,-0.0069504208225886,-0.0944911277483988
5.6075,-0.0177130160938457,-0.0970886567944834
5.625,-0.0287241537004906,-0.0989041683535684
5.6425,-0.0403277535769649,-0.0997653073878052
5.66,-0.0520332524222872,-0.099719304411015
5.6775,-0.0637665676384448,-0.0987564772155702
5.695,-0.0754528287961668,-0.0968743467772513
5.7125,-0.087017306354585,-0.0940776305403282
5.73,-0.0983863095503931,-0.0903780810261665
5.7475,-0.109488024053685,-0.0857941817846428
5.765,-0.12025326365188,-0.080350718721887
5.7825,-0.130616114989942,-0.074078249193777
5.8,-0.140514460062245,-0.0670124955445537
5.8175,-0.149890367403371,-0.0591936912803269
5.835,-0.158690349449798,-0.0506659093824345
5.8525,-0.166827163610672,-0.0414306554830511
5.87,-0.174246578715607,-0.0315512327712958
5.8875,-0.180946445920759,-0.0211300476558577
5.905,-0.186894121518569,-0.010220386721869
5.9225,-0.192060605310272,0.00112373378316283
5.94,-0.196420226367245,0.0128477014091231
5.9575,-0.199950363697136,0.0248963395944955
5.975,-0.202631225281464,0.0372138537881396
5.9925,-0.204445704406582,0.0497437118705322
6.01,-0.205379326764586,0.0624284828235361
6.0275,-0.205420295668434,0.0752096599004354
6.045,-0.204559636272305,0.0880274954480496
6.0625,-0.202791433278442,0.100820873898758
6.08,-0.199971355805603,0.113508615086265
6.0975,-0.196242278367982,0.126020387381446
6.115,-0.191612941154242,0.138289179801332
6.1325,-0.186097486455429,0.150247426158554
6.15,-0.179715777667903,0.161827588354084
6.1675,-0.17249361918846,0.172962820617508
6.185,-0.164462860310399,0.183587692249917
6.2025,-0.155661371709565,0.193638943274095
6.22,-0.146132889079544,0.203056245589564
6.2375,-0.135926724693971,0.211782941766478
6.255,-0.125097353758704,0.219766734561874
6.2725,-0.113703888131925,0.226960302538592
6.29,-0.101809455009393,0.233321820604875
6.3075,-0.0894805022602221,0.238815368796616
6.325,-0.0767860550707821,0.243411217848867
6.3425,-0.0637969502724626,0.247085985880119
6.36,-0.0505850751130717,0.249822666440502
6.3775,-0.0372226362574293,0.251610534035943
6.395,-0.0237814825789073,0.25244493873011
6.4125,-0.0103325019165458,0.252327006191125
6.43,0.00305489242063869,0.251263263466341
6.4475,0.0163131747158625,0.249265213574371
6.465,0.0293770143953592,0.246348883526831
6.4825,0.0421834787508117,0.242534370709454
6.5,0.0546721372940205,0.23784541141425
6.5175,0.0665187213413447,0.232229807704987
6.535,0.0779280219458673,0.225842663967649
6.5525,0.0888515810144357,0.218714924769384
6.57,0.0992423572798657,0.210880004020072
6.5875,0.109054734954381,0.202373942051559
6.605,0.118244611061174,0.193235590109774
6.6225,0.12676956749866,0.183506800333499
6.64,0.134589128604403,0.173232598437902
6.6575,0.141665099578499,0.162461316673547
6.675,0.14796197595161,0.151244666218938
6.6925,0.153447409618536,0.139637730876534
6.71,0.158092713018199,0.127698867594185
6.7275,0.161873379996976,0.115489503872128
6.745,0.16476959998452,0.103073827105079
6.7625,0.16676674131712,0.0905183663250463
6.78,0.167855780018829,0.0778914722153411
6.7975,0.168033651984977,0.0652627064421236
6.815,0.167303509277664,0.0527021560910571
6.8325,0.165674865014557,0.0402796929619351
6.85,0.163163615841156,0.0280642005897786
6.8675,0.159791936150825,0.0161227938111576
6.885,0.1555880436381,0.00452005660756181
6.9025,0.15058584131606,-0.00668267651187138
6.92,0.144824446431581,-0.0174279718377227
6.9375,0.138347621524758,-0.0276628595231899
6.955,0.131621339318998,-0.0371742750538639
6.9725,0.124309727699701,-0.0461689563265594
6.99,0.116453249599507,-0.0546143765230476
7.0075,0.108093411141633,-0.0624814892707592
7.025,0.0992724230365304,-0.0697445490553887
7.0425,0.090032932257602,-0.0763808967797474
7.06,0.0804178269235828,-0.0823707286366299
7.0775,0.0704701126361783,-0.0876968662852541
7.095,0.060232855044651,-0.0923445451757621
7.1125,0.04974917926177,-0.0963012358533569
7.13,0.0390623140018249,-0.0995565103318495
7.1475,0.0282156658198918,-0.102101962255236
7.165,0.0172529073957337,-0.103931185718967
7.1825,0.00621806318611825,-0.105039813730845
7.2,-0.00484442384574792,-0.10542561321679
7.2175,-0.0158896594965925,-0.105088629585962
7.235,-0.026872312526273,-0.104031370550576
7.2525,-0.0377466859194388,-0.102259016054401
7.27,-0.0484668519566099,-0.0997796390477406
7.2875,-0.0589868539988831,-0.0966044204006238
7.305,-0.0692609739175851,-0.0927478411635022
7.3225,-0.0792440601122969,-0.0882278356872216
7.34,-0.0888919072474602,-0.0830658906765053
7.3575,-0.0981616755353352,-0.0772870775024839
7.375,-0.107012334496691,-0.070920008116719
7.3925,-0.115815115382451,-0.0640684995563693
7.41,-0.124130395650008,-0.0566225614470417
7.4275,-0.131916942512705,-0.0486207343797112
7.445,-0.139137239144914,-0.0401045923200384
7.4625,-0.145757715799805,-0.0311182562548135
7.48,-0.15174889728213,-0.0217078931276189
7.4975,-0.1570854676688,-0.0119212165745109
7.515,-0.161746256103931,-0.00180700531164561
7.5325,-0.165714151034176,0.00858534644947105
7.55,-0.168975952819192,0.0192062341828653
7.5675,-0.171522176967144,0.0300061940910996
7.585,-0.173346821828036,0.0409361932182344
7.6025,-0.174447115481815,0.0519478551190334
7.62,-0.174823256764423,0.0629936208789684
7.6375,-0.17447816475423,0.074026848571123
7.655,-0.173417249862815,0.0850018572288802
7.6725,-0.171648217733419,0.0958739241855354
7.69,-0.169180914780955,0.106599246611282
7.7075,-0.166027221391485,0.117134879887652
7.725,-0.162200995722303,0.127438666174708
7.7425,-0.157718067884458,0.137469166827157
7.76,-0.15259628115532,0.147185611769267
7.7775,-0.14685557395068,0.1565478777566
7.795,-0.140518093724233,0.165516505667165
7.8125,-0.133608331836927,0.174052764603717
7.83,-0.125800865399274,0.182194338528163
7.8475,-0.117467133016254,0.189759810345927
7.865,-0.108649440413588,0.196712484989235
7.8825,-0.0993930415645492,0.203018550081544
7.9,-0.0897459733384017,0.208647404994855
7.9175,-0.0797588349721139,0.21357198364619
7.935,-0.0694845130133749,0.21776905956596
7.9525,-0.0589778543596439,0.221219522023646
7.97,-0.0482952927789179,0.223908612831866
7.9875,-0.0374944362594344,0.225826114734871
8.005,-0.0266336244150776,0.226966484056878
8.0225,-0.0157714664990957,0.227328922380015
8.04,-0.00496637149201311,0.226917384363758
8.0575,0.00572391793957647,0.225740521268649
8.075,0.0162427760392733,0.223811562247799
8.0925,0.0265351182466877,0.221148137797222
8.11,0.0365477895489013,0.21777205194115
8.1275,0.046229908937892,0.213709011468264
8.145,0.0555331640050081,0.20898832200585
8.1625,0.0644120519648586,0.203642561574314
8.18,0.0728240657921772,0.197707242720907
8.1975,0.0807298265472435,0.191220474153898
8.215,0.0880931652975537,0.184222632179557
8.2325,0.0948811601192494,0.176756051087009
8.25,0.101064135473947,0.168864740048215
8.2675,0.106340712672908,0.160493085354846
8.285,0.110949793307555,0.151839699898593
8.3025,0.114877444944864,0.142952818711347
8.32,0.118112653191936,0.133881022109664
8.3375,0.120647265085965,0.124673174609723
8.355,0.122475961919097,0.115378378644524
8.3725,0.123596263779333,0.106045933510635
8.39,0.124008565793356,0.0967252897781664
8.4075,0.123716203782339,0.0874659897183704
8.425,0.122725544880329,0.0783175850411911
8.4425,0.121046096754665,0.0693295245423183
8.46,0.118690627471188,0.0605510058271063
8.4775,0.115675286845072,0.0520307872582534
8.495,0.112019719391367,0.043816958387973
8.5125,0.107747158693368,0.03595666943353
8.53,0.102884493294145,0.0284958225640632
8.5475,0.0974622948771162,0.0214787299700183
8.565,0.0915148007345427,0.0149477456128315
8.5825,0.0850798440177067,0.00894287921917648
8.6,0.0781987271926797,0.00350140236283693
8.6175,0.0709160362035703,-0.00134254266267047
8.635,0.0632793951074047,-0.00555832006821703
8.6525,0.05533916319183,-0.00911915291249744
8.67,0.0471480788236958,-0.0120024401045293
8.6875,0.0387608562690384,-0.0141900286645085
8.705,0.0304811267689121,-0.0155277086462491
8.7225,0.0221427364513259,-0.0161955084649256
8.74,0.0137968298494789,-0.0161928401886887
8.7575,0.00549418713176643,-0.0155231851833342
8.775,-0.00271514101694943,-0.0141939873039659
8.7925,-0.0107821704081728,-0.0122165069679215
8.81,-0.0186592874499039,-0.00960564328306414
8.8275,-0.0263005173029631,-0.00637973197308773
8.845,-0.0336617548520904,-0.00256032700515251
8.8625,-0.0407009589822935,0.00182802642631008
8.88,-0.0473783122771272,0.00675802049595222
8.8975,-0.0536563496497601,0.0121998088272738
8.915,-0.0595000605316096,0.0181212211712152
8.9325,-0.0648769700499356,0.0244879652007452
8.95,-0.0697572050534515,0.031263813519301
8.9675,-0.0741135508957692,0.0384107754909142
8.985,-0.0779215045735053,0.0458892550856109
9.0025,-0.0811593291679429,0.0536581972738775
9.02,-0.0838081135396191,0.0616752266992842
9.0375,-0.0858518400500825,0.069896783260918
9.055,-0.0872774616555325,0.0782782598263415
9.0725,-0.088074988234233,0.0867741475165418
9.09,-0.088237580503198,0.0953381938723877
9.1075,-0.0877616484125051,0.103923578721379
9.125,-0.0866469496136738,0.112483111711953
9.1425,-0.0850949059879128,0.120858129286399
9.16,-0.0829303891748469,0.129149334932405
9.1775,-0.0801592390461513,0.137311194194604
9.195,-0.0767909266561001,0.145298467581343
9.2125,-0.0728385620603015,0.153066562062958
9.23,-0.0683188548771763,0.160571888578727
9.2475,-0.0632520262638125,0.167772217034146
9.265,-0.0576616727372529,0.174627020051923
9.2825,-0.0515745840541836,0.181097796897149
9.3,-0.0450205191133129,0.187148369564192
9.3175,-0.0380319454029739,0.192745143896653
9.335,-0.0306437489085149,0.197857329854917
9.3525,-0.0228929224832347,0.202457116531061
9.37,-0.0148182414151678,0.206519799218999
9.3875,-0.00645993536907992,0.210023857677415
9.405,0.00214063417253726,0.212950986623401
9.4225,0.0109412822149681,0.215286081331162
9.44,0.0198992863182779,0.217017182988602
9.4575,0.0289716435913773,0.218135389990689
9.475,0.0381152931927102,0.218634742666461
9.4925,0.0472873006192444,0.218512089933339
9.51,0.056445001912718,0.217766946949433
9.5275,0.0655461078916487,0.216401353120574
9.545,0.0745487704943445,0.214419739585663
9.5625,0.0834116152511433,0.211828814763656
9.58,0.0921759133840333,0.208727222993794
9.5975,0.100735680739384,0.205020227896374
9.615,0.109048649852774,0.20071864294896
9.6325,0.117072628627987,0.195835710318939
9.65,0.124765520920425,0.19038721321537
9.6675,0.132085375261785,0.184391618932989
9.685,0.138990470043873,0.177870246961626
9.7025,0.145439442366443,0.170847454887705
9.72,0.151391466381609,0.163350833404495
9.7375,0.156806485364639,0.155411400514998
9.755,0.161645499954232,0.147063784165777
9.7725,0.165870913040965,0.138346381945605
9.79,0.16947989748423,0.129290984891466
9.8075,0.172435090333082,0.119934678984663
9.825,0.174670107143465,0.110335941532727
9.8425,0.176155965714536,0.100550078234268
9.86,0.176867718513064,0.0906363820000974
9.8775,0.176785049342746,0.0806578915820855
9.895,0.175892868243801,0.0706810575906126
9.9125,0.174181890447624,0.0607753123432895
9.93,0.171649184150433,0.0510125420241021
9.9475,0.168298671058875,0.0414664618186428
9.965,0.164141563099784,0.032211897153863
9.9825,0.159196718396884,0.0233239768589237
10,0.153490899740714,0.0148772469811649
