"Freq [GHz]","re(S(Tx_p1,Tx_p1)) []","im(S(Tx_p1,Tx_p1)) []"
1,0.4938498499,-0.236889465
1.01,0.4870998558,-0.2332574392
1.02,0.4806514154,-0.2298191359
1.03,0.4744897001,-0.2265707474
1.04,0.4686005284,-0.223508555
1.05,0.4629703304,-0.220628923
1.06,0.4575861141,-0.2179282943
1.07,0.4524354348,-0.2154031857
1.08,0.447506366,-0.2130501834
1.09,0.442787472,-0.2108659393
1.1,0.4382677826,-0.2088471667
1.11,0.4339367693,-0.2069906371
1.12,0.4297843229,-0.2052931763
1.13,0.4258007326,-0.2037516617
1.14,0.4219766664,-0.2023630189
1.15,0.4183031525,-0.2011242189
1.16,0.4147715625,-0.2000322751
1.17,0.4113735944,-0.1990842414
1.18,0.4081012579,-0.1982772093
1.19,0.4049468597,-0.1976083053
1.2,0.4019029902,-0.1970746894
1.21,0.3989625108,-0.1966735528
1.22,0.3961185418,-0.1964021154
1.23,0.3933644512,-0.196257625
1.24,0.3906938439,-0.1962373546
1.25,0.3881005521,-0.1963386012
1.26,0.3855786257,-0.1965586843
1.27,0.3831223231,-0.1968949443
1.28,0.3807261032,-0.197344741
1.29,0.3783846176,-0.1979054526
1.3,0.3760927027,-0.1985744742
1.31,0.3738453729,-0.1993492168
1.32,0.371637814,-0.2002271061
1.33,0.3694653769,-0.2012055815
1.34,0.3673235716,-0.2022820952
1.35,0.3652080616,-0.2034541114
1.36,0.3631146588,-0.2047191051
1.37,0.3610393184,-0.2060745617
1.38,0.3589781341,-0.2075179762
1.39,0.3569273335,-0.2090468522
1.4,0.3548832745,-0.2106587017
1.41,0.3528424406,-0.2123510444
1.42,0.3508014375,-0.2141214071
1.43,0.3487569895,-0.2159673232
1.44,0.3467059361,-0.2178863324
1.45,0.3446452289,-0.2198759802
1.46,0.3425719283,-0.2219338177
1.47,0.340483201,-0.2240574011
1.48,0.338376317,-0.2262442916
1.49,0.3362486475,-0.2284920552
1.5,0.3340976619,-0.2307982625
1.51,0.3319209257,-0.2331604883
1.52,0.3297160986,-0.2355763121
1.53,0.3274809323,-0.2380433175
1.54,0.3252132681,-0.2405590921
1.55,0.3229110358,-0.2431212282
1.56,0.3205722515,-0.2457273222
1.57,0.3181950159,-0.2483749748
1.58,0.3157775129,-0.2510617914
1.59,0.3133180078,-0.253785382
1.6,0.3108148465,-0.2565433613
1.61,0.3082664531,-0.2593333491
1.62,0.3056713297,-0.2621529707
1.63,0.3030280543,-0.2649998565
1.64,0.3003352801,-0.2678716432
1.65,0.2975917342,-0.2707659733
1.66,0.2947962164,-0.2736804962
1.67,0.2919475983,-0.2766128678
1.68,0.2890448223,-0.2795607516
1.69,0.2860869003,-0.2825218187
1.7,0.2830729133,-0.2854937485
1.71,0.2800020101,-0.2884742289
1.72,0.2768734065,-0.2914609571
1.73,0.2736863844,-0.2944516399
1.74,0.270440291,-0.2974439944
1.75,0.2671345382,-0.3004357485
1.76,0.2637686014,-0.3034246413
1.77,0.2603420188,-0.306408424
1.78,0.2568543911,-0.3093848604
1.79,0.25330538,-0.3123517273
1.8,0.249694708,-0.3153068156
1.81,0.2460221573,-0.3182479305
1.82,0.2422875696,-0.3211728924
1.83,0.2384908445,-0.3240795375
1.84,0.2346319396,-0.3269657186
1.85,0.2307108692,-0.3298293058
1.86,0.226727704,-0.332668187
1.87,0.2226825699,-0.3354802687
1.88,0.2185756476,-0.338263477
1.89,0.2144071718,-0.3410157578
1.9,0.2101774303,-0.343735078
1.91,0.2058867635,-0.346419426
1.92,0.2015355632,-0.3490668126
1.93,0.1971242725,-0.3516752714
1.94,0.1926533841,-0.3542428599
1.95,0.1881234406,-0.3567676601
1.96,0.1835350326,-0.3592477791
1.97,0.1788887989,-0.36168135
1.98,0.1741854248,-0.3640665325
1.99,0.1694256418,-0.3664015138
2,0.1646102267,-0.3686845091
2.01,0.1597400005,-0.3709137623
2.02,0.1548158279,-0.3730875468
2.03,0.149838616,-0.3752041662
2.04,0.1448093137,-0.3772619549
2.05,0.1397289107,-0.3792592786
2.06,0.1345984365,-0.3811945354
2.07,0.1294189598,-0.3830661558
2.08,0.1241915871,-0.3848726039
2.09,0.1189174619,-0.3866123777
2.1,0.1135977641,-0.3882840096
2.11,0.1082337085,-0.3898860673
2.12,0.1028265441,-0.3914171538
2.13,0.09737755299,-0.3928759087
2.14,0.09188804951,-0.3942610078
2.15,0.08635937904,-0.3955711645
2.16,0.08079291709,-0.3968051296
2.17,0.07519006826,-0.3979616918
2.18,0.06955226514,-0.3990396787
2.19,0.06388096734,-0.4000379563
2.2,0.0581776604,-0.4009554302
2.21,0.05244385472,-0.4017910456
2.22,0.04668108454,-0.4025437875
2.23,0.04089090683,-0.4032126811
2.24,0.03507490026,-0.4037967923
2.25,0.02923466409,-0.4042952277
2.26,0.02337181712,-0.4047071348
2.27,0.01748799661,-0.4050317023
2.28,0.01158485722,-0.4052681605
2.29,0.005664069894,-0.405415781
2.3,-0.0002726791656,-0.4054738771
2.31,-0.006223689594,-0.4054418039
2.32,-0.01218724792,-0.4053189582
2.33,-0.01816162865,-0.4051047788
2.34,-0.02414509529,-0.4047987463
2.35,-0.03013590141,-0.4044003832
2.36,-0.03613229174,-0.4039092538
2.37,-0.04213250312,-0.4033249642
2.38,-0.04813476559,-0.4026471622
2.39,-0.0541373034,-0.4018755373
2.4,-0.06013833602,-0.4010098202
2.41,-0.06613607913,-0.4000497832
2.42,-0.07212874563,-0.3989952396
2.43,-0.07811454658,-0.3978460434
2.44,-0.08409169221,-0.3966020898
2.45,-0.09005839285,-0.3952633139
2.46,-0.09601285985,-0.3938296913
2.47,-0.1019533065,-0.3923012373
2.48,-0.1078779491,-0.390678007
2.49,-0.1137850074,-0.3889600944
2.5,-0.1196727061,-0.3871476326
2.51,-0.1255392752,-0.3852407932
2.52,-0.1313829511,-0.3832397858
2.53,-0.1372019772,-0.3811448578
2.54,-0.1429946051,-0.3789562939
2.55,-0.1487590949,-0.3766744154
2.56,-0.1544937162,-0.3742995803
2.57,-0.1601967491,-0.3718321824
2.58,-0.1658664843,-0.3692726508
2.59,-0.1715012243,-0.3666214497
2.6,-0.1770992841,-0.3638790776
2.61,-0.1826589914,-0.3610460671
2.62,-0.1881786878,-0.3581229839
2.63,-0.193656729,-0.3551104266
2.64,-0.1990914857,-0.3520090264
2.65,-0.2044813438,-0.3488194457
2.66,-0.2098247055,-0.3455423785
2.67,-0.2151199892,-0.3421785491
2.68,-0.2203656306,-0.3387287121
2.69,-0.2255600828,-0.3351936512
2.7,-0.2307018168,-0.3315741793
2.71,-0.2357893223,-0.3278711374
2.72,-0.2408211077,-0.324085394
2.73,-0.2457957007,-0.3202178451
2.74,-0.2507116486,-0.3162694127
2.75,-0.2555675189,-0.3122410452
2.76,-0.2603618993,-0.308133716
2.77,-0.2650933983,-0.3039484234
2.78,-0.2697606455,-0.2996861896
2.79,-0.2743622916,-0.2953480605
2.8,-0.278897009,-0.2909351051
2.81,-0.2833634921,-0.2864484147
2.82,-0.287760457,-0.2818891024
2.83,-0.2920866425,-0.2772583025
2.84,-0.2963408095,-0.2725571701
2.85,-0.300521742,-0.2677868805
2.86,-0.3046282465,-0.2629486285
2.87,-0.3086591526,-0.258043628
2.88,-0.3126133134,-0.2530731114
2.89,-0.3164896048,-0.2480383291
2.9,-0.3202869264,-0.2429405491
2.91,-0.3240042014,-0.2377810563
2.92,-0.3276403763,-0.2325611519
2.93,-0.3311944217,-0.2272821535
2.94,-0.3346653317,-0.2219453939
2.95,-0.3380521243,-0.2165522209
2.96,-0.3413538415,-0.2111039972
2.97,-0.3445695492,-0.2056020994
2.98,-0.3476983372,-0.2000479177
2.99,-0.3507393196,-0.1944428558
3,-0.3536916341,-0.1887883301
3.01,-0.356554443,-0.1830857695
3.02,-0.3593269323,-0.1773366148
3.03,-0.3620083123,-0.1715423186
3.04,-0.3645978175,-0.1657043446
3.05,-0.3670947062,-0.1598241675
3.06,-0.3694982612,-0.1539032725
3.07,-0.3718077893,-0.1479431549
3.08,-0.3740226213,-0.1419453198
3.09,-0.3761421123,-0.1359112821
3.1,-0.3781656416,-0.1298425653
3.11,-0.3800926124,-0.1237407024
3.12,-0.3819224523,-0.1176072343
3.13,-0.3836546129,-0.1114437107
3.14,-0.3852885699,-0.1052516888
3.15,-0.3868238234,-0.09903273358
3.16,-0.3882598974,-0.09278841751
3.17,-0.3895963403,-0.08652032
3.18,-0.3908327244,-0.08023002732
3.19,-0.3919686467,-0.07391913226
3.2,-0.3930037279,-0.06758923393
3.21,-0.3939376134,-0.06124193741
3.22,-0.3947699726,-0.0548788536
3.23,-0.3955004995,-0.04850159886
3.24,-0.3961289122,-0.04211179485
3.25,-0.3966549535,-0.03571106823
3.26,-0.3970783905,-0.02930105041
3.27,-0.3973990149,-0.02288337733
3.28,-0.3976166431,-0.0164596892
3.29,-0.3977311159,-0.01003163026
3.3,-0.397742299,-0.003600848514
3.31,-0.397650083,0.00283100452
3.32,-0.3974543832,0.009262274036
3.33,-0.3971551401,0.01569130222
3.34,-0.396752319,0.0221164285
3.35,-0.3962459107,0.0285359898
3.36,-0.395635931,0.03494832082
3.37,-0.3949224212,0.0413517543
3.38,-0.394105448,0.04774462131
3.39,-0.3931851038,0.05412525149
3.4,-0.3921615067,0.06049197338
3.41,-0.3910348006,0.06684311472
3.42,-0.3898051553,0.07317700269
3.43,-0.3884727667,0.07949196431
3.44,-0.3870378569,0.08578632666
3.45,-0.3855006744,0.09205841728
3.46,-0.3838614942,0.09830656448
3.47,-0.3821206175,0.1045290977
3.48,-0.3802783727,0.1107243477
3.49,-0.3783351148,0.1168906473
3.5,-0.3762912256,0.1230263313
3.51,-0.3741471144,0.1291297371
3.52,-0.3719032172,0.1351992053
3.53,-0.3695599977,0.1412330795
3.54,-0.3671179469,0.1472297073
3.55,-0.3645775833,0.1531874404
3.56,-0.3619394532,0.1591046352
3.57,-0.3592041305,0.1649796531
3.58,-0.356372217,0.1708108611
3.59,-0.3534443426,0.176596632
3.6,-0.3504211649,0.1823353453
3.61,-0.3473033699,0.1880253873
3.62,-0.3440916715,0.1936651517
3.63,-0.3407868121,0.1992530402
3.64,-0.3373895621,0.204787463
3.65,-0.3339007205,0.2102668391
3.66,-0.3303211143,0.2156895972
3.67,-0.326651599,0.2210541758
3.68,-0.3228930587,0.2263590244
3.69,-0.3190464053,0.2316026032
3.7,-0.3151125795,0.2367833845
3.71,-0.3110925502,0.2418998526
3.72,-0.3069873142,0.2469505048
3.73,-0.302797897,0.251933852
3.74,-0.2985253518,0.256848419
3.75,-0.2941707599,0.2616927454
3.76,-0.2897352306,0.2664653858
3.77,-0.2852199009,0.2711649109
3.78,-0.2806259355,0.275789908
3.79,-0.2759545263,0.2803389813
3.8,-0.2712068927,0.2848107528
3.81,-0.2663842814,0.2892038629
3.82,-0.2614879655,0.2935169711
3.83,-0.2565192452,0.2977487562
3.84,-0.2514794469,0.3018979176
3.85,-0.246369923,0.3059631753
3.86,-0.241192052,0.309943271
3.87,-0.2359472378,0.3138369683
3.88,-0.2306369095,0.3176430539
3.89,-0.2252625213,0.3213603375
3.9,-0.2198255516,0.3249876529
3.91,-0.214327503,0.3285238586
3.92,-0.208769902,0.3319678382
3.93,-0.2031542982,0.3353185011
3.94,-0.1974822642,0.3385747831
3.95,-0.1917553948,0.341735647
3.96,-0.185975307,0.344800083
3.97,-0.180143639,0.3477671096
3.98,-0.1742620501,0.3506357739
3.99,-0.1683322197,0.3534051523
4,-0.1623558473,0.3560743508
4.01,-0.1563346515,0.3586425056
4.02,-0.1502703695,0.3611087841
4.03,-0.1441647569,0.3634723845
4.04,-0.1380195863,0.3657325372
4.05,-0.1318366473,0.3678885043
4.06,-0.1256177458,0.3699395812
4.07,-0.1193647028,0.371885096
4.08,-0.1130793546,0.3737244104
4.09,-0.1067635511,0.3754569203
4.1,-0.100419156,0.3770820556
4.11,-0.09404804538,0.378599281
4.12,-0.08765210741,0.3800080964
4.13,-0.08123324138,0.381308037
4.14,-0.07479335704,0.3824986735
4.15,-0.06833437377,0.3835796128
4.16,-0.06185821985,0.3845504979
4.17,-0.05536683162,0.3854110085
4.18,-0.04886215275,0.3861608607
4.19,-0.04234613336,0.3867998077
4.2,-0.03582072927,0.3873276398
4.21,-0.02928790117,0.3877441846
4.22,-0.02274961376,0.3880493069
4.23,-0.01620783497,0.3882429092
4.24,-0.009664535099,0.3883249316
4.25,-0.003121686004,0.3882953517
4.26,0.003418739756,0.3881541849
4.27,0.009954769745,0.3879014846
4.28,0.01648443249,0.3875373414
4.29,0.02300575833,0.3870618842
4.3,0.02951678023,0.3864752791
4.31,0.03601553464,0.38577773
4.32,0.0425000623,0.3849694784
4.33,0.04896840909,0.384050803
4.34,0.05541862686,0.3830220199
4.35,0.06184877422,0.3818834822
4.36,0.06825691739,0.3806355799
4.37,0.07464113096,0.3792787398
4.38,0.08099949874,0.3778134251
4.39,0.08733011453,0.3762401352
4.4,0.09363108288,0.3745594055
4.41,0.09990051991,0.3727718072
4.42,0.106136554,0.3708779465
4.43,0.1123373268,0.368878465
4.44,0.1185009933,0.3667740389
4.45,0.1246257236,0.3645653784
4.46,0.1307097026,0.3622532281
4.47,0.1367511314,0.3598383658
4.48,0.1427482276,0.3573216024
4.49,0.1486992262,0.3547037817
4.5,0.1546023801,0.3519857793
4.51,0.160455961,0.349168503
4.52,0.1662582596,0.3462528914
4.53,0.1720075868,0.3432399141
4.54,0.1777022735,0.3401305709
4.55,0.183340672,0.3369258913
4.56,0.1889211562,0.3336269338
4.57,0.194442122,0.3302347858
4.58,0.199901988,0.3267505624
4.59,0.205299196,0.3231754065
4.6,0.2106322116,0.3195104877
4.61,0.2158995244,0.315757002
4.62,0.2210996486,0.3119161709
4.63,0.2262311235,0.3079892412
4.64,0.231292514,0.3039774841
4.65,0.2362824105,0.2998821947
4.66,0.2411994299,0.2957046912
4.67,0.2460422156,0.2914463145
4.68,0.250809438,0.2871084276
4.69,0.2554997947,0.2826924144
4.7,0.2601120107,0.27819968
4.71,0.2646448392,0.2736316493
4.72,0.2690970611,0.2689897665
4.73,0.2734674859,0.2642754946
4.74,0.2777549515,0.259490315
4.75,0.2819583249,0.2546357261
4.76,0.2860765017,0.2497132435
4.77,0.2901084069,0.2447243989
4.78,0.2940529946,0.2396707394
4.79,0.2979092487,0.2345538271
4.8,0.3016761823,0.2293752385
4.81,0.3053528384,0.2241365635
4.82,0.3089382896,0.2188394053
4.83,0.3124316387,0.2134853794
4.84,0.315832018,0.2080761131
4.85,0.3191385901,0.2026132448
4.86,0.3223505472,0.1970984236
4.87,0.325467112,0.1915333087
4.88,0.3284875369,0.1859195686
4.89,0.3314111044,0.1802588807
4.9,0.3342371269,0.1745529305
4.91,0.336964947,0.1688034115
4.92,0.3395939369,0.1630120242
4.93,0.3421234989,0.1571804756
4.94,0.3445530651,0.1513104791
4.95,0.3468820973,0.1454037533
4.96,0.3491100867,0.1394620221
4.97,0.3512365545,0.1334870138
4.98,0.3532610511,0.1274804608
4.99,0.3551831563,0.121444099
5,0.3570024791,0.1153796673
5.01,0.3587186577,0.1092889073
5.02,0.3603313592,0.1031735628
5.03,0.3618402796,0.09703537918
5.04,0.3632451438,0.09087610301
5.05,0.364545705,0.08469748179
5.06,0.3657417451,0.07850126339
5.07,0.366833074,0.07228919566
5.08,0.3678195301,0.06606302603
5.09,0.3687009794,0.05982450115
5.1,0.3694773162,0.05357536644
5.11,0.370148462,0.04731736577
5.12,0.370714366,0.04105224109
5.13,0.371175005,0.03478173203
5.14,0.3715303826,0.02850757562
5.15,0.3717805298,0.02223150587
5.16,0.3719255041,0.01595525348
5.17,0.3719653899,0.009680545516
5.18,0.3719002983,0.003409105067
5.19,0.3717303667,-0.002857349058
5.2,0.3714557585,-0.009117102638
5.21,0.3710766636,-0.01536844634
5.22,0.3705932974,-0.02160967604
5.23,0.3700059016,-0.02783909305
5.24,0.369314743,-0.0340550045
5.25,0.3685201142,-0.04025572354
5.26,0.3676223332,-0.04643956965
5.27,0.3666217429,-0.05260486893
5.28,0.3655187116,-0.05874995433
5.29,0.3643136323,-0.06487316596
5.3,0.3630069228,-0.07097285134
5.31,0.3615990259,-0.07704736566
5.32,0.3600904084,-0.08309507207
5.33,0.358481562,-0.08911434188
5.34,0.3567730025,-0.09510355489
5.35,0.3549652697,-0.1010610996
5.36,0.3530589278,-0.1069853736
5.37,0.3510545647,-0.1128747835
5.38,0.3489527923,-0.1187277456
5.39,0.346754246,-0.124542686
5.4,0.3444595851,-0.1303180406
5.41,0.3420694923,-0.1360522559
5.42,0.3395846736,-0.1417437887
5.43,0.3370058583,-0.1473911068
5.44,0.3343337992,-0.152992689
5.45,0.331569272,-0.1585470256
5.46,0.3287130753,-0.1640526184
5.47,0.3257660307,-0.1695079813
5.48,0.3227289828,-0.1749116405
5.49,0.3196027985,-0.1802621343
5.5,0.3163883678,-0.1855580144
5.51,0.3130866027,-0.1907978451
5.52,0.3096984381,-0.1959802043
5.53,0.3062248307,-0.2011036838
5.54,0.3026667598,-0.2061668892
5.55,0.2990252265,-0.2111684404
5.56,0.295301254,-0.2161069721
5.57,0.2914958873,-0.220981134
5.58,0.2876101932,-0.225789591
5.59,0.2836452601,-0.2305310238
5.6,0.2796021977,-0.2352041289
5.61,0.2754821372,-0.2398076192
5.62,0.271286231,-0.2443402244
5.63,0.2670156525,-0.2488006911
5.64,0.262671596,-0.2531877833
5.65,0.2582552767,-0.2575002828
5.66,0.2537679302,-0.2617369895
5.67,0.2492108125,-0.2658967216
5.68,0.2445851999,-0.2699783165
5.69,0.2398923889,-0.2739806306
5.7,0.2351336955,-0.2779025399
5.71,0.2303104556,-0.2817429405
5.72,0.2254240244,-0.2855007488
5.73,0.2204757765,-0.2891749019
5.74,0.2154671051,-0.2927643583
5.75,0.2103994224,-0.2962680977
5.76,0.2052741591,-0.2996851219
5.77,0.2000927639,-0.3030144552
5.78,0.1948567035,-0.3062551442
5.79,0.1895674623,-0.3094062591
5.8,0.184226542,-0.3124668932
5.81,0.1788354613,-0.315436164
5.82,0.1733957555,-0.318313213
5.83,0.1679089766,-0.3210972067
5.84,0.1623766923,-0.3237873363
5.85,0.1568004861,-0.3263828188
5.86,0.1511819567,-0.3288828969
5.87,0.1455227178,-0.3312868393
5.88,0.1398243975,-0.3335939417
5.89,0.1340886382,-0.3358035265
5.9,0.1283170958,-0.3379149434
5.91,0.1225114395,-0.3399275698
5.92,0.1166733512,-0.3418408113
5.93,0.1108045254,-0.3436541017
5.94,0.1049066682,-0.3453669035
5.95,0.09898149725,-0.3469787085
5.96,0.09303074099,-0.3484890375
5.97,0.08705613829,-0.3498974413
5.98,0.08105943787,-0.3512035005
5.99,0.07504239779,-0.3524068262
6,0.06900678489,-0.3535070598
