"Freq [GHz]","re(S(Tx_p1,Tx_p1)) []","im(S(Tx_p1,Tx_p1)) []"
1,0.1632904779,-0.08256238404
1.01,0.1613304083,-0.08186959161
1.02,0.1594462327,-0.08124241298
1.03,0.157633342,-0.08067908482
1.04,0.155887342,-0.0801778754
1.05,0.1542040423,-0.0797370835
1.06,0.1525794461,-0.07935503721
1.07,0.1510097404,-0.07903009285
1.08,0.1494912867,-0.07876063396
1.09,0.1480206129,-0.07854507039
1.1,0.1465944046,-0.07838183745
1.11,0.1452094984,-0.07826939516
1.12,0.1438628741,-0.0782062275
1.13,0.1425516482,-0.07819084175
1.14,0.141273068,-0.07822176793
1.15,0.140024505,-0.07829755817
1.16,0.1388034499,-0.07841678624
1.17,0.1376075068,-0.07857804706
1.18,0.1364343888,-0.07877995626
1.19,0.1352819125,-0.07902114976
1.2,0.1341479941,-0.07930028343
1.21,0.133030645,-0.07961603267
1.22,0.1319279676,-0.07996709217
1.23,0.1308381516,-0.08035217556
1.24,0.1297594705,-0.08077001512
1.25,0.1286902779,-0.08121936153
1.26,0.1276290043,-0.08169898365
1.27,0.1265741538,-0.08220766823
1.28,0.1255243017,-0.08274421972
1.29,0.1244780907,-0.08330746008
1.3,0.1234342292,-0.08389622853
1.31,0.1223914879,-0.0845093814
1.32,0.1213486978,-0.08514579191
1.33,0.1203047477,-0.08580435003
1.34,0.1192585816,-0.08648396225
1.35,0.1182091973,-0.08718355147
1.36,0.1171556435,-0.08790205678
1.37,0.1160970183,-0.08863843332
1.38,0.1150324673,-0.0893916521
1.39,0.1139611813,-0.09016069985
1.4,0.1128823953,-0.09094457882
1.41,0.1117953861,-0.09174230667
1.42,0.110699471,-0.09255291625
1.43,0.1095940065,-0.09337545545
1.44,0.1084783863,-0.09420898703
1.45,0.1073520401,-0.09505258846
1.46,0.1062144325,-0.09590535172
1.47,0.1050650613,-0.09676638312
1.48,0.1039034562,-0.09763480316
1.49,0.1027291781,-0.09850974628
1.5,0.1015418172,-0.09939036075
1.51,0.1003409925,-0.1002758084
1.52,0.09912635044,-0.1011652645
1.53,0.09789756387,-0.1020579175
1.54,0.0966543311,-0.1029529689
1.55,0.09539637493,-0.103849633
1.56,0.09412344173,-0.1047471367
1.57,0.0928353006,-0.1056447191
1.58,0.09153174247,-0.1065416319
1.59,0.09021257932,-0.1074371384
1.6,0.08887764343,-0.1083305139
1.61,0.0875267866,-0.1092210451
1.62,0.08615987947,-0.11010803
1.63,0.08477681081,-0.1109907778
1.64,0.08337748694,-0.1118686086
1.65,0.08196183102,-0.1127408532
1.66,0.08052978255,-0.1136068526
1.67,0.07908129676,-0.1144659583
1.68,0.07761634409,-0.1153175317
1.69,0.07613490968,-0.1161609439
1.7,0.07463699289,-0.1169955759
1.71,0.07312260687,-0.1178208175
1.72,0.07159177809,-0.1186360682
1.73,0.07004454593,-0.119440736
1.74,0.06848096235,-0.1202342379
1.75,0.06690109148,-0.1210159992
1.76,0.06530500928,-0.1217854537
1.77,0.06369280325,-0.1225420432
1.78,0.06206457211,-0.1232852174
1.79,0.06042042554,-0.1240144337
1.8,0.05876048389,-0.1247291572
1.81,0.05708487796,-0.1254288602
1.82,0.0553937488,-0.1261130221
1.83,0.05368724747,-0.1267811296
1.84,0.05196553485,-0.1274326761
1.85,0.0502287815,-0.1280671616
1.86,0.04847716749,-0.1286840928
1.87,0.04671088224,-0.1292829827
1.88,0.04493012442,-0.1298633507
1.89,0.04313510184,-0.1304247223
1.9,0.04132603131,-0.1309666291
1.91,0.03950313861,-0.1314886085
1.92,0.03766665837,-0.1319902039
1.93,0.03581683402,-0.1324709643
1.94,0.03395391776,-0.1329304444
1.95,0.03207817047,-0.1333682047
1.96,0.03018986172,-0.133783811
1.97,0.02828926973,-0.1341768347
1.98,0.02637668134,-0.1345468526
1.99,0.02445239202,-0.1348934471
2,0.02251670587,-0.1352162058
2.01,0.02056993559,-0.1355147218
2.02,0.01861240253,-0.1357885937
2.03,0.01664443669,-0.1360374253
2.04,0.01466637672,-0.136260826
2.05,0.01267856998,-0.1364584108
2.06,0.01068137254,-0.1366298
2.07,0.00867514919,-0.1367746195
2.08,0.006660273519,-0.1368925012
2.09,0.004637127908,-0.1369830823
2.1,0.002606103571,-0.1370460061
2.11,0.0005676005893,-0.1370809219
2.12,-0.001477972058,-0.1370874848
2.13,-0.003530196467,-0.1370653563
2.14,-0.00558864578,-0.1370142041
2.15,-0.007652884158,-0.1369337023
2.16,-0.009722466762,-0.1368235318
2.17,-0.01179693973,-0.1366833801
2.18,-0.01387584017,-0.1365129418
2.19,-0.01595869613,-0.1363119185
2.2,-0.01804502662,-0.1360800191
2.21,-0.02013434159,-0.1358169602
2.22,-0.02222614195,-0.135522466
2.23,-0.02431991957,-0.1351962687
2.24,-0.02641515732,-0.1348381086
2.25,-0.02851132908,-0.1344477347
2.26,-0.03060789976,-0.1340249042
2.27,-0.03270432539,-0.1335693836
2.28,-0.03480005314,-0.1330809484
2.29,-0.03689452139,-0.1325593835
2.3,-0.03898715979,-0.1320044836
2.31,-0.04107738936,-0.1314160532
2.32,-0.04316462256,-0.1307939071
2.33,-0.04524826342,-0.1301378707
2.34,-0.04732770762,-0.1294477801
2.35,-0.04940234265,-0.1287234825
2.36,-0.0514715479,-0.1279648366
2.37,-0.05353469485,-0.1271717125
2.38,-0.05559114721,-0.1263439925
2.39,-0.05764026108,-0.1254815711
2.4,-0.05968138515,-0.1245843553
2.41,-0.0617138609,-0.123652265
2.42,-0.06373702277,-0.1226852332
2.43,-0.06575019842,-0.1216832065
2.44,-0.06775270897,-0.120646145
2.45,-0.06974386918,-0.1195740229
2.46,-0.07172298778,-0.1184668288
2.47,-0.07368936772,-0.1173245659
2.48,-0.07564230642,-0.1161472522
2.49,-0.07758109611,-0.1149349209
2.5,-0.07950502412,-0.1136876205
2.51,-0.0814133732,-0.1124054155
2.52,-0.08330542184,-0.111088386
2.53,-0.08518044467,-0.1097366287
2.54,-0.08703771274,-0.1083502563
2.55,-0.08887649396,-0.1069293987
2.56,-0.09069605342,-0.1054742023
2.57,-0.09249565386,-0.103984831
2.58,-0.094274556,-0.1024614658
2.59,-0.09603201899,-0.1009043054
2.6,-0.09776730085,-0.09931356622
2.61,-0.09947965888,-0.09768948273
2.62,-0.1011683501,-0.09603230742
2.63,-0.1028326318,-0.09434231108
2.64,-0.1044717618,-0.09261978295
2.65,-0.1060849993,-0.0908650308
2.66,-0.1076716047,-0.08907838111
2.67,-0.1092308411,-0.08726017914
2.68,-0.1107619737,-0.08541078905
2.69,-0.1122642711,-0.08353059396
2.7,-0.1137370055,-0.081619996
2.71,-0.1151794532,-0.07967941642
2.72,-0.1165908952,-0.07770929556
2.73,-0.1179706179,-0.07571009292
2.74,-0.1193179133,-0.07368228711
2.75,-0.1206320797,-0.07162637589
2.76,-0.1219124223,-0.06954287612
2.77,-0.1231582537,-0.06743232369
2.78,-0.1243688945,-0.06529527349
2.79,-0.1255436738,-0.06313229932
2.8,-0.1266819296,-0.06094399378
2.81,-0.1277830099,-0.05873096818
2.82,-0.1288462725,-0.05649385236
2.83,-0.1298710862,-0.0542332946
2.84,-0.130856831,-0.05194996141
2.85,-0.1318028987,-0.04964453734
2.86,-0.1327086937,-0.0473177248
2.87,-0.1335736331,-0.04497024383
2.88,-0.1343971477,-0.04260283184
2.89,-0.1351786823,-0.04021624337
2.9,-0.1359176963,-0.03781124981
2.91,-0.1366136642,-0.0353886391
2.92,-0.1372660761,-0.03294921543
2.93,-0.1378744384,-0.03049379889
2.94,-0.138438274,-0.02802322512
2.95,-0.1389571233,-0.02553834498
2.96,-0.1394305439,-0.02304002414
2.97,-0.1398581122,-0.02052914266
2.98,-0.1402394226,-0.01800659462
2.99,-0.1405740891,-0.01547328766
3,-0.1408617451,-0.01293014254
3.01,-0.141102044,-0.01037809266
3.02,-0.1412946597,-0.007818083598
3.03,-0.141439287,-0.005251072608
3.04,-0.141535642,-0.002678028105
3.05,-0.1415834623,-9.992914461E-05
3.06,-0.1415825079,0.002482235119
3.07,-0.141532561,0.005067465982
3.08,-0.1414334266,0.007654755763
3.09,-0.1412849327,0.01024308838
3.1,-0.1410869311,0.01283143992
3.11,-0.140839297,0.0154187793
3.12,-0.1405419297,0.01800406881
3.13,-0.1401947528,0.02058626478
3.14,-0.1397977144,0.02316431821
3.15,-0.1393507876,0.02573717541
3.16,-0.1388539701,0.02830377865
3.17,-0.138307285,0.03086306682
3.18,-0.1377107807,0.03341397613
3.19,-0.1370645311,0.03595544073
3.2,-0.1363686358,0.03848639344
3.21,-0.13562322,0.04100576645
3.22,-0.1348284349,0.04351249195
3.23,-0.1339844574,0.0460055029
3.24,-0.1330914907,0.0484837337
3.25,-0.1321497636,0.05094612089
3.26,-0.1311595312,0.05339160388
3.27,-0.1301210745,0.05581912564
3.28,-0.1290347005,0.05822763345
3.29,-0.127900742,0.06061607957
3.3,-0.1267195578,0.06298342196
3.31,-0.1254915323,0.06532862502
3.32,-0.1242170756,0.06765066028
3.33,-0.1228966231,0.06994850712
3.34,-0.1215306358,0.07222115345
3.35,-0.1201195996,0.07446759644
3.36,-0.1186640255,0.07668684319
3.37,-0.117164449,0.07887791147
3.38,-0.1156214303,0.08103983034
3.39,-0.1140355536,0.08317164089
3.4,-0.1124074271,0.08527239687
3.41,-0.1107376824,0.08734116538
3.42,-0.1090269747,0.08937702752
3.43,-0.1072759817,0.09137907904
3.44,-0.1054854041,0.09334643096
3.45,-0.1036559644,0.09527821022
3.46,-0.1017884069,0.09717356029
3.47,-0.09988349739,0.09903164176
3.48,-0.0979420224,0.100851633
3.49,-0.09596478891,0.1026327305
3.5,-0.09395262383,0.1043741499
3.51,-0.09190637352,0.106075126
3.52,-0.08982690323,0.1077349137
3.53,-0.08771509666,0.1093527884
3.54,-0.08557185531,0.1109280464
3.55,-0.08339809799,0.1124600054
3.56,-0.08119476023,0.1139480052
3.57,-0.07896279366,0.1153914081
3.58,-0.07670316546,0.1167895989
3.59,-0.07441685768,0.1181419859
3.6,-0.07210486667,0.119448001
3.61,-0.06976820241,0.1207071002
3.62,-0.06740788786,0.1219187639
3.63,-0.06502495831,0.1230824972
3.64,-0.06262046069,0.1241978303
3.65,-0.0601954529,0.1252643187
3.66,-0.05775100312,0.1262815438
3.67,-0.05528818911,0.1272491128
3.68,-0.0528080975,0.1281666589
3.69,-0.0503118231,0.1290338419
3.7,-0.04780046814,0.1298503482
3.71,-0.04527514158,0.1306158909
3.72,-0.0427369584,0.13133021
3.73,-0.0401870388,0.1319930727
3.74,-0.03762650753,0.1326042731
3.75,-0.03505649315,0.1331636329
3.76,-0.03247812723,0.1336710008
3.77,-0.02989254369,0.1341262532
3.78,-0.02730087801,0.1345292936
3.79,-0.0247042665,0.1348800532
3.8,-0.02210384556,0.1351784903
3.81,-0.01950075096,0.1354245907
3.82,-0.0168961171,0.1356183675
3.83,-0.01429107625,0.1357598609
3.84,-0.01168675786,0.1358491382
3.85,-0.009084287829,0.1358862937
3.86,-0.006484787781,0.1358714486
3.87,-0.003889374352,0.1358047505
3.88,-0.001299158493,0.1356863736
3.89,0.00128475523,0.1355165183
3.9,0.003861269325,0.135295411
3.91,0.006429294056,0.135023304
3.92,0.008987748109,0.1347004747
3.93,0.01153555926,0.1343272261
3.94,0.01407166503,0.1339038859
3.95,0.0165950133,0.1334308062
3.96,0.01910456297,0.1329083636
3.97,0.02159928458,0.1323369583
3.98,0.02407816086,0.1317170141
3.99,0.0265401874,0.1310489778
4,0.02898437314,0.1303333187
4.01,0.03140974103,0.1295705287
4.02,0.03381532848,0.1287611211
4.03,0.03620018796,0.1279056306
4.04,0.03856338749,0.1270046128
4.05,0.04090401117,0.1260586436
4.06,0.04322115962,0.1250683188
4.07,0.04551395048,0.1240342534
4.08,0.04778151885,0.1229570812
4.09,0.05002301773,0.1218374545
4.1,0.05223761845,0.120676043
4.11,0.05442451103,0.1194735338
4.12,0.05658290459,0.1182306304
4.13,0.05871202772,0.1169480523
4.14,0.06081112878,0.1156265347
4.15,0.06287947629,0.1142668273
4.16,0.06491635916,0.1128696941
4.17,0.06692108702,0.1114359129
4.18,0.0688929905,0.1099662743
4.19,0.07083142144,0.1084615813
4.2,0.07273575312,0.1069226488
4.21,0.07460538049,0.1053503026
4.22,0.07643972036,0.1037453793
4.23,0.07823821154,0.1021087251
4.24,0.08000031499,0.1004411957
4.25,0.08172551399,0.09874365507
4.26,0.0834133142,0.09701697544
4.27,0.08506324376,0.09526203623
4.28,0.08667485339,0.09347972358
4.29,0.08824771641,0.09167092968
4.3,0.08978142877,0.08983655216
4.31,0.09127560907,0.08797749343
4.32,0.09272989856,0.08609466008
4.33,0.09414396111,0.08418896226
4.34,0.09551748313,0.08226131302
4.35,0.09685017359,0.08031262774
4.36,0.09814176383,0.07834382352
4.37,0.09939200757,0.07635581856
4.38,0.1006006807,0.07434953157
4.39,0.1017675812,0.07232588118
4.4,0.102892529,0.07028578538
4.41,0.1039753658,0.06823016092
4.42,0.1050159548,0.06615992277
4.43,0.1060141806,0.06407598356
4.44,0.1069699491,0.06197925304
4.45,0.1078831869,0.05987063753
4.46,0.1087538415,0.05775103941
4.47,0.1095818807,0.05562135662
4.48,0.1103672926,0.05348248214
4.49,0.1111100849,0.05133530351
4.5,0.1118102852,0.04918070236
4.51,0.1124679403,0.04701955393
4.52,0.1130831157,0.04485272663
4.53,0.1136558958,0.04268108163
4.54,0.1141863831,0.04050547237
4.55,0.1146746981,0.03832674423
4.56,0.1151209789,0.03614573406
4.57,0.1155253806,0.03396326985
4.58,0.1158880752,0.03178017036
4.59,0.1162092512,0.02959724473
4.6,0.116489113,0.02741529219
4.61,0.1167278806,0.0252351017
4.62,0.1169257892,0.02305745167
4.63,0.1170830889,0.02088310964
4.64,0.117200044,0.01871283206
4.65,0.1172769328,0.01654736396
4.66,0.1173140472,0.01438743875
4.67,0.1173116919,0.01223377798
4.68,0.1172701846,0.01008709111
4.69,0.1171898548,0.007948075352
4.7,0.1170710441,0.005817415446
4.71,0.1169141051,0.003695783518
4.72,0.1167194016,0.001583838919
4.73,0.1164873075,-0.0005177719061
4.74,0.1162182068,-0.002608415542
4.75,0.1159124931,-0.004687471706
4.76,0.115570569,-0.006754333339
4.77,0.1151928458,-0.00880840668
4.78,0.1147797429,-0.01084911133
4.79,0.1143316877,-0.01287588028
4.8,0.1138491147,-0.01488815998
4.81,0.1133324655,-0.01688541032
4.82,0.1127821881,-0.01886710464
4.83,0.1121987366,-0.02083272975
4.84,0.1115825707,-0.02278178585
4.85,0.1109341555,-0.02471378656
4.86,0.1102539609,-0.02662825881
4.87,0.1095424611,-0.02852474282
4.88,0.1088001345,-0.030402792
4.89,0.1080274632,-0.0322619729
4.9,0.1072249327,-0.03410186506
4.91,0.1063930311,-0.03592206094
4.92,0.1055322495,-0.03772216579
4.93,0.104643081,-0.03950179753
4.94,0.1037260206,-0.0412605866
4.95,0.1027815649,-0.04299817579
4.96,0.1018102119,-0.04471422015
4.97,0.1008124602,-0.04640838673
4.98,0.09978880934,-0.0480803545
4.99,0.09873975905,-0.0497298141
5,0.09766580915,-0.05135646766
5.01,0.09656745922,-0.05296002864
5.02,0.09544520838,-0.0545402216
5.03,0.09429955504,-0.05609678197
5.04,0.09313099662,-0.05762945589
5.05,0.09194002935,-0.05913799992
5.06,0.09072714808,-0.06062218089
5.07,0.08949284601,-0.06208177562
5.08,0.08823761457,-0.06351657068
5.09,0.08696194317,-0.06492636223
5.1,0.08566631909,-0.06631095566
5.11,0.08435122726,-0.06767016548
5.12,0.08301715018,-0.06900381497
5.13,0.08166456772,-0.07031173599
5.14,0.08029395702,-0.07159376875
5.15,0.07890579241,-0.07284976151
5.16,0.07750054525,-0.07407957036
5.17,0.07607868387,-0.07528305901
5.18,0.0746406735,-0.07646009849
5.19,0.07318697616,-0.07761056693
5.2,0.07171805064,-0.07873434932
5.21,0.07023435246,-0.0798313373
5.22,0.06873633377,-0.08090142884
5.23,0.0672244434,-0.0819445281
5.24,0.0656991268,-0.08296054515
5.25,0.06416082603,-0.08394939574
5.26,0.06260997977,-0.08491100109
5.27,0.06104702336,-0.08584528768
5.28,0.05947238877,-0.08675218702
5.29,0.05788650465,-0.08763163545
5.3,0.05628979641,-0.08848357392
5.31,0.0546826862,-0.08930794782
5.32,0.053065593,-0.09010470678
5.33,0.05143893267,-0.09087380446
5.34,0.04980311804,-0.09161519841
5.35,0.04815855898,-0.09232884985
5.36,0.04650566245,-0.09301472356
5.37,0.04484483263,-0.09367278769
5.38,0.04317647102,-0.0943030136
5.39,0.0415009765,-0.09490537576
5.4,0.03981874546,-0.09547985157
5.41,0.03813017193,-0.09602642125
5.42,0.03643564767,-0.09654506775
5.43,0.03473556228,-0.09703577658
5.44,0.03303030337,-0.09749853577
5.45,0.03132025665,-0.09793333574
5.46,0.02960580606,-0.09834016924
5.47,0.02788733393,-0.09871903125
5.48,0.02616522109,-0.09906991894
5.49,0.024439847,-0.09939283158
5.5,0.02271158994,-0.09968777053
5.51,0.02098082707,-0.09995473918
5.52,0.01924793464,-0.1001937429
5.53,0.0175132881,-0.1004047891
5.54,0.01577726223,-0.1005878871
5.55,0.01404023131,-0.1007430482
5.56,0.01230256922,-0.1008702857
5.57,0.01056464961,-0.1009696148
5.58,0.00882684602,-0.1010410529
5.59,0.007089532011,-0.1010846191
5.6,0.005353081303,-0.101100335
5.61,0.003617867899,-0.101088224
5.62,0.001884266212,-0.1010483117
5.63,0.0001526511796,-0.1009806263
5.64,-0.001576601611,-0.1008851978
5.65,-0.003303115815,-0.1007620591
5.66,-0.00502651422,-0.1006112451
5.67,-0.006746418644,-0.1004327936
5.68,-0.008462449836,-0.1002267451
5.69,-0.01017422738,-0.09999314271
5.7,-0.01188136962,-0.09973203249
5.71,-0.01358349357,-0.09944346359
5.72,-0.01528021483,-0.09912748824
5.73,-0.01697114754,-0.09878416199
5.74,-0.0186559043,-0.09841354378
5.75,-0.02033409613,-0.09801569613
5.76,-0.02200533241,-0.09759068524
5.77,-0.02366922085,-0.0971385812
5.78,-0.02532536746,-0.09665945808
5.79,-0.02697337651,-0.09615339414
5.8,-0.02861285056,-0.09562047197
5.81,-0.03024339037,-0.09506077866
5.82,-0.03186459499,-0.09447440597
5.83,-0.0334760617,-0.0938614505
5.84,-0.03507738609,-0.09322201386
5.85,-0.03666816202,-0.09255620286
5.86,-0.03824798172,-0.09186412964
5.87,-0.03981643577,-0.09114591191
5.88,-0.04137311321,-0.09040167309
5.89,-0.04291760157,-0.08963154249
5.9,-0.04444948696,-0.0888356555
5.91,-0.04596835411,-0.08801415373
5.92,-0.04747378653,-0.08716718526
5.93,-0.04896536651,-0.08629490472
5.94,-0.05044267534,-0.08539747355
5.95,-0.05190529333,-0.08447506011
5.96,-0.05335279997,-0.08352783987
5.97,-0.05478477408,-0.08255599557
5.98,-0.05620079393,-0.08155971742
5.99,-0.05760043738,-0.08053920317
6,-0.05898328208,-0.07949465837
