"Freq [GHz]","re(S(Tx_p1,Tx_p1)) []","im(S(Tx_p1,Tx_p1)) []"
1,0.06184581249,-0.04271555283
1.01,0.06123864603,-0.04343529463
1.02,0.06061630332,-0.04417600831
1.03,0.05997748374,-0.04493608468
1.04,0.05932097336,-0.04571392169
1.05,0.05864564226,-0.04650792477
1.06,0.057950442,-0.04731650734
1.07,0.05723440319,-0.04813809118
1.08,0.0564966333,-0.048971107
1.09,0.05573631445,-0.04981399493
1.1,0.05495270143,-0.05066520507
1.11,0.05414511975,-0.05152319813
1.12,0.05331296378,-0.052386446
1.13,0.05245569504,-0.05325343236
1.14,0.05157284045,-0.05412265343
1.15,0.05066399078,-0.05499261852
1.16,0.049728799,-0.05586185082
1.17,0.04876697888,-0.05672888804
1.18,0.04777830343,-0.05759228314
1.19,0.04676260357,-0.05845060507
1.2,0.04571976669,-0.05930243947
1.21,0.04464973534,-0.06014638942
1.22,0.04355250591,-0.0609810762
1.23,0.04242812736,-0.06180513999
1.24,0.04127669993,-0.06261724067
1.25,0.04009837392,-0.06341605851
1.26,0.03889334848,-0.06420029495
1.27,0.03766187036,-0.06496867335
1.28,0.03640423278,-0.06571993966
1.29,0.03512077418,-0.06645286325
1.3,0.0338118771,-0.06716623754
1.31,0.03247796697,-0.06785888077
1.32,0.031119511,-0.0685296367
1.33,0.02973701699,-0.06917737528
1.34,0.02833103217,-0.06980099337
1.35,0.02690214211,-0.07039941538
1.36,0.02545096949,-0.07097159395
1.37,0.02397817302,-0.07151651059
1.38,0.02248444625,-0.0720331763
1.39,0.02097051646,-0.0725206322
1.4,0.01943714347,-0.07297795008
1.41,0.01788511854,-0.07340423305
1.42,0.01631526317,-0.07379861603
1.43,0.01472842795,-0.07416026634
1.44,0.01312549144,-0.07448838419
1.45,0.01150735897,-0.07478220316
1.46,0.009874961504,-0.07504099074
1.47,0.008229254457,-0.07526404871
1.48,0.006571216533,-0.07545071362
1.49,0.004901848553,-0.07560035719
1.5,0.003222172286,-0.07571238667
1.51,0.00153322927,-0.07578624522
1.52,-0.0001639203675,-0.07582141225
1.53,-0.001868199082,-0.07581740371
1.54,-0.003578513098,-0.07577377237
1.55,-0.005293753586,-0.07569010811
1.56,-0.007012797847,-0.07556603811
1.57,-0.008734510492,-0.07540122707
1.58,-0.01045774463,-0.07519537741
1.59,-0.01218134303,-0.07494822937
1.6,-0.01390413932,-0.07465956117
1.61,-0.01562495917,-0.07432918909
1.62,-0.01734262143,-0.07395696753
1.63,-0.01905593935,-0.07354278905
1.64,-0.02076372169,-0.0730865844
1.65,-0.02246477397,-0.07258832244
1.66,-0.02415789952,-0.07204801017
1.67,-0.02584190072,-0.07146569261
1.68,-0.02751558013,-0.07084145267
1.69,-0.02917774158,-0.07017541108
1.7,-0.03082719138,-0.06946772617
1.71,-0.03246273939,-0.0687185937
1.72,-0.03408320014,-0.06792824666
1.73,-0.03568739397,-0.06709695498
1.74,-0.03727414811,-0.06622502531
1.75,-0.03884229774,-0.06531280064
1.76,-0.04039068711,-0.06436066006
1.77,-0.04191817057,-0.06336901832
1.78,-0.04342361362,-0.0623383255
1.79,-0.04490589398,-0.06126906656
1.8,-0.04636390255,-0.06016176092
1.81,-0.0477965445,-0.059016962
1.82,-0.04920274017,-0.05783525671
1.83,-0.05058142613,-0.05661726495
1.84,-0.05193155607,-0.05536363905
1.85,-0.05325210178,-0.05407506321
1.86,-0.05454205407,-0.05275225293
1.87,-0.05580042366,-0.05139595436
1.88,-0.05702624208,-0.05000694366
1.89,-0.05821856251,-0.04858602639
1.9,-0.05937646065,-0.04713403678
1.91,-0.06049903554,-0.04565183701
1.92,-0.06158541037,-0.04414031655
1.93,-0.0626347332,-0.04260039133
1.94,-0.06364617781,-0.04103300304
1.95,-0.06461894437,-0.0394391183
1.96,-0.06555226016,-0.03781972788
1.97,-0.06644538027,-0.03617584585
1.98,-0.06729758825,-0.03450850878
1.99,-0.06810819674,-0.03281877482
2,-0.06887654812,-0.03110772288
2.01,-0.06960201503,-0.02937645172
2.02,-0.07028400097,-0.02762607902
2.03,-0.07092194084,-0.02585774052
2.04,-0.07151530141,-0.02407258901
2.05,-0.07206358183,-0.02227179347
2.06,-0.07256631404,-0.02045653802
2.07,-0.07302306323,-0.01862802105
2.08,-0.07343342823,-0.01678745416
2.09,-0.07379704185,-0.0149360612
2.1,-0.07411357121,-0.01307507732
2.11,-0.07438271809,-0.01120574786
2.12,-0.07460421918,-0.00932932747
2.13,-0.07477784632,-0.007447078971
2.14,-0.07490340674,-0.005560272412
2.15,-0.07498074322,-0.003670184008
2.16,-0.07500973429,-0.001778095116
2.17,-0.07499029433,0.0001147087998
2.18,-0.07492237367,0.002006939206
2.19,-0.0748059587,0.003897305536
2.2,-0.07464107184,0.005784516233
2.21,-0.07442777162,0.007667279782
2.22,-0.07416615262,0.009544305754
2.23,-0.07385634544,0.01141430584
2.24,-0.07349851662,0.01327599487
2.25,-0.07309286853,0.01512809187
2.26,-0.07263963922,0.01696932106
2.27,-0.07213910229,0.01879841288
2.28,-0.07159156667,0.02061410502
2.29,-0.07099737638,0.0224151434
2.3,-0.07035691034,0.02420028318
2.31,-0.069670582,0.02596828977
2.32,-0.06893883913,0.02771793978
2.33,-0.06816216342,0.029448022
2.34,-0.06734107012,0.03115733837
2.35,-0.0664761077,0.03284470493
2.36,-0.06556785737,0.03450895273
2.37,-0.06461693268,0.0361489288
2.38,-0.06362397905,0.03776349701
2.39,-0.06258967325,0.03935153902
2.4,-0.06151472291,0.04091195508
2.41,-0.06039986595,0.042443665
2.42,-0.05924587005,0.04394560891
2.43,-0.05805353203,0.04541674812
2.44,-0.05682367723,0.04685606595
2.45,-0.05555715891,0.04826256853
2.46,-0.05425485756,0.04963528552
2.47,-0.05291768023,0.05097327092
2.48,-0.05154655984,0.05227560381
2.49,-0.05014245445,0.05354138902
2.5,-0.0487063465,0.05476975787
2.51,-0.04723924212,0.05595986881
2.52,-0.04574217025,0.05711090809
2.53,-0.04421618195,0.05822209037
2.54,-0.04266234951,0.05929265937
2.55,-0.04108176566,0.06032188837
2.56,-0.03947554272,0.06130908085
2.57,-0.03784481175,0.06225357096
2.58,-0.03619072164,0.06315472406
2.59,-0.0345144383,0.06401193719
2.6,-0.03281714365,0.06482463955
2.61,-0.03110003483,0.06559229287
2.62,-0.02936432319,0.06631439189
2.63,-0.0276112334,0.06699046468
2.64,-0.02584200248,0.06762007301
2.65,-0.02405787889,0.06820281269
2.66,-0.02226012153,0.06873831382
2.67,-0.0204499988,0.06922624113
2.68,-0.0186287876,0.06966629416
2.69,-0.01679777238,0.07005820747
2.7,-0.01495824415,0.07040175089
2.71,-0.01311149948,0.07069672961
2.72,-0.01125883952,0.07094298434
2.73,-0.009401568985,0.07114039141
2.74,-0.007540995197,0.07128886284
2.75,-0.005678427053,0.07138834638
2.76,-0.003815174049,0.07143882553
2.77,-0.001952545273,0.07144031954
2.78,-9.184841524E-05,0.07139288335
2.79,0.001765611226,0.07129660753
2.8,0.003618531732,0.07115161818
2.81,0.005465615554,0.07095807684
2.82,0.00730557049,0.07071618028
2.83,0.009137110662,0.07042616036
2.84,0.01095895749,0.07008828385
2.85,0.01276984064,0.06970285211
2.86,0.014568499,0.06927020093
2.87,0.01635368162,0.06879070017
2.88,0.01812414864,0.0682647535
2.89,0.01987867222,0.067692798
2.9,0.02161603748,0.06707530387
2.91,0.02333504337,0.06641277399
2.92,0.02503450359,0.0657057435
2.93,0.02671324746,0.0649547794
2.94,0.0283701208,0.06416048005
2.95,0.03000398676,0.06332347471
2.96,0.03161372669,0.062444423
2.97,0.03319824094,0.0615240144
2.98,0.03475644967,0.06056296765
2.99,0.03628729366,0.05956203021
3,0.03778973506,0.05852197766
3.01,0.03926275818,0.05744361303
3.02,0.04070537016,0.05632776623
3.03,0.04211660179,0.05517529334
3.04,0.0434955081,0.05398707591
3.05,0.04484116915,0.05276402035
3.06,0.04615269058,0.0515070571
3.07,0.04742920433,0.05021713998
3.08,0.04866986924,0.0488952454
3.09,0.04987387159,0.04754237158
3.1,0.05104042576,0.0461595378
3.11,0.05216877471,0.04474778359
3.12,0.05325819054,0.04330816789
3.13,0.05430797499,0.04184176825
3.14,0.05531745992,0.04034967998
3.15,0.05628600774,0.0388330153
3.16,0.05721301189,0.03729290248
3.17,0.05809789719,0.03573048494
3.18,0.05894012027,0.03414692039
3.19,0.05973916991,0.03254337994
3.2,0.06049456736,0.03092104717
3.21,0.06120586663,0.02928111723
3.22,0.06187265482,0.02762479592
3.23,0.06249455232,0.02595329877
3.24,0.06307121308,0.02426785011
3.25,0.06360232478,0.02256968212
3.26,0.06408760901,0.02086003389
3.27,0.06452682141,0.01914015048
3.28,0.06491975182,0.017411282
3.29,0.06526622434,0.01567468259
3.3,0.06556609742,0.01393160956
3.31,0.0658192639,0.01218332235
3.32,0.06602565099,0.01043108165
3.33,0.0661852203,0.008676148406
3.34,0.06629796779,0.006919782889
3.35,0.06636392369,0.005163243745
3.36,0.06638315242,0.003407787055
3.37,0.06635575246,0.001654665392
3.38,0.06628185623,-9.48731108E-05
3.39,0.0661616299,-0.00183958569
3.4,0.06599527318,-0.003578235874
3.41,0.06578301916,-0.005309594399
3.42,0.06552513397,-0.007032440119
3.43,0.0652219166,-0.008745560903
3.44,0.06487369855,-0.01044775453
3.45,0.06448084352,-0.01213782957
3.46,0.06404374709,-0.01381460625
3.47,0.0635628363,-0.01547691732
3.48,0.06303856932,-0.01712360891
3.49,0.06247143498,-0.01875354135
3.5,0.06186195239,-0.02036558999
3.51,0.0612106704,-0.02195864604
3.52,0.06051816721,-0.02353161734
3.53,0.05978504981,-0.02508342917
3.54,0.05901195347,-0.02661302495
3.55,0.05819954117,-0.02811936708
3.56,0.0573485031,-0.02960143763
3.57,0.05645955602,-0.03105823902
3.58,0.05553344266,-0.0324887948
3.59,0.05457093113,-0.03389215028
3.6,0.05357281425,-0.03526737319
3.61,0.05253990891,-0.03661355435
3.62,0.05147305539,-0.03792980828
3.63,0.05037311667,-0.03921527383
3.64,0.04924097771,-0.04046911472
3.65,0.04807754478,-0.04169052014
3.66,0.04688374464,-0.04287870529
3.67,0.04566052387,-0.04403291188
3.68,0.04440884806,-0.04515240866
3.69,0.04312970106,-0.04623649189
3.7,0.04182408417,-0.04728448578
3.71,0.04049301536,-0.04829574295
3.72,0.03913752845,-0.0492696448
3.73,0.03775867229,-0.05020560195
3.74,0.03635750995,-0.05110305457
3.75,0.03493511784,-0.05196147271
3.76,0.03349258491,-0.05278035666
3.77,0.03203101177,-0.0535592372
3.78,0.03055150984,-0.05429767588
3.79,0.02905520049,-0.05499526527
3.8,0.02754321415,-0.05565162918
3.81,0.02601668945,-0.05626642286
3.82,0.02447677234,-0.05683933313
3.83,0.02292461519,-0.05737007858
3.84,0.02136137594,-0.05785840965
3.85,0.01978821718,-0.05830410876
3.86,0.01820630527,-0.05870699035
3.87,0.01661680948,-0.05906690092
3.88,0.01502090105,-0.05938371909
3.89,0.01341975235,-0.05965735557
3.9,0.01181453598,-0.05988775312
3.91,0.01020642387,-0.06007488654
3.92,0.008596586432,-0.06021876253
3.93,0.006986191654,-0.06031941965
3.94,0.005376404251,-0.06037692815
3.95,0.003768384791,-0.06039138986
3.96,0.002163288831,-0.06036293796
3.97,0.0005622660703,-0.06029173684
3.98,-0.001033540503,-0.06017798186
3.99,-0.002622995444,-0.06002189908
4,-0.00420497169,-0.05982374502
4.01,-0.005778351372,-0.05958380639
4.02,-0.007342026635,-0.05930239973
4.03,-0.008894900436,-0.05897987111
4.04,-0.01043588734,-0.05861659576
4.05,-0.01196391428,-0.05821297771
4.06,-0.01347792136,-0.05776944937
4.07,-0.01497686258,-0.05728647114
4.08,-0.01645970658,-0.05676453095
4.09,-0.01792543739,-0.0562041438
4.1,-0.01937305513,-0.0556058513
4.11,-0.02080157669,-0.05497022117
4.12,-0.02221003645,-0.05429784672
4.13,-0.02359748693,-0.05358934632
4.14,-0.02496299945,-0.05284536284
4.15,-0.02630566474,-0.05206656309
4.16,-0.02762459361,-0.05125363727
4.17,-0.02891891749,-0.05040729829
4.18,-0.03018778907,-0.04952828126
4.19,-0.03143038283,-0.04861734276
4.2,-0.03264589558,-0.04767526027
4.21,-0.03383354703,-0.04670283145
4.22,-0.03499258026,-0.04570087354
4.23,-0.03612226221,-0.04467022261
4.24,-0.03722188418,-0.0436117329
4.25,-0.03829076223,-0.04252627609
4.26,-0.03932823767,-0.04141474062
4.27,-0.0403336774,-0.0402780309
4.28,-0.04130647433,-0.03911706664
4.29,-0.04224604776,-0.03793278204
4.3,-0.04315184368,-0.03672612507
4.31,-0.04402333513,-0.0354980567
4.32,-0.04486002248,-0.03424955011
4.33,-0.0456614337,-0.03298158996
4.34,-0.04642712463,-0.03169517152
4.35,-0.04715667921,-0.03039129998
4.36,-0.04784970968,-0.02907098957
4.37,-0.04850585678,-0.02773526282
4.38,-0.04912478991,-0.02638514972
4.39,-0.04970620726,-0.02502168694
4.4,-0.05024983596,-0.02364591701
4.41,-0.05075543212,-0.02225888752
4.42,-0.05122278097,-0.0208616503
4.43,-0.05165169688,-0.0194552606
4.44,-0.05204202338,-0.01804077632
4.45,-0.05239363318,-0.01661925717
4.46,-0.05270642815,-0.01519176386
4.47,-0.05298033928,-0.0137593573
4.48,-0.05321532663,-0.01232309783
4.49,-0.05341137923,-0.01088404437
4.5,-0.05356851497,-0.009443253652
4.51,-0.0536867805,-0.008001779447
4.52,-0.05376625108,-0.006560671747
4.53,-0.05380703036,-0.005120976008
4.54,-0.05380925025,-0.003683732374
4.55,-0.05377307068,-0.00224997491
4.56,-0.05369867937,-0.0008207308466
4.57,-0.05358629157,0.000602980167
4.58,-0.0534361498,0.002020146806
4.59,-0.05324852354,0.003429766799
4.6,-0.05302370893,0.004830847647
4.61,-0.05276202844,0.00622240734
4.62,-0.05246383049,0.007603475047
4.63,-0.05212948914,0.008973091813
4.64,-0.05175940361,0.01033031123
4.65,-0.05135399798,0.0116742001
4.66,-0.05091372067,0.01300383909
4.67,-0.05043904406,0.01431832337
4.68,-0.04993046401,0.01561676322
4.69,-0.04938849941,0.01689828467
4.7,-0.04881369163,0.01816203008
4.71,-0.04820660409,0.0194071587
4.72,-0.0475678217,0.02063284727
4.73,-0.04689795032,0.02183829055
4.74,-0.04619761622,0.02302270183
4.75,-0.04546746554,0.02418531349
4.76,-0.0447081637,0.02532537749
4.77,-0.04392039478,0.02644216582
4.78,-0.04310486097,0.02753497098
4.79,-0.04226228194,0.02860310646
4.8,-0.04139339423,0.0296459071
4.81,-0.04049895058,0.03066272956
4.82,-0.03957971933,0.03165295271
4.83,-0.03863648376,0.03261597795
4.84,-0.03767004142,0.0335512296
4.85,-0.03668120346,0.03445815526
4.86,-0.03567079398,0.03533622607
4.87,-0.0346396493,0.03618493704
4.88,-0.03358861732,0.03700380731
4.89,-0.03251855682,0.03779238042
4.9,-0.0314303367,0.03855022454
4.91,-0.03032483536,0.03927693269
4.92,-0.02920293995,0.03997212291
4.93,-0.02806554562,0.04063543847
4.94,-0.02691355488,0.04126654801
4.95,-0.02574787684,0.04186514567
4.96,-0.02456942647,0.04243095122
4.97,-0.02337912392,0.04296371012
4.98,-0.02217789378,0.04346319364
4.99,-0.02096666434,0.04392919888
5,-0.01974636692,0.04436154882
5.01,-0.01851793507,0.04476009232
5.02,-0.01728230394,0.04512470413
5.03,-0.01604040947,0.04545528483
5.04,-0.01479318775,0.04575176082
5.05,-0.01354157429,0.04601408426
5.06,-0.01228650328,0.04624223292
5.07,-0.01102890691,0.04643621014
5.08,-0.009769714697,0.04659604468
5.09,-0.008509852734,0.04672179058
5.1,-0.007250243049,0.04681352698
5.11,-0.005991802906,0.04687135797
5.12,-0.004735444135,0.04689541235
5.13,-0.003482072461,0.04688584345
5.14,-0.00223258685,0.04684282887
5.15,-0.0009878788543,0.04676657022
5.16,0.0002511680257,0.04665729289
5.17,0.001483678976,0.0465152457
5.18,0.002708788489,0.04634070063
5.19,0.00392564098,0.04613395252
5.2,0.005133391385,0.04589531867
5.21,0.006331205752,0.04562513854
5.22,0.007518261822,0.04532377336
5.23,0.008693749593,0.04499160574
5.24,0.009856871877,0.04462903927
5.25,0.01100684484,0.04423649814
5.26,0.01214289854,0.04381442667
5.27,0.01326427743,0.04336328886
5.28,0.01437024086,0.042883568
5.29,0.01546006357,0.04237576613
5.3,0.01653303618,0.04184040362
5.31,0.01758846561,0.04127801864
5.32,0.01862567557,0.04068916665
5.33,0.01964400694,0.04007441993
5.34,0.02064281822,0.03943436704
5.35,0.02162148591,0.03876961224
5.36,0.02257940489,0.03808077501
5.37,0.02351598882,0.03736848947
5.38,0.02443067041,0.03663340383
5.39,0.02532290185,0.03587617977
5.4,0.02619215503,0.03509749195
5.41,0.02703792191,0.03429802736
5.42,0.02785971476,0.03347848474
5.43,0.02865706646,0.03263957402
5.44,0.02942953069,0.03178201565
5.45,0.0301766822,0.03090654008
5.46,0.03089811704,0.03001388705
5.47,0.03159345268,0.02910480508
5.48,0.03226232826,0.02818005074
5.49,0.03290440472,0.02724038813
5.5,0.03351936491,0.02628658818
5.51,0.03410691376,0.02531942806
5.52,0.03466677836,0.02433969054
5.53,0.03519870805,0.02334816336
5.54,0.03570247447,0.0223456386
5.55,0.03617787165,0.02133291206
5.56,0.03662471602,0.02031078261
5.57,0.03704284639,0.01928005159
5.58,0.03743212403,0.01824152215
5.59,0.03779243256,0.01719599865
5.6,0.03812367799,0.01614428603
5.61,0.0384257886,0.01508718917
5.62,0.03869871492,0.01402551232
5.63,0.03894242959,0.01296005844
5.64,0.03915692732,0.01189162862
5.65,0.0393422247,0.01082102146
5.66,0.0394983601,0.009749032485
5.67,0.03962539351,0.008676453556
5.68,0.03972340636,0.007604072269
5.69,0.03979250134,0.006532671383
5.7,0.03983280219,0.005463028249
5.71,0.03984445348,0.004395914247
5.72,0.0398276204,0.003332094222
5.73,0.03978248849,0.002272325943
5.74,0.03970926337,0.001217359558
5.75,0.03960817048,0.0001679370657
5.76,0.03947945479,-0.0008752082059
5.77,0.03932338048,-0.001911352113
5.78,0.03914023065,-0.002939780196
5.79,0.03893030696,-0.00395978817
5.8,0.03869392928,-0.004970682406
5.81,0.03843143537,-0.005971780399
5.82,0.0381431805,-0.006962411228
5.83,0.03782953704,-0.007941915996
5.84,0.03749089413,-0.008909648269
5.85,0.03712765719,-0.009864974496
5.86,0.0367402476,-0.01080727441
5.87,0.03632910224,-0.01173594145
5.88,0.03589467301,-0.0126503831
5.89,0.03543742649,-0.01355002129
5.9,0.03495784339,-0.01443429275
5.91,0.03445641817,-0.01530264935
5.92,0.03393365851,-0.0161545584
5.93,0.03339008488,-0.01698950302
5.94,0.03282623004,-0.01780698238
5.95,0.03224263856,-0.01860651203
5.96,0.03163986632,-0.01938762413
5.97,0.03101847999,-0.02014986776
5.98,0.03037905657,-0.02089280909
5.99,0.02972218284,-0.02161603167
6,0.02904845487,-0.0223191366
