"Freq [GHz]","re(S(Tx_p1,Tx_p1)) []","im(S(Tx_p1,Tx_p1)) []"
1,0.1457125416,-0.08840622617
1.01,0.1442669205,-0.08917177888
1.02,0.1428269224,-0.08999251797
1.03,0.1413890799,-0.09086555984
1.04,0.1399501231,-0.09178804405
1.05,0.1385069714,-0.09275713334
1.06,0.1370567265,-0.09377001376
1.07,0.1355966652,-0.09482389496
1.08,0.1341242336,-0.09591601042
1.09,0.13263704,-0.0970436179
1.1,0.1311328502,-0.09820399982
1.11,0.1296095812,-0.09939446384
1.12,0.1280652964,-0.1006123433
1.13,0.1264982008,-0.1018549981
1.14,0.1249066361,-0.1031198149
1.15,0.1232890761,-0.1044042083
1.16,0.1216441229,-0.1057056211
1.17,0.1199705026,-0.1070215256
1.18,0.1182670612,-0.1083494239
1.19,0.1165327614,-0.1096868488
1.2,0.1147666783,-0.111031365
1.21,0.1129679964,-0.1123805693
1.22,0.1111360064,-0.1137320921
1.23,0.1092701015,-0.1150835979
1.24,0.1073697746,-0.1164327861
1.25,0.1054346151,-0.1177773922
1.26,0.103464306,-0.1191151883
1.27,0.1014586213,-0.1204439844
1.28,0.09941742276,-0.1217616286
1.29,0.09734065737,-0.1230660089
1.3,0.09522835478,-0.1243550531
1.31,0.09308062459,-0.1256267302
1.32,0.09089765378,-0.1268790512
1.33,0.08867970426,-0.1281100696
1.34,0.08642711037,-0.1293178825
1.35,0.08414027647,-0.1305006311
1.36,0.08181967453,-0.1316565019
1.37,0.07946584184,-0.1327837268
1.38,0.07707937863,-0.1338805843
1.39,0.07466094581,-0.1349454001
1.4,0.07221126273,-0.1359765474
1.41,0.0697311049,-0.1369724481
1.42,0.06722130186,-0.137931573
1.43,0.06468273492,-0.1388524422
1.44,0.06211633507,-0.1397336264
1.45,0.05952308077,-0.1405737464
1.46,0.05690399592,-0.1413714743
1.47,0.05426014769,-0.1421255338
1.48,0.05159264448,-0.1428347004
1.49,0.04890263386,-0.1434978018
1.5,0.04619130053,-0.1441137185
1.51,0.0434598643,-0.1446813837
1.52,0.04070957809,-0.1451997839
1.53,0.03794172592,-0.1456679591
1.54,0.035157621,-0.1460850026
1.55,0.03235860375,-0.1464500616
1.56,0.02954603985,-0.1467623371
1.57,0.02672131839,-0.1470210841
1.58,0.02388584992,-0.1472256113
1.59,0.02104106462,-0.1473752815
1.6,0.01818841043,-0.1474695113
1.61,0.01532935123,-0.1475077712
1.62,0.01246536501,-0.1474895853
1.63,0.009597942115,-0.1474145311
1.64,0.006728583451,-0.1472822397
1.65,0.003858798747,-0.147092395
1.66,0.0009901048356,-0.1468447338
1.67,-0.001875976046,-0.1465390454
1.68,-0.004737917932,-0.1461751712
1.69,-0.007594192774,-0.1457530044
1.7,-0.01044327207,-0.1452724895
1.71,-0.01328362846,-0.1447336218
1.72,-0.01611373731,-0.144136447
1.73,-0.01893207821,-0.1434810608
1.74,-0.02173713657,-0.1427676078
1.75,-0.02452740505,-0.1419962817
1.76,-0.027301385,-0.1411673239
1.77,-0.03005758798,-0.1402810234
1.78,-0.03279453706,-0.1393377158
1.79,-0.03551076824,-0.1383377826
1.8,-0.03820483178,-0.1372816506
1.81,-0.0408752935,-0.1361697909
1.82,-0.04352073604,-0.1350027183
1.83,-0.04613976013,-0.1337809903
1.84,-0.04873098575,-0.1325052064
1.85,-0.05129305334,-0.1311760068
1.86,-0.05382462492,-0.1297940721
1.87,-0.05632438518,-0.1283601218
1.88,-0.05879104255,-0.1268749137
1.89,-0.06122333023,-0.1253392427
1.9,-0.06362000721,-0.1237539398
1.91,-0.06597985916,-0.1221198713
1.92,-0.06830169941,-0.1204379374
1.93,-0.07058436979,-0.1187090713
1.94,-0.07282674149,-0.1169342384
1.95,-0.07502771587,-0.1151144346
1.96,-0.07718622521,-0.1132506858
1.97,-0.07930123344,-0.1113440462
1.98,-0.08137173684,-0.1093955977
1.99,-0.0833967647,-0.1074064482
2,-0.08537537989,-0.1053777312
2.01,-0.08730667946,-0.1033106037
2.02,-0.0891897952,-0.1012062457
2.03,-0.09102389408,-0.09906585882
2.04,-0.09280817874,-0.096890665
2.05,-0.09454188791,-0.09468190545
2.06,-0.09622429678,-0.09244083936
2.07,-0.09785471733,-0.09016874276
2.08,-0.09943249864,-0.08786690727
2.09,-0.1009570272,-0.08553663893
2.1,-0.102427727,-0.08317925698
2.11,-0.1038440599,-0.08079609265
2.12,-0.1052055256,-0.078388488
2.13,-0.1065116621,-0.07595779468
2.14,-0.1077620451,-0.07350537279
2.15,-0.1089562887,-0.07103258966
2.16,-0.1100940454,-0.06854081869
2.17,-0.1111750053,-0.0660314382
2.18,-0.112198897,-0.06350583024
2.19,-0.113165487,-0.06096537947
2.2,-0.1140745795,-0.05841147203
2.21,-0.1149260165,-0.05584549439
2.22,-0.1157196774,-0.05326883225
2.23,-0.1164554788,-0.05068286946
2.24,-0.1171333745,-0.04808898691
2.25,-0.1177533547,-0.04548856151
2.26,-0.118315446,-0.04288296509
2.27,-0.1188197113,-0.04027356339
2.28,-0.1192662487,-0.03766171505
2.29,-0.1196551918,-0.03504877062
2.3,-0.1199867088,-0.03243607156
2.31,-0.1202610024,-0.02982494933
2.32,-0.1204783089,-0.02721672439
2.33,-0.1206388979,-0.02461270535
2.34,-0.120743072,-0.02201418804
2.35,-0.1207911657,-0.01942245466
2.36,-0.1207835453,-0.01683877295
2.37,-0.1207206081,-0.01426439533
2.38,-0.1206027815,-0.01170055813
2.39,-0.1204305231,-0.009148480807
2.4,-0.120204319,-0.006609365229
2.41,-0.1199246842,-0.004084394915
2.42,-0.1195921609,-0.001574734364
2.43,-0.1192073187,0.0009184716223
2.44,-0.1187707531,0.003394098572
2.45,-0.1182830852,0.005851042965
2.46,-0.1177449608,0.008288222813
2.47,-0.1171570495,0.01070457822
2.48,-0.1165200444,0.01309907193
2.49,-0.1158346606,0.01547068979
2.5,-0.1151016349,0.01781844127
2.51,-0.114321725,0.02014135989
2.52,-0.1134957082,0.02243850363
2.53,-0.1126243812,0.02470895535
2.54,-0.1117085589,0.02695182311
2.55,-0.1107490734,0.02916624056
2.56,-0.1097467738,0.03135136718
2.57,-0.1087025245,0.03350638863
2.58,-0.1076172052,0.03563051694
2.59,-0.1064917093,0.03772299076
2.6,-0.1053269438,0.03978307555
2.61,-0.1041238278,0.04181006377
2.62,-0.1028832918,0.04380327498
2.63,-0.1016062773,0.04576205597
2.64,-0.1002937355,0.04768578087
2.65,-0.09894662657,0.04957385116
2.66,-0.09756591881,0.05142569576
2.67,-0.09615258796,0.053240771
2.68,-0.09470761628,0.05501856062
2.69,-0.09323199172,0.05675857571
2.7,-0.09172670717,0.05846035468
2.71,-0.09019275964,0.06012346313
2.72,-0.0886311495,0.06174749376
2.73,-0.08704287967,0.0633320662
2.74,-0.08542895487,0.06487682692
2.75,-0.08379038091,0.06638144897
2.76,-0.08212816388,0.06784563181
2.77,-0.08044330949,0.06926910111
2.78,-0.0787368223,0.07065160845
2.79,-0.07700970509,0.0719929311
2.8,-0.07526295809,0.07329287173
2.81,-0.07349757839,0.07455125808
2.82,-0.07171455923,0.07576794267
2.83,-0.06991488938,0.07694280247
2.84,-0.06809955256,0.07807573848
2.85,-0.06626952674,0.07916667545
2.86,-0.06442578366,0.08021556144
2.87,-0.06256928818,0.08122236742
2.88,-0.06070099776,0.08218708688
2.89,-0.05882186194,0.08310973538
2.9,-0.05693282179,0.08399035012
2.91,-0.05503480943,0.08482898951
2.92,-0.05312874757,0.08562573267
2.93,-0.05121554901,0.08638067897
2.94,-0.04929611626,0.08709394756
2.95,-0.04737134105,0.08776567688
2.96,-0.045442104,0.08839602413
2.97,-0.04350927417,0.08898516482
2.98,-0.04157370877,0.08953329218
2.99,-0.03963625278,0.09004061672
3,-0.03769773863,0.09050736565
3.01,-0.03575898589,0.09093378239
3.02,-0.03382080105,0.09132012599
3.03,-0.03188397718,0.09166667064
3.04,-0.02994929374,0.09197370513
3.05,-0.02801751636,0.09224153228
3.06,-0.02608939659,0.0924704684
3.07,-0.02416567179,0.09266084281
3.08,-0.02224706493,0.09281299721
3.09,-0.02033428442,0.09292728522
3.1,-0.01842802405,0.09300407178
3.11,-0.01652896283,0.09304373268
3.12,-0.01463776495,0.09304665396
3.13,-0.01275507966,0.09301323144
3.14,-0.01088154126,0.09294387015
3.15,-0.009017769067,0.09283898385
3.16,-0.007164367371,0.09269899449
3.17,-0.005321925459,0.0925243317
3.18,-0.003491017632,0.09231543232
3.19,-0.001672203233,0.09207273988
3.2,0.0001339732969,0.09179670411
3.21,0.001926982356,0.09148778047
3.22,0.003706309099,0.09114642969
3.23,0.005471453342,0.0907731173
3.24,0.007221929451,0.09036831318
3.25,0.008957266223,0.08993249109
3.26,0.01067700674,0.08946612831
3.27,0.01238070824,0.08896970513
3.28,0.01406794193,0.08844370452
3.29,0.01573829282,0.08788861168
3.3,0.01739135955,0.08730491368
3.31,0.0190267542,0.08669309904
3.32,0.02064410206,0.08605365746
3.33,0.02224304142,0.08538707937
3.34,0.02382322338,0.08469385565
3.35,0.02538431157,0.08397447729
3.36,0.02692598196,0.08322943508
3.37,0.02844792255,0.08245921931
3.38,0.02994983318,0.0816643195
3.39,0.03143142524,0.08084522411
3.4,0.03289242139,0.08000242028
3.41,0.03433255533,0.07913639362
3.42,0.03575157149,0.07824762793
3.43,0.03714922474,0.07733660505
3.44,0.03852528017,0.0764038046
3.45,0.03987951272,0.07544970381
3.46,0.04121170698,0.07447477737
3.47,0.04252165682,0.07347949723
3.48,0.04380916516,0.0724643325
3.49,0.04507404364,0.07142974927
3.5,0.04631611236,0.07037621054
3.51,0.04753519956,0.06930417608
3.52,0.04873114135,0.06821410235
3.53,0.04990378143,0.06710644241
3.54,0.05105297077,0.0659816459
3.55,0.05217856736,0.06484015892
3.56,0.05328043592,0.06368242405
3.57,0.05435844763,0.06250888029
3.58,0.05541247983,0.06131996305
3.59,0.05644241578,0.06011610416
3.6,0.0574481444,0.05889773186
3.61,0.05842955999,0.05766527084
3.62,0.05938656198,0.05641914224
3.63,0.06031905471,0.05515976376
3.64,0.06122694717,0.0538875496
3.65,0.06211015275,0.05260291064
3.66,0.06296858908,0.05130625445
3.67,0.06380217773,0.04999798535
3.68,0.06461084406,0.04867850457
3.69,0.06539451698,0.04734821029
3.7,0.06615312881,0.04600749777
3.71,0.06688661502,0.04465675947
3.72,0.06759491413,0.04329638514
3.73,0.0682779675,0.041926762
3.74,0.0689357192,0.04054827482
3.75,0.06956811583,0.03916130613
3.76,0.07017510643,0.03776623627
3.77,0.07075664232,0.03636344364
3.78,0.07131267699,0.03495330479
3.79,0.07184316602,0.03353619461
3.8,0.07234806694,0.03211248649
3.81,0.07282733921,0.03068255247
3.82,0.07328094408,0.02924676344
3.83,0.07370884457,0.02780548929
3.84,0.07411100543,0.02635909908
3.85,0.07448739305,0.02490796123
3.86,0.07483797547,0.02345244369
3.87,0.07516272237,0.02199291413
3.88,0.07546160503,0.02052974006
3.89,0.07573459635,0.0190632891
3.9,0.07598167086,0.01759392906
3.91,0.07620280476,0.01612202816
3.92,0.07639797596,0.01464795521
3.93,0.07656716407,0.01317207975
3.94,0.07671035054,0.01169477221
3.95,0.07682751865,0.01021640412
3.96,0.07691865366,0.008737348206
3.97,0.07698374284,0.007257978584
3.98,0.07702277556,0.005778670894
3.99,0.07703574347,0.004299802447
4,0.07702264052,0.002821752361
4.01,0.07698346317,0.001344901695
4.02,0.07691821045,-0.0001303664282
4.03,0.07682688414,-0.001603666699
4.04,0.07670948893,-0.003074611512
4.05,0.07656603253,-0.004542810859
4.06,0.07639652589,-0.006007872234
4.07,0.07620098331,-0.007469400541
4.08,0.07597942268,-0.008926998018
4.09,0.07573186563,-0.01038026416
4.1,0.07545833771,-0.01182879566
4.11,0.07515886862,-0.01327218635
4.12,0.0748334924,-0.01471002716
4.13,0.0744822476,-0.01614190609
4.14,0.07410517754,-0.01756740816
4.15,0.07370233051,-0.01898611543
4.16,0.07327375998,-0.02039760696
4.17,0.07281952482,-0.02180145886
4.18,0.07233968955,-0.02319724426
4.19,0.07183432451,-0.02458453334
4.2,0.07130350617,-0.02596289343
4.21,0.07074731729,-0.02733188897
4.22,0.07016584719,-0.02869108163
4.23,0.06955919197,-0.03004003038
4.24,0.06892745473,-0.03137829154
4.25,0.06827074585,-0.03270541888
4.26,0.06758918314,-0.03402096375
4.27,0.06688289215,-0.0353244752
4.28,0.06615200635,-0.03661550004
4.29,0.06539666737,-0.03789358308
4.3,0.06461702523,-0.03915826719
4.31,0.06381323855,-0.0404090935
4.32,0.06298547476,-0.0416456016
4.33,0.06213391034,-0.04286732965
4.34,0.061258731,-0.04407381465
4.35,0.0603601319,-0.04526459258
4.36,0.05943831782,-0.04643919867
4.37,0.05849350341,-0.04759716759
4.38,0.05752591332,-0.04873803368
4.39,0.05653578239,-0.04986133123
4.4,0.05552335586,-0.0509665947
4.41,0.05448888947,-0.05205335899
4.42,0.05343264968,-0.05312115974
4.43,0.0523549138,-0.0541695336
4.44,0.05125597008,-0.05519801847
4.45,0.05013611794,-0.0562061539
4.46,0.04899566799,-0.0571934813
4.47,0.04783494221,-0.05815954432
4.48,0.04665427403,-0.05910388914
4.49,0.04545400842,-0.06002606481
4.5,0.04423450196,-0.0609256236
4.51,0.04299612296,-0.06180212131
4.52,0.04173925144,-0.06265511766
4.53,0.04046427925,-0.06348417661
4.54,0.03917161006,-0.06428886673
4.55,0.03786165942,-0.06506876159
4.56,0.03653485473,-0.06582344009
4.57,0.03519163528,-0.06655248685
4.58,0.0338324522,-0.06725549261
4.59,0.03245776847,-0.06793205456
4.6,0.03106805885,-0.06858177677
4.61,0.02966380984,-0.06920427055
4.62,0.02824551963,-0.06979915484
4.63,0.02681369797,-0.0703660566
4.64,0.02536886616,-0.07090461121
4.65,0.02391155686,-0.07141446281
4.66,0.02244231401,-0.07189526477
4.67,0.02096169272,-0.07234668001
4.68,0.01947025905,-0.0727683814
4.69,0.01796858994,-0.07316005218
4.7,0.01645727296,-0.0735213863
4.71,0.01493690616,-0.07385208881
4.72,0.01340809785,-0.07415187626
4.73,0.01187146641,-0.07442047707
4.74,0.01032764003,-0.07465763185
4.75,0.008777256481,-0.07486309383
4.76,0.007220962851,-0.07503662918
4.77,0.00565941529,-0.07517801739
4.78,0.004093278714,-0.07528705159
4.79,0.002523226515,-0.07536353891
4.8,0.0009499402486,-0.07540730081
4.81,-0.0006258906863,-0.07541817341
4.82,-0.00220356938,-0.07539600781
4.83,-0.003782391759,-0.07534067038
4.84,-0.005361646943,-0.0752520431
4.85,-0.006940617618,-0.07513002382
4.86,-0.008518580412,-0.07497452656
4.87,-0.01009480629,-0.07478548178
4.88,-0.01166856097,-0.07456283664
4.89,-0.0132391053,-0.07430655524
4.9,-0.01480569572,-0.07401661889
4.91,-0.01636758469,-0.07369302632
4.92,-0.01792402112,-0.07333579388
4.93,-0.01947425081,-0.07294495578
4.94,-0.02101751696,-0.07252056427
4.95,-0.02255306058,-0.07206268977
4.96,-0.02408012102,-0.07157142113
4.97,-0.02559793642,-0.0710468657
4.98,-0.02710574422,-0.07048914948
4.99,-0.02860278163,-0.06989841729
5,-0.03008828621,-0.06927483281
5.01,-0.03156149627,-0.06861857875
5.02,-0.03302165149,-0.06792985685
5.03,-0.03446799338,-0.06720888799
5.04,-0.03589976582,-0.06645591224
5.05,-0.0373162156,-0.06567118887
5.06,-0.03871659295,-0.06485499637
5.07,-0.04010015205,-0.06400763246
5.08,-0.04146615163,-0.06312941408
5.09,-0.04281385542,-0.06222067732
5.1,-0.04414253277,-0.06128177743
5.11,-0.04545145918,-0.06031308869
5.12,-0.04673991678,-0.05931500439
5.13,-0.04800719496,-0.05828793669
5.14,-0.04925259084,-0.05723231652
5.15,-0.05047540985,-0.05614859343
5.16,-0.05167496628,-0.05503723547
5.17,-0.05285058375,-0.05389872903
5.18,-0.05400159583,-0.05273357862
5.19,-0.05512734649,-0.05154230669
5.2,-0.05622719068,-0.05032545344
5.21,-0.05730049484,-0.04908357654
5.22,-0.05834663739,-0.04781725094
5.23,-0.05936500926,-0.04652706855
5.24,-0.06035501442,-0.04521363802
5.25,-0.06131607031,-0.04387758437
5.26,-0.0622476084,-0.04251954877
5.27,-0.06314907463,-0.04114018814
5.28,-0.06401992991,-0.03974017482
5.29,-0.06485965057,-0.03832019627
5.3,-0.06566772881,-0.03688095461
5.31,-0.06644367316,-0.03542316632
5.32,-0.06718700894,-0.03394756178
5.33,-0.06789727863,-0.03245488487
5.34,-0.06857404234,-0.03094589256
5.35,-0.06921687817,-0.02942135446
5.36,-0.06982538265,-0.02788205235
5.37,-0.07039917106,-0.02632877974
5.38,-0.07093787787,-0.02476234135
5.39,-0.07144115701,-0.02318355268
5.4,-0.07190868228,-0.02159323944
5.41,-0.07234014765,-0.01999223709
5.42,-0.07273526757,-0.01838139028
5.43,-0.07309377727,-0.01676155234
5.44,-0.07341543302,-0.01513358472
5.45,-0.07370001245,-0.01349835642
5.46,-0.07394731476,-0.01185674348
5.47,-0.07415716095,-0.01020962834
5.48,-0.07432939408,-0.008557899327
5.49,-0.07446387942,-0.006902450009
5.5,-0.07456050469,-0.00524417864
5.51,-0.07461918018,-0.003583987544
5.52,-0.07463983892,-0.00192278251
5.53,-0.07462243685,-0.0002614721824
5.54,-0.07456695287,0.00139903256
5.55,-0.07447338899,0.003057819224
5.56,-0.07434177039,0.004713974323
5.57,-0.07417214548,0.006366584012
5.58,-0.07396458598,0.008014734718
5.59,-0.07371918687,0.009657513767
5.6,-0.0734360665,0.01129401003
5.61,-0.07311536647,0.01292331455
5.62,-0.07275725171,0.01454452118
5.63,-0.07236191035,0.01615672723
5.64,-0.07192955369,0.01775903409
5.65,-0.07146041611,0.01935054786
5.66,-0.07095475496,0.02093038002
5.67,-0.07041285045,0.02249764802
5.68,-0.06983500552,0.02405147591
5.69,-0.06922154564,0.02559099499
5.7,-0.06857281867,0.02711534442
5.71,-0.06788919468,0.02862367183
5.72,-0.06717106568,0.03011513395
5.73,-0.06641884544,0.03158889716
5.74,-0.06563296923,0.03304413818
5.75,-0.06481389354,0.03448004458
5.76,-0.06396209582,0.0358958154
5.77,-0.06307807416,0.03729066173
5.78,-0.06216234698,0.03866380728
5.79,-0.0612154527,0.04001448893
5.8,-0.06023794939,0.04134195727
5.81,-0.0592304144,0.04264547717
5.82,-0.05819344399,0.04392432829
5.83,-0.05712765292,0.04517780562
5.84,-0.05603367404,0.04640521995
5.85,-0.05491215787,0.04760589842
5.86,-0.05376377215,0.04877918495
5.87,-0.05258920138,0.04992444075
5.88,-0.0513891464,0.05104104477
5.89,-0.05016432381,0.05212839415
5.9,-0.04891546559,0.05318590462
5.91,-0.04764331851,0.05421301097
5.92,-0.04634864362,0.0552091674
5.93,-0.04503221576,0.05617384797
5.94,-0.04369482299,0.0571065469
5.95,-0.04233726603,0.05800677898
5.96,-0.04096035771,0.05887407988
5.97,-0.03956492239,0.05970800652
5.98,-0.0381517954,0.06050813733
5.99,-0.0367218224,0.06127407254
6,-0.03527585884,0.0620054345
