"Freq [GHz]","re(S(Tx_p1,Tx_p1)) []","im(S(Tx_p1,Tx_p1)) []"
1,0.094610323,-0.0647178219
1.01,0.09369905361,-0.06580449204
1.02,0.09276534536,-0.06692385927
1.03,0.09180718664,-0.06807349028
1.04,0.09082269754,-0.06925096212
1.05,0.0898101258,-0.07045386268
1.06,0.08876784288,-0.07167979135
1.07,0.08769434035,-0.07292635966
1.08,0.08658822644,-0.074191192
1.09,0.08544822281,-0.07547192644
1.1,0.08427316141,-0.0767662155
1.11,0.0830619816,-0.07807172706
1.12,0.08181372733,-0.07938614522
1.13,0.08052754448,-0.08070717129
1.14,0.07920267827,-0.08203252473
1.15,0.07783847087,-0.08335994415
1.16,0.07643435898,-0.08468718833
1.17,0.07498987158,-0.08601203728
1.18,0.07350462776,-0.08733229331
1.19,0.07197833451,-0.08864578208
1.2,0.07041078471,-0.08995035371
1.21,0.06880185509,-0.09124388389
1.22,0.06715150427,-0.092524275
1.23,0.06545977079,-0.09378945718
1.24,0.06372677127,-0.09503738952
1.25,0.06195269852,-0.0962660611
1.26,0.06013781971,-0.09747349221
1.27,0.05828247456,-0.09865773536
1.28,0.05638707357,-0.09981687648
1.29,0.05445209624,-0.100949036
1.3,0.0524780893,-0.1020523699
1.31,0.05046566499,-0.1031250707
1.32,0.04841549934,-0.1041653691
1.33,0.04632833041,-0.105171534
1.34,0.04420495657,-0.1061418746
1.35,0.04204623483,-0.1070747408
1.36,0.03985307909,-0.1079685243
1.37,0.03762645844,-0.1088216598
1.38,0.03536739543,-0.1096326256
1.39,0.0330769644,-0.110399945
1.4,0.03075628973,-0.1111221868
1.41,0.02840654412,-0.1117979664
1.42,0.0260289469,-0.1124259466
1.43,0.02362476229,-0.1130048384
1.44,0.02119529766,-0.113533402
1.45,0.01874190182,-0.1140104473
1.46,0.01626596327,-0.1144348347
1.47,0.01376890846,-0.114805476
1.48,0.01125220005,-0.1151213349
1.49,0.008717335169,-0.1153814276
1.5,0.006165843631,-0.1155848235
1.51,0.003599286213,-0.115730646
1.52,0.001019252875,-0.1158180723
1.53,-0.001572639001,-0.1158463349
1.54,-0.004174746375,-0.1158147211
1.55,-0.006785402319,-0.1157225742
1.56,-0.009402917789,-0.1155692933
1.57,-0.01202558339,-0.1153543339
1.58,-0.01465167116,-0.1150772083
1.59,-0.01727943632,-0.1147374855
1.6,-0.01990711907,-0.114334792
1.61,-0.02253294632,-0.1138688111
1.62,-0.02515513352,-0.113339284
1.63,-0.02777188632,-0.1127460092
1.64,-0.03038140244,-0.1120888429
1.65,-0.03298187334,-0.1113676988
1.66,-0.035571486,-0.1105825482
1.67,-0.03814842465,-0.1097334199
1.68,-0.0407108725,-0.1088204
1.69,-0.04325701347,-0.1078436319
1.7,-0.04578503387,-0.1068033157
1.71,-0.04829312415,-0.1056997085
1.72,-0.05077948055,-0.1045331239
1.73,-0.05324230678,-0.1033039313
1.74,-0.05567981569,-0.1020125561
1.75,-0.05809023091,-0.1006594787
1.76,-0.06047178848,-0.0992452348
1.77,-0.06282273847,-0.09777041401
1.78,-0.06514134654,-0.09623565994
1.79,-0.06742589558,-0.09464166939
1.8,-0.06967468719,-0.09298919173
1.81,-0.07188604327,-0.09127902827
1.82,-0.07405830751,-0.08951203152
1.83,-0.07618984686,-0.08768910449
1.84,-0.07827905304,-0.08581119987
1.85,-0.08032434393,-0.08387931922
1.86,-0.08232416502,-0.08189451215
1.87,-0.08427699075,-0.07985787536
1.88,-0.08618132594,-0.07777055179
1.89,-0.08803570704,-0.07563372958
1.9,-0.08983870348,-0.07344864113
1.91,-0.09158891894,-0.07121656204
1.92,-0.09328499253,-0.06893881007
1.93,-0.09492560007,-0.066616744
1.94,-0.09650945522,-0.06425176255
1.95,-0.09803531062,-0.0618453032
1.96,-0.09950195899,-0.05939884101
1.97,-0.1009082342,-0.05691388739
1.98,-0.1022530124,-0.0543919889
1.99,-0.1035352127,-0.05183472592
2,-0.1047537986,-0.0492437114
2.01,-0.1059077784,-0.04662058954
2.02,-0.1069962066,-0.04396703443
2.03,-0.1080181843,-0.0412847487
2.04,-0.1089728603,-0.03857546211
2.05,-0.1098594315,-0.0358409302
2.06,-0.1106771441,-0.03308293279
2.07,-0.111425294,-0.03030327262
2.08,-0.1121032272,-0.02750377381
2.09,-0.112710341,-0.02468628045
2.1,-0.1132460841,-0.02185265509
2.11,-0.1137099571,-0.01900477722
2.12,-0.1141015131,-0.01614454177
2.13,-0.1144203583,-0.01327385761
2.14,-0.114666152,-0.01039464596
2.15,-0.114838607,-0.007508838897
2.16,-0.1149374903,-0.004618377792
2.17,-0.1149626228,-0.001725211741
2.18,-0.1149138798,0.001168703985
2.19,-0.114791191,0.004061409505
2.2,-0.114594541,0.006950941895
2.21,-0.1143239687,0.009835336754
2.22,-0.1139795678,0.01271262978
2.23,-0.1135614868,0.01558085831
2.24,-0.1130699287,0.01843806291
2.25,-0.1125051509,0.02128228894
2.26,-0.1118674652,0.02411158807
2.27,-0.1111572375,0.02692401985
2.28,-0.1103748876,0.02971765327
2.29,-0.1095208889,0.03249056824
2.3,-0.1085957679,0.03524085717
2.31,-0.1076001041,0.03796662643
2.32,-0.1065345295,0.04066599787
2.33,-0.1053997281,0.0433371103
2.34,-0.1041964353,0.04597812099
2.35,-0.1029254374,0.04858720704
2.36,-0.1015875714,0.0511625669
2.37,-0.1001837236,0.05370242177
2.38,-0.09871482978,0.05620501696
2.39,-0.09718187389,0.0586686233
2.4,-0.0955858876,0.0610915385
2.41,-0.09392794943,0.06347208847
2.42,-0.09220918395,0.06580862863
2.43,-0.09043076097,0.06809954522
2.44,-0.08859389457,0.07034325652
2.45,-0.08669984225,0.07253821413
2.46,-0.08474990395,0.07468290414
2.47,-0.08274542105,0.07677584835
2.48,-0.08068777537,0.07881560537
2.49,-0.07857838811,0.08080077177
2.5,-0.07641871873,0.08272998316
2.51,-0.07421026392,0.08460191527
2.52,-0.07195455637,0.08641528493
2.53,-0.06965316364,0.0881688511
2.54,-0.06730768698,0.08986141581
2.55,-0.06491976007,0.09149182508
2.56,-0.06249104779,0.09305896981
2.57,-0.06002324495,0.09456178664
2.58,-0.05751807501,0.09599925875
2.59,-0.05497728871,0.09737041665
2.6,-0.05240266281,0.09867433889
2.61,-0.04979599868,0.0999101528
2.62,-0.04715912091,0.1010770351
2.63,-0.044493876,0.1021742127
2.64,-0.04180213086,0.1032009628
2.65,-0.03908577143,0.1041566142
2.66,-0.03634670125,0.1050405469
2.67,-0.03358683999,0.1058521935
2.68,-0.03080812199,0.1065910388
2.69,-0.02801249481,0.1072566207
2.7,-0.02520191773,0.1078485302
2.71,-0.02237836023,0.108366412
2.72,-0.01954380059,0.1088099646
2.73,-0.01670022426,0.1091789403
2.74,-0.01384962246,0.1094731458
2.75,-0.01099399063,0.1096924421
2.76,-0.008135326897,0.1098367443
2.77,-0.005275630606,0.1099060223
2.78,-0.002416900778,0.1099003001
2.79,0.0004388653862,0.1098196563
2.8,0.003289674019,0.1096642236
2.81,0.006133536086,0.1094341888
2.82,0.008968468886,0.109129793
2.83,0.01179249754,0.1087513306
2.84,0.01460365648,0.1082991498
2.85,0.01739999091,0.107773652
2.86,0.0201795583,0.1071752913
2.87,0.02294042981,0.1065045743
2.88,0.02568069175,0.1057620599
2.89,0.028398447,0.1049483582
2.9,0.03109181643,0.1040641307
2.91,0.0337589403,0.1031100893
2.92,0.03639797964,0.1020869959
2.93,0.0390071176,0.100995662
2.94,0.04158456083,0.09983694732
2.95,0.04412854077,0.09861176002
2.96,0.046637315,0.09732105536
2.97,0.04910916846,0.09596583517
2.98,0.05154241478,0.09454714697
2.99,0.05393539745,0.09306608321
3,0.0562864911,0.09152378035
3.01,0.05859410263,0.08992141795
3.02,0.06085667242,0.08826021782
3.03,0.06307267541,0.08654144295
3.04,0.06524062226,0.08476639658
3.05,0.06735906037,0.08293642118
3.06,0.06942657498,0.08105289735
3.07,0.07144179015,0.0791172428
3.08,0.07340336977,0.07713091119
3.09,0.07531001848,0.07509539102
3.1,0.07716048262,0.07301220447
3.11,0.07895355108,0.07088290623
3.12,0.08068805622,0.06870908223
3.13,0.0823628746,0.06649234852
3.14,0.08397692782,0.0642343499
3.15,0.08552918326,0.06193675873
3.16,0.08701865477,0.05960127361
3.17,0.08844440336,0.05722961809
3.18,0.08980553783,0.0548235393
3.19,0.09110121535,0.05238480665
3.2,0.09233064206,0.04991521047
3.21,0.09349307356,0.0474165606
3.22,0.09458781539,0.04489068507
3.23,0.0956142235,0.04233942862
3.24,0.09657170462,0.03976465139
3.25,0.09745971667,0.03716822743
3.26,0.09827776901,0.03455204329
3.27,0.09902542281,0.03191799661
3.28,0.09970229123,0.02926799468
3.29,0.1003080397,0.02660395298
3.3,0.1008423858,0.02392779373
3.31,0.1013051001,0.02124144446
3.32,0.1016960052,0.01854683656
3.33,0.1020149766,0.0158459038
3.34,0.1022619424,0.01314058092
3.35,0.1024368834,0.01043280214
3.36,0.1025398327,0.007724499752
3.37,0.1025708758,0.00501760265
3.38,0.1025301506,0.002314034908
3.39,0.1024178469,-0.000384285655
3.4,0.1022342063,-0.003075448893
3.41,0.1019795218,-0.00575755375
3.42,0.1016541379,-0.008428709666
3.43,0.1012584496,-0.01108703797
3.44,0.1007929026,-0.01373067324
3.45,0.1002579924,-0.01635776473
3.46,0.09965426412,-0.01896647766
3.47,0.09898231195,-0.02155499458
3.48,0.09824277854,-0.0241215167
3.49,0.09743635443,-0.02666426521
3.5,0.09656377748,-0.02918148252
3.51,0.09562583218,-0.0316714336
3.52,0.09462334899,-0.03413240717
3.53,0.09355720359,-0.03656271695
3.54,0.09242831618,-0.03896070288
3.55,0.09123765065,-0.04132473228
3.56,0.08998621379,-0.04365320104
3.57,0.08867505443,-0.04594453475
3.58,0.08730526256,-0.04819718979
3.59,0.08587796845,-0.05040965443
3.6,0.0843943417,-0.0525804499
3.61,0.08285559024,-0.05470813141
3.62,0.08126295942,-0.05679128915
3.63,0.07961773092,-0.05882854928
3.64,0.07792122172,-0.06081857486
3.65,0.07617478308,-0.06276006675
3.66,0.0743797994,-0.06465176455
3.67,0.07253768712,-0.06649244737
3.68,0.07064989359,-0.06828093473
3.69,0.06871789591,-0.07001608728
3.7,0.06674319976,-0.0716968076
3.71,0.06472733819,-0.0733220409
3.72,0.06267187043,-0.07489077568
3.73,0.06057838062,-0.07640204445
3.74,0.0584484766,-0.07785492427
3.75,0.05628378864,-0.07924853736
3.76,0.05408596815,-0.08058205167
3.77,0.0518566864,-0.08185468132
3.78,0.04959763323,-0.08306568715
3.79,0.04731051571,-0.08421437709
3.8,0.04499705685,-0.0853001066
3.81,0.04265899424,-0.08632227899
3.82,0.04029807873,-0.08728034578
3.83,0.0379160731,-0.08817380696
3.84,0.03551475065,-0.08900221124
3.85,0.03309589392,-0.08976515626
3.86,0.03066129327,-0.09046228876
3.87,0.02821274556,-0.09109330472
3.88,0.02575205277,-0.09165794945
3.89,0.02328102062,-0.09215601762
3.9,0.02080145724,-0.09258735333
3.91,0.01831517179,-0.09295185005
3.92,0.01582397311,-0.09324945057
3.93,0.01332966836,-0.09348014692
3.94,0.01083406167,-0.09364398023
3.95,0.008338952825,-0.09374104055
3.96,0.005846135874,-0.09377146666
3.97,0.003357397853,-0.09373544581
3.98,0.0008745174424,-0.09363321346
3.99,-0.001600736333,-0.09346505297
4,-0.004066605407,-0.09323129519
4.01,-0.006521343954,-0.09293231817
4.02,-0.008963219661,-0.09256854664
4.03,-0.01139051499,-0.09214045163
4.04,-0.01380152841,-0.09164854995
4.05,-0.01619457565,-0.09109340363
4.06,-0.01856799087,-0.09047561945
4.07,-0.02092012789,-0.08979584827
4.08,-0.02324936136,-0.08905478443
4.09,-0.02555408789,-0.08825316513
4.1,-0.02783272721,-0.08739176971
4.11,-0.03008372328,-0.08647141895
4.12,-0.03230554536,-0.08549297432
4.13,-0.03449668912,-0.08445733722
4.14,-0.03665567765,-0.08336544816
4.15,-0.03878106249,-0.08221828595
4.16,-0.04087142465,-0.08101686686
4.17,-0.04292537555,-0.07976224367
4.18,-0.04494155798,-0.07845550485
4.19,-0.046918647,-0.07709777358
4.2,-0.04885535089,-0.07569020681
4.21,-0.05075041191,-0.07423399428
4.22,-0.05260260725,-0.0727303575
4.23,-0.05441074974,-0.07118054878
4.24,-0.05617368868,-0.06958585014
4.25,-0.05789031054,-0.06794757228
4.26,-0.05955953972,-0.06626705348
4.27,-0.06118033921,-0.06454565852
4.28,-0.06275171123,-0.06278477757
4.29,-0.06427269786,-0.06098582504
4.3,-0.06574238163,-0.05915023845
4.31,-0.06715988606,-0.05727947727
4.32,-0.06852437618,-0.05537502175
4.33,-0.06983505902,-0.05343837175
4.34,-0.07109118409,-0.05147104551
4.35,-0.07229204372,-0.04947457849
4.36,-0.07343697355,-0.04745052213
4.37,-0.07452535277,-0.04540044263
4.38,-0.07555660453,-0.04332591972
4.39,-0.07653019616,-0.04122854546
4.4,-0.07744563942,-0.03910992293
4.41,-0.07830249075,-0.03697166506
4.42,-0.0791003514,-0.03481539334
4.43,-0.07983886759,-0.03264273658
4.44,-0.08051773062,-0.03045532966
4.45,-0.08113667693,-0.02825481227
4.46,-0.08169548814,-0.02604282767
4.47,-0.08219399106,-0.02382102146
4.48,-0.08263205762,-0.02159104028
4.49,-0.08300960486,-0.01935453062
4.5,-0.08332659477,-0.01711313755
4.51,-0.0835830342,-0.01486850351
4.52,-0.08377897465,-0.01262226706
4.53,-0.0839145121,-0.01037606169
4.54,-0.08398978673,-0.008131514563
4.55,-0.0840049827,-0.005890245375
4.56,-0.08396032781,-0.003653865117
4.57,-0.08385609318,-0.001423974909
4.58,-0.08369259286,0.0007978351622
4.59,-0.08347018348,0.003009987208
4.6,-0.08318926376,0.005210916674
4.61,-0.08285027408,0.007399073469
4.62,-0.08245369598,0.009572923079
4.63,-0.08200005166,0.01173094766
4.64,-0.08148990338,0.01387164712
4.65,-0.08092385294,0.01599354018
4.66,-0.08030254104,0.01809516541
4.67,-0.07962664662,0.02017508227
4.68,-0.07889688625,0.02223187209
4.69,-0.07811401342,0.02426413908
4.7,-0.07727881781,0.02627051126
4.71,-0.07639212458,0.02824964143
4.72,-0.07545479356,0.03020020808
4.73,-0.07446771851,0.03212091626
4.74,-0.0734318263,0.03401049849
4.75,-0.07234807606,0.03586771556
4.76,-0.07121745833,0.0376913574
4.77,-0.07004099418,0.03948024382
4.78,-0.06881973435,0.04123322532
4.79,-0.06755475828,0.04294918384
4.8,-0.06624717324,0.04462703342
4.81,-0.0648981133,0.04626572094
4.82,-0.06350873846,0.04786422675
4.83,-0.06208023356,0.04942156533
4.84,-0.06061380739,0.05093678585
4.85,-0.05911069158,0.05240897277
4.86,-0.05757213965,0.0538372464
4.87,-0.0559994259,0.05522076337
4.88,-0.05439384443,0.05655871715
4.89,-0.05275670803,0.05785033847
4.9,-0.05108934713,0.05909489578
4.91,-0.04939310869,0.06029169561
4.92,-0.04766935517,0.06144008296
4.93,-0.04591946336,0.0625394416
4.94,-0.04414482334,0.06358919438
4.95,-0.04234683732,0.06458880351
4.96,-0.04052691857,0.06553777078
4.97,-0.03868649027,0.06643563776
4.98,-0.03682698442,0.06728198598
4.99,-0.03494984068,0.06807643709
5,-0.03305650529,0.06881865293
5.01,-0.0311484299,0.06950833564
5.02,-0.0292270705,0.07014522768
5.03,-0.02729388625,0.07072911188
5.04,-0.02535033839,0.07125981139
5.05,-0.02339788911,0.07173718965
5.06,-0.02143800045,0.07216115031
5.07,-0.01947213318,0.0725316371
5.08,-0.01750174572,0.07284863376
5.09,-0.01552829301,0.07311216376
5.1,-0.01355322548,0.0733222902
5.11,-0.0115779879,0.07347911553
5.12,-0.009604018374,0.0735827813
5.13,-0.007632747251,0.07363346789
5.14,-0.005665596077,0.07363139416
5.15,-0.003703976563,0.07357681714
5.16,-0.001749289562,0.07347003163
5.17,0.000197075948,0.07331136982
5.18,0.002133743857,0.07310120085
5.19,0.00405935191,0.07283993036
5.2,0.00597255267,0.072528
5.21,0.007872014479,0.07216588697
5.22,0.009756422384,0.07175410341
5.23,0.01162447906,0.07129319591
5.24,0.01347490572,0.07078374491
5.25,0.01530644297,0.07022636409
5.26,0.01711785169,0.06962169974
5.27,0.01890791391,0.06897043013
5.28,0.02067543355,0.06827326483
5.29,0.02241923731,0.06753094402
5.3,0.02413817539,0.06674423777
5.31,0.02583112228,0.06591394532
5.32,0.02749697748,0.06504089432
5.33,0.02913466623,0.06412594007
5.34,0.03074314018,0.06316996474
5.35,0.03232137806,0.06217387653
5.36,0.03386838635,0.06113860888
5.37,0.03538319986,0.06006511965
5.38,0.03686488233,0.05895439022
5.39,0.03831252703,0.05780742466
5.4,0.03972525725,0.05662524886
5.41,0.04110222686,0.05540890959
5.42,0.04244262076,0.05415947367
5.43,0.04374565538,0.05287802698
5.44,0.04501057909,0.05156567359
5.45,0.04623667263,0.05022353479
5.46,0.04742324947,0.04885274819
5.47,0.04856965616,0.04745446673
5.48,0.0496752727,0.04602985773
5.49,0.05073951278,0.04458010194
5.5,0.05176182411,0.04310639255
5.51,0.0527416886,0.04160993424
5.52,0.05367862264,0.04009194218
5.53,0.05457217725,0.03855364106
5.54,0.05542193824,0.0369962641
5.55,0.05622752635,0.03542105207
5.56,0.05698859737,0.03382925228
5.57,0.05770484217,0.03222211764
5.58,0.05837598682,0.03060090563
5.59,0.05900179254,0.02896687732
5.6,0.05958205572,0.02732129643
5.61,0.06011660791,0.02566542829
5.62,0.06060531573,0.0240005389
5.63,0.06104808077,0.02232789396
5.64,0.06144483953,0.02064875791
5.65,0.0617955632,0.01896439292
5.66,0.06210025758,0.01727605802
5.67,0.0623589628,0.01558500807
5.68,0.06257175316,0.0138924929
5.69,0.06273873686,0.01219975631
5.7,0.06286005573,0.01050803522
5.71,0.06293588495,0.008818558693
5.72,0.06296643271,0.007132547108
5.73,0.06295193986,0.005451211221
5.74,0.06289267957,0.003775751316
5.75,0.06278895693,0.00210735634
5.76,0.06264110851,0.0004472030556
5.77,0.06244950197,-0.00120354479
5.78,0.06221453555,-0.002843737284
5.79,0.06193663764,-0.00447223915
5.8,0.06161626623,-0.006087930533
5.81,0.06125390842,-0.007689707773
5.82,0.0608500799,-0.009276484154
5.83,0.06040532433,-0.01084719064
5.84,0.05992021279,-0.01240077661
5.85,0.05939534322,-0.01393621052
5.86,0.05883133973,-0.01545248061
5.87,0.05822885203,-0.01694859557
5.88,0.05758855476,-0.01842358518
5.89,0.0569111468,-0.01987650089
5.9,0.05619735064,-0.02130641648
5.91,0.05544791164,-0.02271242861
5.92,0.05466359734,-0.02409365737
5.93,0.05384519676,-0.02544924684
5.94,0.05299351961,-0.02677836559
5.95,0.05210939559,-0.02808020718
5.96,0.05119367362,-0.0293539906
5.97,0.05024722106,-0.03059896078
5.98,0.04927092294,-0.03181438895
5.99,0.04826568116,-0.03299957307
6,0.04723241373,-0.03415383823
