"Freq [GHz]","re(S(Tx_p1,Tx_p1)) []","im(S(Tx_p1,Tx_p1)) []"
1,0.2582898787,-0.1239281155
1.01,0.2553966104,-0.1226387585
1.02,0.252634688,-0.1214607699
1.03,0.2499965702,-0.1203918416
1.04,0.2474750359,-0.1194297114
1.05,0.2450631659,-0.1185721594
1.06,0.242754327,-0.1178170058
1.07,0.2405421565,-0.1171621077
1.08,0.2384205479,-0.1166053567
1.09,0.2363836372,-0.1161446763
1.1,0.2344257908,-0.1157780198
1.11,0.2325415938,-0.1155033676
1.12,0.2307258386,-0.1153187256
1.13,0.2289735153,-0.1152221226
1.14,0.2272798014,-0.1152116088
1.15,0.2256400538,-0.1152852535
1.16,0.2240497995,-0.115441144
1.17,0.2225047283,-0.115677383
1.18,0.2210006854,-0.1159920877
1.19,0.2195336646,-0.116383388
1.2,0.2180998016,-0.1168494251
1.21,0.2166953685,-0.1173883498
1.22,0.2153167678,-0.1179983219
1.23,0.2139605273,-0.1186775081
1.24,0.2126232953,-0.1194240813
1.25,0.2113018362,-0.1202362196
1.26,0.2099930256,-0.1211121047
1.27,0.2086938473,-0.1220499217
1.28,0.2074013888,-0.1230478573
1.29,0.2061128382,-0.1241040997
1.3,0.2048254809,-0.1252168373
1.31,0.203536697,-0.1263842582
1.32,0.2022439578,-0.1276045496
1.33,0.2009448238,-0.1288758968
1.34,0.1996369423,-0.1301964831
1.35,0.1983180448,-0.1315644892
1.36,0.1969859453,-0.1329780924
1.37,0.1956385383,-0.1344354669
1.38,0.194273797,-0.1359347827
1.39,0.1928897717,-0.137474206
1.4,0.1914845884,-0.1390518988
1.41,0.1900564472,-0.1406660186
1.42,0.1886036212,-0.1423147184
1.43,0.1871244552,-0.1439961468
1.44,0.1856173647,-0.145708448
1.45,0.1840808351,-0.1474497617
1.46,0.1825134202,-0.1492182235
1.47,0.180913742,-0.151011965
1.48,0.1792804893,-0.1528291139
1.49,0.1776124177,-0.1546677947
1.5,0.1759083482,-0.1565261286
1.51,0.1741671669,-0.1584022341
1.52,0.1723878245,-0.1602942276
1.53,0.1705693357,-0.1622002238
1.54,0.1687107785,-0.1641183362
1.55,0.1668112939,-0.1660466776
1.56,0.1648700852,-0.1679833612
1.57,0.1628864181,-0.1699265008
1.58,0.1608596196,-0.1718742117
1.59,0.1587890779,-0.1738246116
1.6,0.156674242,-0.1757758211
1.61,0.1545146211,-0.1777259651
1.62,0.1523097846,-0.1796731729
1.63,0.1500593609,-0.18161558
1.64,0.147763038,-0.1835513283
1.65,0.1454205621,-0.1854785674
1.66,0.1430317378,-0.1873954556
1.67,0.1405964273,-0.1893001611
1.68,0.1381145499,-0.1911908626
1.69,0.1355860818,-0.1930657507
1.7,0.1330110553,-0.1949230289
1.71,0.1303895583,-0.1967609148
1.72,0.1277217337,-0.198577641
1.73,0.1250077789,-0.2003714565
1.74,0.1222479451,-0.2021406275
1.75,0.1194425365,-0.2038834389
1.76,0.1165919099,-0.2055981953
1.77,0.1136964736,-0.2072832219
1.78,0.1107566871,-0.2089368661
1.79,0.1077730599,-0.2105574983
1.8,0.1047461506,-0.2121435131
1.81,0.1016765667,-0.2136933306
1.82,0.09856496272,-0.2152053971
1.83,0.09541204018,-0.2166781868
1.84,0.09221854603,-0.2181102024
1.85,0.08898527189,-0.2194999763
1.86,0.08571305296,-0.2208460716
1.87,0.08240276696,-0.2221470834
1.88,0.07905533297,-0.2234016394
1.89,0.07567171037,-0.2246084011
1.9,0.07225289762,-0.2257660647
1.91,0.06879993106,-0.2268733619
1.92,0.06531388368,-0.227929061
1.93,0.06179586388,-0.2289319677
1.94,0.05824701417,-0.2298809254
1.95,0.05466850985,-0.2307748169
1.96,0.05106155771,-0.2316125642
1.97,0.04742739461,-0.2323931299
1.98,0.04376728618,-0.2331155172
1.99,0.04008252534,-0.233778771
2,0.03637443096,-0.2343819784
2.01,0.03264434639,-0.2349242689
2.02,0.02889363802,-0.235404815
2.03,0.02512369384,-0.2358228329
2.04,0.02133592195,-0.2361775823
2.05,0.01753174914,-0.2364683672
2.06,0.01371261935,-0.2366945361
2.07,0.009879992258,-0.2368554818
2.08,0.006035341744,-0.2369506421
2.09,0.002180154447,-0.2369794995
2.1,-0.001684071721,-0.2369415816
2.11,-0.005555829042,-0.2368364609
2.12,-0.009433601448,-0.2366637546
2.13,-0.01331586598,-0.2364231249
2.14,-0.01720109421,-0.2361142788
2.15,-0.02108775368,-0.2357369673
2.16,-0.02497430932,-0.2352909862
2.17,-0.02885922479,-0.2347761749
2.18,-0.03274096389,-0.2341924166
2.19,-0.0366179919,-0.2335396375
2.2,-0.0404887769,-0.2328178069
2.21,-0.04435179104,-0.2320269364
2.22,-0.04820551183,-0.2311670793
2.23,-0.0520484234,-0.2302383302
2.24,-0.05587901764,-0.2292408248
2.25,-0.05969579545,-0.2281747383
2.26,-0.06349726782,-0.2270402857
2.27,-0.06728195695,-0.2258377207
2.28,-0.07104839733,-0.2245673349
2.29,-0.07479513676,-0.2232294571
2.3,-0.07852073731,-0.2218244528
2.31,-0.08222377633,-0.2203527227
2.32,-0.08590284727,-0.2188147027
2.33,-0.08955656063,-0.2172108625
2.34,-0.09318354471,-0.2155417046
2.35,-0.09678244644,-0.213807764
2.36,-0.1003519321,-0.2120096067
2.37,-0.1038906879,-0.210147829
2.38,-0.1073974208,-0.2082230565
2.39,-0.1108708592,-0.2062359433
2.4,-0.1143097529,-0.2041871707
2.41,-0.1177128744,-0.2020774466
2.42,-0.1210790188,-0.1999075042
2.43,-0.1244070045,-0.1976781012
2.44,-0.1276956735,-0.195390019
2.45,-0.1309438916,-0.1930440611
2.46,-0.1341505489,-0.1906410529
2.47,-0.1373145599,-0.1881818402
2.48,-0.1404348637,-0.1856672884
2.49,-0.1435104244,-0.1830982816
2.5,-0.1465402307,-0.1804757216
2.51,-0.1495232967,-0.1778005271
2.52,-0.1524586612,-0.1750736324
2.53,-0.1553453883,-0.1722959872
2.54,-0.1581825671,-0.169468555
2.55,-0.1609693115,-0.1665923128
2.56,-0.1637047605,-0.1636682499
2.57,-0.1663880778,-0.1606973674
2.58,-0.1690184516,-0.1576806771
2.59,-0.1715950945,-0.1546192009
2.6,-0.1741172436,-0.1515139702
2.61,-0.1765841596,-0.1483660251
2.62,-0.1789951271,-0.1451764136
2.63,-0.1813494542,-0.141946191
2.64,-0.1836464722,-0.1386764195
2.65,-0.1858855349,-0.1353681672
2.66,-0.1880660189,-0.1320225082
2.67,-0.1901873231,-0.1286405214
2.68,-0.1922488678,-0.1252232902
2.69,-0.1942500951,-0.1217719025
2.7,-0.196190468,-0.1182874496
2.71,-0.1980694704,-0.1147710262
2.72,-0.1998866064,-0.11122373
2.73,-0.2016414,-0.1076466613
2.74,-0.203333395,-0.1040409226
2.75,-0.2049621541,-0.1004076187
2.76,-0.2065272592,-0.09674785606
2.77,-0.2080283102,-0.09306274272
2.78,-0.2094649255,-0.08935338821
2.79,-0.210836741,-0.08562090332
2.8,-0.2121434101,-0.08186639999
2.81,-0.2133846032,-0.07809099119
2.82,-0.2145600074,-0.07429579089
2.83,-0.2156693265,-0.07048191397
2.84,-0.2167122801,-0.06665047621
2.85,-0.2176886039,-0.06280259429
2.86,-0.2185980492,-0.05893938577
2.87,-0.2194403827,-0.05506196919
2.88,-0.2202153863,-0.05117146403
2.89,-0.2209228568,-0.04726899085
2.9,-0.221562606,-0.04335567133
2.91,-0.2221344602,-0.03943262837
2.92,-0.2226382604,-0.03550098621
2.93,-0.223073862,-0.03156187052
2.94,-0.223441135,-0.0276164085
2.95,-0.2237399633,-0.02366572906
2.96,-0.2239702457,-0.01971096291
2.97,-0.2241318948,-0.01575324268
2.98,-0.224224838,-0.01179370309
2.99,-0.2242490168,-0.007833481052
3,-0.2242043874,-0.00387371579
3.01,-0.2240909206,8.445101124E-05
3.02,-0.2239086018,0.004039875112
3.03,-0.2236574314,0.007991409602
3.04,-0.2233374249,0.01193790481
3.05,-0.2229486129,0.0158782082
3.06,-0.2224910417,0.01981116433
3.07,-0.2219647732,0.02373561476
3.08,-0.2213698855,0.02765039804
3.09,-0.2207064727,0.03155434967
3.1,-0.2199746458,0.03544630207
3.11,-0.2191745326,0.03932508465
3.12,-0.2183062781,0.0431895238
3.13,-0.217370045,0.04703844297
3.14,-0.216366014,0.05087066276
3.15,-0.2152943841,0.05468500099
3.16,-0.2141553732,0.05848027286
3.17,-0.2129492182,0.06225529113
3.18,-0.2116761755,0.06600886625
3.19,-0.2103365218,0.06973980664
3.2,-0.2089305539,0.07344691889
3.21,-0.2074585895,0.07712900802
3.22,-0.2059209676,0.08078487785
3.23,-0.2043180488,0.08441333126
3.24,-0.2026502159,0.08801317058
3.25,-0.2009178739,0.091583198
3.26,-0.1991214511,0.09512221597
3.27,-0.1972613988,0.09862902766
3.28,-0.1953381921,0.1021024374
3.29,-0.1933523301,0.1055412514
3.3,-0.1913043366,0.1089442778
3.31,-0.1891947598,0.1123103279
3.32,-0.1870241733,0.1156382163
3.33,-0.184793176,0.1189267616
3.34,-0.1825023927,0.1221747871
3.35,-0.1801524739,0.1253811217
3.36,-0.1777440966,0.1285446
3.37,-0.1752779642,0.1316640638
3.38,-0.1727548069,0.1347383623
3.39,-0.1701753815,0.137766353
3.4,-0.1675404719,0.1407469025
3.41,-0.1648508893,0.1436788876
3.42,-0.1621074717,0.1465611955
3.43,-0.1593110846,0.1493927255
3.44,-0.1564626207,0.1521723888
3.45,-0.1535629999,0.1548991104
3.46,-0.1506131691,0.1575718294
3.47,-0.1476141024,0.1601895
3.48,-0.144566801,0.1627510924
3.49,-0.1414722925,0.1652555939
3.5,-0.1383316312,0.1677020095
3.51,-0.1351458979,0.1700893629
3.52,-0.1319161992,0.1724166978
3.53,-0.1286436673,0.1746830781
3.54,-0.1253294599,0.1768875895
3.55,-0.1219747596,0.1790293398
3.56,-0.1185807734,0.1811074605
3.57,-0.1151487323,0.1831211069
3.58,-0.1116798907,0.1850694596
3.59,-0.108175526,0.1869517249
3.6,-0.1046369379,0.1887671362
3.61,-0.1010654476,0.1905149541
3.62,-0.09746239736,0.1921944679
3.63,-0.09382914967,0.1938049959
3.64,-0.09016708653,0.1953458865
3.65,-0.08647760867,0.1968165187
3.66,-0.08276213468,0.1982163028
3.67,-0.07902210023,0.1995446816
3.68,-0.07525895713,0.2008011301
3.69,-0.07147417243,0.2019851572
3.7,-0.0676692275,0.2030963053
3.71,-0.06384561703,0.2041341517
3.72,-0.06000484805,0.2050983086
3.73,-0.05614843892,0.2059884237
3.74,-0.05227791826,0.2068041807
3.75,-0.04839482389,0.2075452999
3.76,-0.04450070178,0.208211538
3.77,-0.04059710492,0.2088026891
3.78,-0.03668559219,0.2093185845
3.79,-0.03276772728,0.2097590932
3.8,-0.02884507751,0.2101241221
3.81,-0.02491921268,0.210413616
3.82,-0.02099170392,0.2106275577
3.83,-0.01706412255,0.2107659683
3.84,-0.01313803885,0.2108289071
3.85,-0.009215020969,0.2108164714
3.86,-0.00529663369,0.2107287967
3.87,-0.001384437301,0.2105660565
3.88,0.002520013579,0.2103284621
3.89,0.006415171153,0.2100162623
3.9,0.01029949559,0.2096297434
3.91,0.01417145617,0.2091692288
3.92,0.01802953239,0.2086350785
3.93,0.02187221509,0.208027689
3.94,0.02569800752,0.2073474927
3.95,0.02950542645,0.2065949573
3.96,0.03329300318,0.2057705858
3.97,0.03705928461,0.2048749154
3.98,0.04080283421,0.2039085171
3.99,0.04452223304,0.2028719954
4,0.04821608066,0.2017659871
4.01,0.05188299609,0.2005911611
4.02,0.0555216187,0.1993482174
4.03,0.05913060904,0.1980378864
4.04,0.06270864972,0.1966609281
4.05,0.06625444617,0.1952181314
4.06,0.06976672742,0.1937103131
4.07,0.0732442468,0.1921383173
4.08,0.07668578267,0.190503014
4.09,0.08009013901,0.188805299
4.1,0.08345614609,0.187046092
4.11,0.08678266098,0.1852263366
4.12,0.09006856813,0.1833469985
4.13,0.09331277982,0.1814090651
4.14,0.09651423664,0.1794135444
4.15,0.09967190784,0.1773614639
4.16,0.1027847918,0.1752538694
4.17,0.1058519161,0.1730918245
4.18,0.1088723382,0.1708764091
4.19,0.1118451453,0.1686087187
4.2,0.1147694548,0.1662898632
4.21,0.1176444142,0.1639209658
4.22,0.1204692013,0.1615031625
4.23,0.1232430246,0.1590376003
4.24,0.1259651227,0.1565254368
4.25,0.1286347649,0.1539678392
4.26,0.1312512507,0.1513659828
4.27,0.1338139099,0.1487210506
4.28,0.1363221025,0.1460342322
4.29,0.1387752186,0.1433067225
4.3,0.141172678,0.1405397214
4.31,0.14351393,0.1377344324
4.32,0.1457984534,0.1348920619
4.33,0.1480257558,0.1320138184
4.34,0.1501953736,0.1291009116
4.35,0.1523068714,0.1261545516
4.36,0.1543598421,0.1231759482
4.37,0.1563539056,0.1201663098
4.38,0.1582887093,0.1171268433
4.39,0.1601639271,0.1140587529
4.4,0.161979259,0.1109632395
4.41,0.1637344309,0.1078415002
4.42,0.1654291934,0.1046947277
4.43,0.1670633223,0.1015241097
4.44,0.1686366169,0.09833082821
4.45,0.1701489004,0.09511605919
4.46,0.1716000188,0.09188097209
4.47,0.1729898404,0.08862672937
4.48,0.1743182555,0.08535448606
4.49,0.1755851752,0.08206538942
4.5,0.1767905315,0.07876057862
4.51,0.1779342763,0.07544118438
4.52,0.1790163809,0.07210832874
4.53,0.1800368354,0.06876312479
4.54,0.1809956479,0.0654066765
4.55,0.1818928444,0.06204007847
4.56,0.1827284679,0.05866441587
4.57,0.1835025776,0.05528076426
4.58,0.1842152488,0.05189018952
4.59,0.184866572,0.04849374782
4.6,0.1854566527,0.04509248553
4.61,0.1859856105,0.04168743929
4.62,0.1864535788,0.03827963598
4.63,0.1868607042,0.03487009278
4.64,0.187207146,0.03145981724
4.65,0.1874930761,0.02804980739
4.66,0.1877186781,0.02464105184
4.67,0.1878841469,0.0212345299
4.68,0.1879896888,0.01783121177
4.69,0.1880355204,0.01443205867
4.7,0.1880218689,0.01103802305
4.71,0.1879489714,0.007650048782
4.72,0.1878170747,0.004269071361
4.73,0.1876264349,0.0008960181422
4.74,0.1873773175,-0.002468191434
4.75,0.1870699966,-0.005822645605
4.76,0.1867047554,-0.009166440037
4.77,0.1862818852,-0.01249867757
4.78,0.1858016861,-0.01581846799
4.79,0.1852644661,-0.01912492773
4.8,0.1846705417,-0.02241717966
4.81,0.1840202372,-0.02569435279
4.82,0.1833138851,-0.02895558208
4.83,0.1825518257,-0.03220000812
4.84,0.1817344076,-0.03542677695
4.85,0.1808619871,-0.03863503982
4.86,0.1799349288,-0.04182395292
4.87,0.1789536054,-0.04499267724
4.88,0.1779183978,-0.04814037832
4.89,0.176829695,-0.05126622606
4.9,0.1756878949,-0.05436939458
4.91,0.1744934037,-0.05744906203
4.92,0.1732466365,-0.06050441049
4.93,0.1719480172,-0.06353462578
4.94,0.1705979791,-0.06653889742
4.95,0.1691969647,-0.06951641852
4.96,0.1677454262,-0.07246638569
4.97,0.1662438255,-0.07538799904
4.98,0.1646926347,-0.07828046212
4.99,0.1630923362,-0.08114298196
5,0.1614434231,-0.08397476904
5.01,0.1597463993,-0.08677503738
5.02,0.1580017799,-0.0895430046
5.03,0.1562100913,-0.092277892
5.04,0.1543718719,-0.09497892471
5.05,0.1524876719,-0.09764533178
5.06,0.1505580538,-0.1002763464
5.07,0.1485835928,-0.1028712062
5.08,0.1465648768,-0.105429153
5.09,0.144502507,-0.1079494339
5.1,0.1423970978,-0.1104313005
5.11,0.1402492774,-0.1128740102
5.12,0.1380596878,-0.1152768258
5.13,0.1358289852,-0.1176390162
5.14,0.1335578399,-0.1199598565
5.15,0.1312469372,-0.1222386287
5.16,0.1288969767,-0.1244746217
5.17,0.1265086732,-0.1266671323
5.18,0.1240827564,-0.128815465
5.19,0.1216199715,-0.1309189329
5.2,0.1191210787,-0.132976858
5.21,0.1165868539,-0.1349885717
5.22,0.1140180883,-0.1369534153
5.23,0.1114155889,-0.1388707407
5.24,0.1087801782,-0.1407399106
5.25,0.1061126942,-0.1425602996
5.26,0.1034139907,-0.144331294
5.27,0.1006849368,-0.1460522929
5.28,0.09792641723,-0.1477227089
5.29,0.095139332,-0.1493419682
5.3,0.09232459638,-0.1509095113
5.31,0.0894831407,-0.152424794
5.32,0.08661591017,-0.1538872875
5.33,0.08372386467,-0.1552964794
5.34,0.08080797852,-0.1566518738
5.35,0.07786924016,-0.1579529924
5.36,0.07490865188,-0.1591993748
5.37,0.07192722951,-0.1603905792
5.38,0.068926002,-0.1615261828
5.39,0.06590601109,-0.1626057824
5.4,0.06286831083,-0.1636289954
5.41,0.05981396719,-0.1645954595
5.42,0.05674405758,-0.165504834
5.43,0.05365967031,-0.1663567999
5.44,0.05056190409,-0.1671510607
5.45,0.04745186748,-0.1678873423
5.46,0.04433067833,-0.1685653942
5.47,0.04119946312,-0.1691849895
5.48,0.03805935641,-0.1697459253
5.49,0.03491150014,-0.1702480233
5.5,0.031757043,-0.1706911301
5.51,0.0285971397,-0.1710751175
5.52,0.02543295033,-0.171399883
5.53,0.02226563955,-0.1716653496
5.54,0.01909637595,-0.1718714668
5.55,0.0159263312,-0.1720182103
5.56,0.01275667937,-0.1721055824
5.57,0.009588596076,-0.1721336121
5.58,0.006423257734,-0.1721023554
5.59,0.003261840747,-0.1720118954
5.6,0.0001055206937,-0.171862342
5.61,-0.003044528482,-0.1716538328
5.62,-0.006187135292,-0.1713865321
5.63,-0.009321131527,-0.1710606318
5.64,-0.01244535308,-0.1706763505
5.65,-0.01555864077,-0.1702339344
5.66,-0.01865984118,-0.1697336563
5.67,-0.02174780745,-0.169175816
5.68,-0.02482140011,-0.1685607399
5.69,-0.02787948791,-0.1678887809
5.7,-0.03092094859,-0.1671603181
5.71,-0.03394466968,-0.1663757565
5.72,-0.0369495493,-0.1655355269
5.73,-0.03993449694,-0.1646400853
5.74,-0.04289843416,-0.1636899127
5.75,-0.04584029543,-0.1626855145
5.76,-0.04875902875,-0.1616274206
5.77,-0.05165359646,-0.1605161843
5.78,-0.05452297586,-0.1593523822
5.79,-0.05736615992,-0.1581366137
5.8,-0.0601821579,-0.1568695002
5.81,-0.06296999601,-0.1555516849
5.82,-0.06572871801,-0.1541838322
5.83,-0.06845738575,-0.1527666265
5.84,-0.07115507979,-0.1513007725
5.85,-0.07382089987,-0.1497869939
5.86,-0.07645396545,-0.148226033
5.87,-0.07905341615,-0.1466186498
5.88,-0.08161841225,-0.1449656219
5.89,-0.08414813503,-0.143267743
5.9,-0.08664178722,-0.1415258226
5.91,-0.08909859333,-0.1397406854
5.92,-0.09151779996,-0.1379131703
5.93,-0.09389867612,-0.1360441297
5.94,-0.09624051348,-0.134134429
5.95,-0.09854262661,-0.1321849453
5.96,-0.1008043532,-0.1301965673
5.97,-0.1030250541,-0.1281701939
5.98,-0.1052041136,-0.1261067341
5.99,-0.1073409396,-0.1240071054
6,-0.1094349634,-0.1218722339
