"Freq [GHz]","re(S(Tx_p1,Tx_p1)) []","im(S(Tx_p1,Tx_p1)) []"
1,0.2671332958,-0.1296594269
1.01,0.2641564896,-0.1284744423
1.02,0.2613084984,-0.1274039908
1.03,0.2585815763,-0.1264454996
1.04,0.2559683121,-0.125596441
1.05,0.2534616116,-0.1248543298
1.06,0.2510546803,-0.1242167208
1.07,0.2487410087,-0.1236812059
1.08,0.2465143568,-0.1232454121
1.09,0.2443687411,-0.122906999
1.1,0.2422984215,-0.1226636569
1.11,0.2402978893,-0.1225131045
1.12,0.2383618566,-0.1224530875
1.13,0.2364852449,-0.1224813762
1.14,0.2346631762,-0.1225957643
1.15,0.2328909633,-0.1227940672
1.16,0.2311641011,-0.1230741204
1.17,0.2294782592,-0.1234337781
1.18,0.2278292736,-0.1238709118
1.19,0.22621314,-0.1243834094
1.2,0.2246260071,-0.1249691735
1.21,0.2230641702,-0.1256261206
1.22,0.2215240655,-0.12635218
1.23,0.2200022648,-0.1271452929
1.24,0.2184954698,-0.1280034112
1.25,0.217000508,-0.1289244969
1.26,0.2155143273,-0.1299065214
1.27,0.2140339926,-0.1309474643
1.28,0.2125566814,-0.1320453132
1.29,0.2110796797,-0.133198063
1.3,0.2096003794,-0.1344037151
1.31,0.2081162741,-0.135660277
1.32,0.2066249565,-0.1369657618
1.33,0.2051241154,-0.138318188
1.34,0.2036115329,-0.1397155788
1.35,0.202085082,-0.1411559623
1.36,0.2005427239,-0.1426373704
1.37,0.1989825064,-0.1441578394
1.38,0.1974025607,-0.1457154095
1.39,0.1958011007,-0.1473081247
1.4,0.1941764201,-0.1489340325
1.41,0.1925268912,-0.1505911844
1.42,0.190850963,-0.1522776354
1.43,0.18914716,-0.1539914443
1.44,0.1874140804,-0.1557306737
1.45,0.1856503946,-0.1574933902
1.46,0.1838548446,-0.1592776647
1.47,0.182026242,-0.1610815724
1.48,0.1801634672,-0.162903193
1.49,0.1782654684,-0.1647406115
1.5,0.1763312603,-0.1665919179
1.51,0.1743599234,-0.168455208
1.52,0.1723506028,-0.1703285836
1.53,0.1703025074,-0.1722101531
1.54,0.1682149091,-0.1740980318
1.55,0.1660871417,-0.1759903428
1.56,0.1639186007,-0.1778852167
1.57,0.1617087417,-0.1797807934
1.58,0.1594570802,-0.1816752214
1.59,0.1571631908,-0.1835666596
1.6,0.1548267063,-0.1854532769
1.61,0.1524473171,-0.1873332538
1.62,0.1500247705,-0.1892047825
1.63,0.1475588699,-0.1910660678
1.64,0.1450494742,-0.1929153279
1.65,0.142496497,-0.1947507953
1.66,0.139899906,-0.196570717
1.67,0.1372597225,-0.1983733561
1.68,0.13457602,-0.2001569919
1.69,0.1318489244,-0.2019199212
1.7,0.1290786125,-0.2036604591
1.71,0.1262653116,-0.2053769393
1.72,0.123409299,-0.2070677157
1.73,0.1205109006,-0.2087311628
1.74,0.1175704906,-0.2103656765
1.75,0.1145884907,-0.2119696754
1.76,0.1115653691,-0.2135416012
1.77,0.1085016396,-0.2150799197
1.78,0.105397861,-0.2165831218
1.79,0.1022546362,-0.2180497241
1.8,0.09907261109,-0.2194782699
1.81,0.09585247372,-0.2208673301
1.82,0.09259495352,-0.2222155037
1.83,0.0893008202,-0.2235214191
1.84,0.08597088281,-0.2247837343
1.85,0.08260598875,-0.2260011382
1.86,0.07920702277,-0.227172351
1.87,0.07577490587,-0.2282961253
1.88,0.07231059435,-0.2293712464
1.89,0.06881507862,-0.2303965331
1.9,0.06528938218,-0.2313708389
1.91,0.06173456048,-0.2322930517
1.92,0.05815169979,-0.2331620952
1.93,0.05454191604,-0.2339769294
1.94,0.0509063537,-0.2347365506
1.95,0.04724618453,-0.2354399927
1.96,0.04356260645,-0.2360863271
1.97,0.0398568423,-0.2366746635
1.98,0.03613013863,-0.2372041501
1.99,0.03238376447,-0.2376739745
2,0.0286190101,-0.2380833634
2.01,0.0248371858,-0.2384315834
2.02,0.02103962056,-0.238717941
2.03,0.01722766091,-0.2389417831
2.04,0.01340266955,-0.2391024974
2.05,0.009566024185,-0.2391995118
2.06,0.00571911618,-0.2392322955
2.07,0.001863349346,-0.2392003585
2.08,-0.001999861346,-0.2391032518
2.09,-0.005869091017,-0.2389405677
2.1,-0.009742906137,-0.2387119394
2.11,-0.01361986577,-0.2384170411
2.12,-0.01749852282,-0.238055588
2.13,-0.02137742524,-0.2376273363
2.14,-0.02525511729,-0.2371320826
2.15,-0.02913014069,-0.2365696642
2.16,-0.03300103588,-0.2359399585
2.17,-0.03686634312,-0.2352428829
2.18,-0.0407246037,-0.2344783945
2.19,-0.04457436108,-0.2336464898
2.2,-0.04841416197,-0.232747204
2.21,-0.05224255749,-0.2317806112
2.22,-0.05605810419,-0.2307468234
2.23,-0.05985936515,-0.2296459903
2.24,-0.06364491098,-0.2284782986
2.25,-0.06741332082,-0.2272439719
2.26,-0.07116318336,-0.2259432696
2.27,-0.07489309773,-0.2245764868
2.28,-0.07860167447,-0.2231439532
2.29,-0.08228753637,-0.2216460328
2.3,-0.08594931939,-0.2200831234
2.31,-0.08958567344,-0.2184556554
2.32,-0.09319526319,-0.2167640916
2.33,-0.09677676884,-0.2150089261
2.34,-0.1003288868,-0.2131906839
2.35,-0.1038503306,-0.2113099199
2.36,-0.1073398312,-0.2093672182
2.37,-0.1107961378,-0.2073631915
2.38,-0.1142180186,-0.20529848
2.39,-0.1176042611,-0.2031737508
2.4,-0.1209536727,-0.2009896972
2.41,-0.1242650813,-0.1987470377
2.42,-0.1275373355,-0.196446515
2.43,-0.1307693055,-0.1940888958
2.44,-0.1339598828,-0.1916749693
2.45,-0.1371079812,-0.1892055468
2.46,-0.1402125368,-0.1866814608
2.47,-0.1432725082,-0.184103564
2.48,-0.146286877,-0.1814727288
2.49,-0.149254648,-0.1787898461
2.5,-0.152174849,-0.1760558249
2.51,-0.1550465317,-0.1732715912
2.52,-0.1578687709,-0.1704380875
2.53,-0.1606406654,-0.1675562718
2.54,-0.1633613377,-0.1646271167
2.55,-0.166029934,-0.1616516092
2.56,-0.1686456245,-0.1586307493
2.57,-0.171207603,-0.15556555
2.58,-0.1737150872,-0.1524570358
2.59,-0.1761673186,-0.1493062427
2.6,-0.1785635621,-0.146114217
2.61,-0.1809031063,-0.1428820153
2.62,-0.1831852634,-0.139610703
2.63,-0.1854093685,-0.1363013544
2.64,-0.1875747802,-0.132955052
2.65,-0.18968088,-0.1295728856
2.66,-0.191727072,-0.126155952
2.67,-0.193712783,-0.1227053544
2.68,-0.1956374624,-0.1192222022
2.69,-0.1975005815,-0.1157076097
2.7,-0.1993016336,-0.1121626968
2.71,-0.2010401339,-0.1085885875
2.72,-0.2027156187,-0.1049864102
2.73,-0.204327646,-0.1013572968
2.74,-0.2058757944,-0.09770238287
2.75,-0.2073596633,-0.09402280675
2.76,-0.2087788727,-0.09031970961
2.77,-0.2101330628,-0.08659423499
2.78,-0.2114218937,-0.08284752851
2.79,-0.2126450451,-0.07908073767
2.8,-0.2138022165,-0.07529501155
2.81,-0.2148931263,-0.07149150063
2.82,-0.2159175122,-0.06767135653
2.83,-0.2168751303,-0.06383573186
2.84,-0.2177657557,-0.05998578007
2.85,-0.2185891814,-0.05612265522
2.86,-0.2193452189,-0.05224751192
2.87,-0.2200336974,-0.04836150515
2.88,-0.220654464,-0.04446579019
2.89,-0.2212073834,-0.04056152248
2.9,-0.2216923376,-0.03664985756
2.91,-0.2221092262,-0.03273195098
2.92,-0.2224579656,-0.02880895826
2.93,-0.2227384895,-0.02488203478
2.94,-0.2229507485,-0.02095233577
2.95,-0.2230947102,-0.01702101625
2.96,-0.2231703588,-0.01308923099
2.97,-0.2231776953,-0.009158134471
2.98,-0.2231167375,-0.005228880849
2.99,-0.2229875198,-0.001302623927
3,-0.2227900934,0.002619482884
3.01,-0.2225245261,0.006536286595
3.02,-0.2221909024,0.01044663468
3.03,-0.2217893235,0.0143493751
3.04,-0.2213199076,0.01824335638
3.05,-0.2207827897,0.02212742762
3.06,-0.2201781215,0.02600043857
3.07,-0.2195060721,0.0298612397
3.08,-0.2187668276,0.03370868226
3.09,-0.2179605913,0.03754161835
3.1,-0.217087584,0.04135890106
3.11,-0.2161480441,0.0451593845
3.12,-0.2151422275,0.048941924
3.13,-0.2140704082,0.05270537615
3.14,-0.212932878,0.05644859902
3.15,-0.2117299472,0.06017045228
3.16,-0.2104619443,0.06386979738
3.17,-0.2091292164,0.06754549773
3.18,-0.2077321295,0.07119641893
3.19,-0.2062710684,0.07482142896
3.2,-0.2047464373,0.07841939847
3.21,-0.2031586598,0.08198920097
3.22,-0.2015081789,0.08552971316
3.23,-0.1997954575,0.08903981521
3.24,-0.1980209787,0.09251839108
3.25,-0.1961852456,0.09596432883
3.26,-0.1942887818,0.099376521
3.27,-0.1923321315,0.102753865
3.28,-0.1903158595,0.1060952633
3.29,-0.1882405519,0.1093996243
3.3,-0.1861068158,0.1126658623
3.31,-0.1839152794,0.115892898
3.32,-0.1816665926,0.1190796592
3.33,-0.1793614266,0.1222250812
3.34,-0.1770004747,0.1253281072
3.35,-0.1745844515,0.1283876889
3.36,-0.1721140939,0.1314027868
3.37,-0.1695901604,0.1343723712
3.38,-0.1670134319,0.1372954224
3.39,-0.164384711,0.1401709314
3.4,-0.1617048226,0.1429979004
3.41,-0.1589746137,0.1457753435
3.42,-0.156194953,0.1485022873
3.43,-0.1533667316,0.1511777716
3.44,-0.1504908622,0.1538008496
3.45,-0.1475682797,0.1563705893
3.46,-0.1445999404,0.1588860734
3.47,-0.1415868222,0.1613464004
3.48,-0.1385299245,0.1637506851
3.49,-0.1354302679,0.1660980592
3.5,-0.132288894,0.1683876722
3.51,-0.129106865,0.1706186919
3.52,-0.1258852638,0.172790305
3.53,-0.1226251932,0.1749017178
3.54,-0.1193277761,0.176952157
3.55,-0.1159941545,0.1789408702
3.56,-0.1126254899,0.1808671267
3.57,-0.1092229622,0.1827302181
3.58,-0.1057877697,0.1845294586
3.59,-0.1023211283,0.1862641861
3.6,-0.0988242713,0.1879337628
3.61,-0.09529844872,0.1895375755
3.62,-0.09174492678,0.1910750361
3.63,-0.08816498732,0.1925455828
3.64,-0.08455992721,0.1939486801
3.65,-0.08093105774,0.1952838195
3.66,-0.07727970396,0.1965505199
3.67,-0.07360720399,0.1977483286
3.68,-0.06991490834,0.1988768212
3.69,-0.06620417923,0.1999356022
3.7,-0.06247638978,0.2009243058
3.71,-0.05873292331,0.2018425958
3.72,-0.05497517254,0.2026901664
3.73,-0.05120453879,0.2034667424
3.74,-0.04742243119,0.2041720795
3.75,-0.04363026583,0.2048059648
3.76,-0.03982946494,0.2053682166
3.77,-0.03602145599,0.2058586855
3.78,-0.03220767087,0.2062772537
3.79,-0.028389545,0.2066238358
3.8,-0.02456851641,0.2068983788
3.81,-0.02074602488,0.2071008623
3.82,-0.016923511,0.2072312983
3.83,-0.0131024153,0.2072897317
3.84,-0.009284177293,0.2072762399
3.85,-0.005470234589,0.2071909332
3.86,-0.001662021955,0.2070339545
3.87,0.002139029593,0.2068054795
3.88,0.005931493712,0.2065057163
3.89,0.009713949647,0.2061349054
3.9,0.01348498314,0.2056933195
3.91,0.01724318735,0.2051812636
3.92,0.02098716372,0.2045990742
3.93,0.02471552288,0.2039471195
3.94,0.02842688557,0.2032257991
3.95,0.03211988344,0.2024355435
3.96,0.03579315994,0.2015768136
3.97,0.03944537116,0.2006501008
3.98,0.04307518668,0.1996559261
3.99,0.04668129032,0.19859484
4,0.050262381,0.1974674219
4.01,0.05381717347,0.1962742794
4.02,0.0573443991,0.1950160482
4.03,0.06084280657,0.1936933913
4.04,0.06431116262,0.1923069984
4.05,0.06774825273,0.1908575853
4.06,0.07115288175,0.1893458936
4.07,0.07452387461,0.1877726894
4.08,0.07786007686,0.1861387634
4.09,0.0811603553,0.1844449297
4.1,0.08442359855,0.1826920253
4.11,0.08764871753,0.1808809094
4.12,0.09083464602,0.1790124625
4.13,0.09398034112,0.177087586
4.14,0.09708478367,0.175107201
4.15,0.1001469787,0.173072248
4.16,0.1031659558,0.1709836856
4.17,0.1061407694,0.1688424902
4.18,0.1090704994,0.166649655
4.19,0.1119542509,0.1644061892
4.2,0.1147911551,0.1621131172
4.21,0.1175803691,0.1597714778
4.22,0.1203210762,0.1573823235
4.23,0.1230124863,0.1549467195
4.24,0.1256538355,0.1524657428
4.25,0.1282443868,0.1499404821
4.26,0.13078343,0.147372036
4.27,0.1332702814,0.1447615129
4.28,0.1357042845,0.14211003
4.29,0.1380848092,0.1394187125
4.3,0.1404112525,0.1366886929
4.31,0.142683038,0.1339211101
4.32,0.1448996157,0.1311171087
4.33,0.1470604625,0.1282778385
4.34,0.1491650813,0.1254044535
4.35,0.1512130014,0.1224981111
4.36,0.1532037782,0.1195599717
4.37,0.1551369926,0.1165911979
4.38,0.1570122513,0.1135929538
4.39,0.1588291864,0.1105664043
4.4,0.1605874548,0.1075127146
4.41,0.1622867382,0.1044330496
4.42,0.163926743,0.1013285732
4.43,0.1655071995,0.09820044774
4.44,0.1670278618,0.09504983355
4.45,0.1684885075,0.09187788835
4.46,0.1698889372,0.08868576678
4.47,0.1712289742,0.0854746199
4.48,0.1725084643,0.08224559474
4.49,0.1737272748,0.07899983386
4.5,0.1748852948,0.07573847495
4.51,0.1759824344,0.07246265042
4.52,0.1770186244,0.06917348705
4.53,0.1779938158,0.06587210565
4.54,0.1789079793,0.06255962071
4.55,0.1797611053,0.05923714015
4.56,0.1805532027,0.05590576502
4.57,0.1812842994,0.05256658921
4.58,0.181954441,0.0492206993
4.59,0.1825636911,0.04586917429
4.6,0.1831121302,0.04251308544
4.61,0.1835998559,0.0391534961
4.62,0.1840269822,0.03579146154
4.63,0.1843936389,0.03242802887
4.64,0.1846999716,0.0290642369
4.65,0.1849461412,0.02570111605
4.66,0.1851323231,0.02233968831
4.67,0.1852587075,0.01898096716
4.68,0.1853254986,0.01562595752
4.69,0.1853329142,0.01227565577
4.7,0.1852811859,0.008931049716
4.71,0.1851705579,0.005593118589
4.72,0.1850012877,0.002262833084
4.73,0.1847736449,-0.001058844621
4.74,0.1844879115,-0.004370960821
4.75,0.1841443814,-0.007672570234
4.76,0.1837433601,-0.01096273594
4.77,0.1832851648,-0.0142405293
4.78,0.1827701237,-0.01750502992
4.79,0.1821985762,-0.02075532552
4.8,0.1815708722,-0.02399051189
4.81,0.1808873727,-0.02720969278
4.82,0.180148449,-0.03041197981
4.83,0.1793544827,-0.03359649239
4.84,0.1785058659,-0.03676235759
4.85,0.1776030004,-0.03990871012
4.86,0.1766462985,-0.04303469217
4.87,0.1756361823,-0.04613945332
4.88,0.1745730836,-0.04922215052
4.89,0.1734574443,-0.05228194794
4.9,0.172289716,-0.05531801693
4.91,0.1710703601,-0.05832953594
4.92,0.169799848,-0.06131569047
4.93,0.1684786605,-0.06427567297
4.94,0.1671072885,-0.06720868285
4.95,0.1656862327,-0.07011392643
4.96,0.1642160035,-0.07299061688
4.97,0.1626971216,-0.07583797424
4.98,0.1611301173,-0.07865522539
4.99,0.1595155312,-0.08144160409
5,0.1578539139,-0.08419635095
5.01,0.1561458263,-0.08691871352
5.02,0.1543918396,-0.08960794628
5.03,0.1525925353,-0.09226331076
5.04,0.1507485054,-0.09488407555
5.05,0.1488603527,-0.09746951644
5.06,0.1469286904,-0.1000189165
5.07,0.1449541427,-0.1025315662
5.08,0.1429373446,-0.1050067636
5.09,0.1408789422,-0.1074438143
5.1,0.1387795925,-0.109842032
5.11,0.136639964,-0.1122007381
5.12,0.1344607362,-0.1145192626
5.13,0.1322426002,-0.1167969435
5.14,0.1299862584,-0.1190331279
5.15,0.127692425,-0.1212271715
5.16,0.1253618255,-0.1233784392
5.17,0.1229951973,-0.1254863054
5.18,0.1205932895,-0.1275501541
5.19,0.118156863,-0.1295693793
5.2,0.1156866903,-0.1315433854
5.21,0.1131835561,-0.1334715872
5.22,0.1106482566,-0.1353534106
5.23,0.1080815999,-0.1371882927
5.24,0.105484406,-0.1389756823
5.25,0.1028575068,-0.1407150401
5.26,0.1002017455,-0.1424058392
5.27,0.09751797731,-0.1440475653
5.28,0.09480706893,-0.1456397172
5.29,0.0920698985,-0.1471818075
5.3,0.0893073555,-0.1486733623
5.31,0.08652034065,-0.1501139221
5.32,0.08370976572,-0.1515030422
5.33,0.08087655335,-0.1528402927
5.34,0.07802163691,-0.1541252595
5.35,0.07514596021,-0.1553575442
5.36,0.07225047732,-0.1565367647
5.37,0.06933615232,-0.1576625555
5.38,0.06640395901,-0.1587345683
5.39,0.06345488059,-0.1597524724
5.4,0.06048990944,-0.1607159546
5.41,0.05751004668,-0.1616247204
5.42,0.05451630191,-0.1624784934
5.43,0.05150969278,-0.1632770167
5.44,0.04849124465,-0.1640200525
5.45,0.04546199013,-0.1647073827
5.46,0.04242296872,-0.1653388093
5.47,0.0393752263,-0.1659141546
5.48,0.03631981473,-0.1664332618
5.49,0.03325779133,-0.1668959948
5.5,0.0301902184,-0.1673022389
5.51,0.02711816272,-0.167651901
5.52,0.02404269502,-0.1679449098
5.53,0.02096488945,-0.1681812158
5.54,0.01788582299,-0.1683607921
5.55,0.01480657493,-0.1684836341
5.56,0.01172822629,-0.1685497597
5.57,0.008651859194,-0.1685592097
5.58,0.005578556309,-0.1685120481
5.59,0.002509400218,-0.1684083615
5.6,-0.000554527192,-0.1682482599
5.61,-0.003612145351,-0.1680318767
5.62,-0.006662375642,-0.1677593682
5.63,-0.009704142032,-0.1674309142
5.64,-0.01273637172,-0.167046718
5.65,-0.01575799576,-0.166607006
5.66,-0.01876794975,-0.1661120278
5.67,-0.02176517443,-0.1655620564
5.68,-0.02474861635,-0.1649573877
5.69,-0.02771722854,-0.1642983409
5.7,-0.03066997111,-0.1635852578
5.71,-0.03360581194,-0.1628185029
5.72,-0.03652372725,-0.1619984634
5.73,-0.03942270231,-0.1611255487
5.74,-0.04230173203,-0.1602001902
5.75,-0.04515982154,-0.1592228412
5.76,-0.04799598687,-0.1581939767
5.77,-0.0508092555,-0.1571140925
5.78,-0.05359866696,-0.1559837059
5.79,-0.05636327344,-0.1548033542
5.8,-0.0591021403,-0.1535735953
5.81,-0.06181434664,-0.1522950067
5.82,-0.06449898587,-0.1509681854
5.83,-0.0671551662,-0.1495937474
5.84,-0.06978201115,-0.1481723271
5.85,-0.07237866003,-0.1467045771
5.86,-0.07494426842,-0.1451911676
5.87,-0.07747800866,-0.1436327857
5.88,-0.07997907019,-0.1420301353
5.89,-0.08244666006,-0.1403839363
5.9,-0.08488000327,-0.1386949239
5.91,-0.08727834313,-0.1369638486
5.92,-0.08964094166,-0.135191475
5.93,-0.09196707987,-0.1333785816
5.94,-0.09425605809,-0.1315259602
5.95,-0.09650719625,-0.1296344151
5.96,-0.09871983412,-0.1277047628
5.97,-0.1008933316,-0.1257378309
5.98,-0.1030270688,-0.1237344582
5.99,-0.1051204464,-0.1216954933
6,-0.1071728857,-0.1196217947
