"Freq [GHz]","re(S(Tx_p1,Tx_p1)) []","im(S(Tx_p1,Tx_p1)) []"
1,0.159975438,-0.07599211625
1.01,0.1581831188,-0.0751634619
1.02,0.1564735197,-0.07440428535
1.03,0.1548419232,-0.07371318314
1.04,0.1532838103,-0.07308877829
1.05,0.1517948492,-0.07252971844
1.06,0.150370886,-0.07203467409
1.07,0.1490079344,-0.07160233692
1.08,0.1477021675,-0.07123141816
1.09,0.1464499092,-0.07092064713
1.1,0.1452476266,-0.07066876977
1.11,0.1440919229,-0.07047454728
1.12,0.1429795306,-0.07033675483
1.13,0.1419073052,-0.07025418033
1.14,0.1408722194,-0.07022562325
1.15,0.1398713574,-0.07024989352
1.16,0.1389019103,-0.07032581049
1.17,0.1379611705,-0.07045220191
1.18,0.1370465281,-0.07062790298
1.19,0.1361554658,-0.0708517555
1.2,0.1352855558,-0.07112260697
1.21,0.1344344557,-0.07143930984
1.22,0.133599905,-0.07180072073
1.23,0.1327797221,-0.07220569973
1.24,0.1319718015,-0.07265310975
1.25,0.1311741104,-0.07314181589
1.26,0.1303846867,-0.07367068485
1.27,0.1296016362,-0.07423858445
1.28,0.1288231304,-0.07484438306
1.29,0.1280474047,-0.0754869492
1.3,0.1272727559,-0.07616515112
1.31,0.1264975406,-0.07687785638
1.32,0.1257201737,-0.07762393158
1.33,0.1249391264,-0.078402242
1.34,0.1241529249,-0.07921165138
1.35,0.1233601494,-0.08005102164
1.36,0.1225594319,-0.08091921277
1.37,0.1217494559,-0.0818150826
1.38,0.1209289548,-0.08273748671
1.39,0.120096711,-0.08368527838
1.4,0.1192515551,-0.08465730847
1.41,0.1183923646,-0.08565242546
1.42,0.1175180635,-0.08666947546
1.43,0.1166276212,-0.08770730224
1.44,0.1157200519,-0.08876474734
1.45,0.1147944141,-0.08984065015
1.46,0.1138498098,-0.09093384811
1.47,0.1128853838,-0.09204317684
1.48,0.1119003234,-0.09316747036
1.49,0.1108938578,-0.09430556134
1.5,0.1098652575,-0.09545628136
1.51,0.1088138339,-0.09661846121
1.52,0.1077389392,-0.09779093117
1.53,0.1066399653,-0.09897252141
1.54,0.1055163442,-0.1001620623
1.55,0.1043675469,-0.101358385
1.56,0.1031930836,-0.1025603215
1.57,0.101992503,-0.1037667055
1.58,0.1007653921,-0.1049763725
1.59,0.09951137575,-0.1061881605
1.6,0.09823011657,-0.1074009105
1.61,0.09692131429,-0.1086134669
1.62,0.09558470563,-0.1098246782
1.63,0.09422006388,-0.1110333975
1.64,0.09282719858,-0.1122384828
1.65,0.09140595517,-0.113438798
1.66,0.08995621466,-0.1146332135
1.67,0.08847789324,-0.1158206062
1.68,0.08697094191,-0.1169998609
1.69,0.08543534613,-0.1181698704
1.7,0.08387112541,-0.1193295364
1.71,0.08227833289,-0.1204777699
1.72,0.08065705495,-0.1216134921
1.73,0.07900741077,-0.1227356349
1.74,0.07732955186,-0.1238431416
1.75,0.07562366165,-0.1249349673
1.76,0.07388995494,-0.1260100802
1.77,0.07212867748,-0.1270674615
1.78,0.07034010538,-0.1281061063
1.79,0.06852454467,-0.1291250246
1.8,0.06668233067,-0.1301232413
1.81,0.06481382747,-0.1310997974
1.82,0.06291942735,-0.1320537502
1.83,0.06099955017,-0.1329841741
1.84,0.05905464276,-0.1338901612
1.85,0.05708517828,-0.1347708219
1.86,0.05509165558,-0.1356252852
1.87,0.05307459852,-0.1364526997
1.88,0.05103455531,-0.1372522337
1.89,0.04897209781,-0.1380230761
1.9,0.04688782079,-0.1387644365
1.91,0.04478234124,-0.1394755463
1.92,0.04265629761,-0.1401556582
1.93,0.04051034906,-0.1408040477
1.94,0.0383451747,-0.1414200129
1.95,0.03616147281,-0.1420028749
1.96,0.03395996005,-0.1425519785
1.97,0.03174137067,-0.1430666922
1.98,0.02950645569,-0.1435464088
1.99,0.02725598213,-0.1439905457
2,0.02499073211,-0.1443985449
2.01,0.02271150212,-0.1447698735
2.02,0.02041910211,-0.145104024
2.03,0.01811435469,-0.1454005141
2.04,0.01579809429,-0.1456588875
2.05,0.01347116634,-0.1458787133
2.06,0.01113442638,-0.1460595869
2.07,0.008788739265,-0.1462011294
2.08,0.006434978322,-0.1463029881
2.09,0.004074024498,-0.1463648366
2.1,0.001706765544,-0.1463863742
2.11,-0.0006659048162,-0.1463673268
2.12,-0.003043087702,-0.146307446
2.13,-0.00542387989,-0.1462065097
2.14,-0.007807374618,-0.1460643214
2.15,-0.01019266238,-0.1458807107
2.16,-0.0125788317,-0.1456555328
2.17,-0.01496496993,-0.1453886681
2.18,-0.01735016398,-0.1450800227
2.19,-0.0197335011,-0.1447295275
2.2,-0.02211406955,-0.1443371385
2.21,-0.02449095942,-0.1439028358
2.22,-0.02686326321,-0.1434266244
2.23,-0.02923007663,-0.1429085329
2.24,-0.03159049919,-0.1423486136
2.25,-0.03394363487,-0.1417469423
2.26,-0.03628859277,-0.1411036175
2.27,-0.03862448769,-0.1404187606
2.28,-0.04095044075,-0.1396925149
2.29,-0.04326557993,-0.1389250456
2.3,-0.04556904066,-0.1381165393
2.31,-0.04785996631,-0.1372672034
2.32,-0.05013750868,-0.1363772659
2.33,-0.05240082854,-0.1354469747
2.34,-0.05464909606,-0.1344765972
2.35,-0.05688149123,-0.1334664199
2.36,-0.05909720429,-0.1324167478
2.37,-0.06129543613,-0.1313279041
2.38,-0.06347539862,-0.1302002293
2.39,-0.06563631502,-0.1290340813
2.4,-0.06777742021,-0.1278298341
2.41,-0.06989796108,-0.126587878
2.42,-0.07199719674,-0.1253086187
2.43,-0.07407439879,-0.123992477
2.44,-0.07612885154,-0.1226398881
2.45,-0.07815985224,-0.1212513009
2.46,-0.08016671124,-0.1198271781
2.47,-0.08214875217,-0.1183679951
2.48,-0.08410531204,-0.1168742398
2.49,-0.08603574143,-0.115346412
2.5,-0.08793940451,-0.1137850229
2.51,-0.08981567919,-0.1121905947
2.52,-0.09166395714,-0.1105636599
2.53,-0.09348364382,-0.1089047611
2.54,-0.09527415856,-0.1072144504
2.55,-0.09703493451,-0.1054932889
2.56,-0.09876541867,-0.1037418465
2.57,-0.1004650718,-0.101960701
2.58,-0.1021333686,-0.1001504383
2.59,-0.1037697972,-0.09831165144
2.6,-0.1053738597,-0.09644494052
2.61,-0.1069450715,-0.09455091222
2.62,-0.1084829616,-0.09263017947
2.63,-0.1099870725,-0.09068336108
2.64,-0.1114569598,-0.08871108138
2.65,-0.1128921923,-0.08671396995
2.66,-0.1142923518,-0.08469266127
2.67,-0.1156570332,-0.08264779445
2.68,-0.1169858438,-0.08058001294
2.69,-0.1182784039,-0.07848996429
2.7,-0.1195343461,-0.07637829987
2.71,-0.1207533152,-0.07424567468
2.72,-0.1219349683,-0.07209274708
2.73,-0.1230789746,-0.06992017864
2.74,-0.1241850149,-0.06772863395
2.75,-0.125252782,-0.06551878041
2.76,-0.12628198,-0.06329128809
2.77,-0.1272723246,-0.06104682961
2.78,-0.1282235427,-0.05878607999
2.79,-0.1291353723,-0.05650971651
2.8,-0.1300075623,-0.05421841865
2.81,-0.1308398727,-0.05191286798
2.82,-0.1316320738,-0.04959374806
2.83,-0.132383947,-0.04726174438
2.84,-0.1330952839,-0.04491754434
2.85,-0.1337658863,-0.04256183714
2.86,-0.1343955668,-0.04019531376
2.87,-0.1349841477,-0.03781866694
2.88,-0.1355314618,-0.03543259117
2.89,-0.1360373517,-0.03303778262
2.9,-0.13650167,-0.03063493918
2.91,-0.1369242794,-0.02822476043
2.92,-0.1373050525,-0.02580794764
2.93,-0.1376438715,-0.02338520377
2.94,-0.137940629,-0.0209572335
2.95,-0.1381952268,-0.0185247432
2.96,-0.1384075772,-0.01608844097
2.97,-0.138577602,-0.01364903663
2.98,-0.138705233,-0.01120724174
2.99,-0.138790412,-0.008763769603
3,-0.1388330909,-0.006319335284
3.01,-0.1388332315,-0.003874655593
3.02,-0.1387908059,-0.0014304491
3.03,-0.1387057965,0.001012563876
3.04,-0.1385781958,0.003453661271
3.05,-0.1384080069,0.005892119296
3.06,-0.1381952435,0.008327212458
3.07,-0.1379399299,0.01075821359
3.08,-0.1376421014,0.01318439387
3.09,-0.1373018041,0.01560502292
3.1,-0.1369190952,0.01801936879
3.11,-0.1364940432,0.02042669807
3.12,-0.1360267283,0.02282627596
3.13,-0.135517242,0.02521736634
3.14,-0.1349656876,0.02759923188
3.15,-0.1343721807,0.02997113417
3.16,-0.1337368487,0.03233233378
3.17,-0.1330598315,0.03468209049
3.18,-0.1323412817,0.03701966335
3.19,-0.1315813643,0.03934431087
3.2,-0.1307802575,0.04165529125
3.21,-0.1299381525,0.04395186249
3.22,-0.129055254,0.04623328263
3.23,-0.1281317799,0.04849880999
3.24,-0.1271679621,0.05074770335
3.25,-0.1261640462,0.05297922225
3.26,-0.1251202921,0.05519262723
3.27,-0.1240369736,0.05738718009
3.28,-0.1229143792,0.0595621442
3.29,-0.121752812,0.06171678481
3.3,-0.1205525896,0.06385036934
3.31,-0.1193140448,0.06596216775
3.32,-0.1180375252,0.06805145284
3.33,-0.1167233938,0.07011750064
3.34,-0.1153720285,0.07215959078
3.35,-0.1139838231,0.07417700685
3.36,-0.1125591865,0.07616903681
3.37,-0.1110985434,0.0781349734
3.38,-0.1096023339,0.08007411453
3.39,-0.1080710141,0.08198576374
3.4,-0.1065050556,0.08386923062
3.41,-0.104904946,0.08572383123
3.42,-0.1032711884,0.08754888859
3.43,-0.1016043017,0.08934373312
3.44,-0.0999048208,0.09110770311
3.45,-0.09817329602,0.09284014517
3.46,-0.0964102934,0.09454041475
3.47,-0.09461639453,0.09620787657
3.48,-0.09279219644,0.09784190514
3.49,-0.09093831148,0.09944188522
3.5,-0.08905536722,0.1010072123
3.51,-0.08714400622,0.1025372932
3.52,-0.08520488591,0.1040315464
3.53,-0.08323867839,0.1054894024
3.54,-0.08124607018,0.1069103047
3.55,-0.079227762,0.1082937099
3.56,-0.07718446851,0.109639088
3.57,-0.07511691804,0.1109459235
3.58,-0.07302585227,0.112213715
3.59,-0.07091202595,0.1134419766
3.6,-0.0687762065,0.1146302376
3.61,-0.06661917374,0.1157780433
3.62,-0.06444171941,0.1168849553
3.63,-0.06224464689,0.117950552
3.64,-0.0600287707,0.1189744291
3.65,-0.0577949161,0.1199561996
3.66,-0.05554391865,0.1208954946
3.67,-0.05327662375,0.1217919636
3.68,-0.05099388614,0.1226452745
3.69,-0.04869656942,0.1234551146
3.7,-0.04638554556,0.12422119
3.71,-0.04406169432,0.1249432268
3.72,-0.04172590276,0.125620971
3.73,-0.0393790647,0.1262541884
3.74,-0.03702208012,0.1268426657
3.75,-0.0346558546,0.1273862097
3.76,-0.03228129876,0.1278846486
3.77,-0.02989932764,0.1283378311
3.78,-0.02751086015,0.1287456275
3.79,-0.02511681838,0.129107929
3.8,-0.02271812706,0.1294246487
3.81,-0.02031571293,0.1296957208
3.82,-0.0179105041,0.1299211014
3.83,-0.01550342941,0.1301007681
3.84,-0.01309541784,0.1302347203
3.85,-0.01068739788,0.1303229789
3.86,-0.00828029685,0.1303655868
3.87,-0.005875040329,0.1303626081
3.88,-0.003472551495,0.1303141287
3.89,-0.001073750514,0.130220256
3.9,0.001320446089,0.1300811187
3.91,0.003709126039,0.1298968667
3.92,0.006091381924,0.1296676709
3.93,0.0084663118,0.1293937233
3.94,0.01083301978,0.1290752364
3.95,0.01319061664,0.1287124432
3.96,0.01553822035,0.1283055969
3.97,0.01787495671,0.1278549707
3.98,0.02019995984,0.1273608575
3.99,0.02251237278,0.1268235696
4,0.02481134795,0.126243438
4.01,0.02709604774,0.125620813
4.02,0.02936564497,0.1249560626
4.03,0.03161932338,0.1242495732
4.04,0.03385627811,0.1235017486
4.05,0.03607571615,0.1227130098
4.06,0.03827685675,0.1218837946
4.07,0.0404589319,0.121014557
4.08,0.04262118666,0.1201057668
4.09,0.04476287958,0.1191579095
4.1,0.04688328305,0.118171485
4.11,0.04898168365,0.1171470082
4.12,0.05105738246,0.1160850075
4.13,0.05310969537,0.1149860251
4.14,0.05513795332,0.1138506157
4.15,0.05714150265,0.1126793469
4.16,0.05911970522,0.1114727978
4.17,0.06107193872,0.1102315591
4.18,0.06299759683,0.1089562323
4.19,0.06489608938,0.1076474291
4.2,0.06676684251,0.1063057711
4.21,0.06860929882,0.1049318891
4.22,0.07042291746,0.1035264227
4.23,0.07220717422,0.1020900194
4.24,0.0739615616,0.1006233346
4.25,0.07568558886,0.0991270308
4.26,0.07737878203,0.09760177705
4.27,0.07904068396,0.09604824847
4.28,0.08067085426,0.09446712576
4.29,0.08226886927,0.0928590947
4.3,0.08383432205,0.09122484562
4.31,0.08536682229,0.08956507293
4.32,0.0868659962,0.08788047466
4.33,0.08833148644,0.08617175193
4.34,0.089762952,0.08443960857
4.35,0.09116006802,0.08268475061
4.36,0.09252252572,0.08090788586
4.37,0.09385003215,0.07910972351
4.38,0.09514231008,0.07729097367
4.39,0.09639909776,0.07545234703
4.4,0.09762014876,0.07359455443
4.41,0.0988052317,0.07171830653
4.42,0.09995413011,0.06982431342
4.43,0.1010666421,0.06791328429
4.44,0.1021425802,0.06598592714
4.45,0.1031817711,0.06404294842
4.46,0.1041840552,0.06208505276
4.47,0.1051492867,0.06011294273
4.48,0.1060773331,0.05812731851
4.49,0.106968075,0.0561288777
4.5,0.1078214056,0.05411831509
4.51,0.1086372309,0.05209632241
4.52,0.1094154689,0.05006358818
4.53,0.1101560497,0.0480207975
4.54,0.110858915,0.04596863192
4.55,0.1115240178,0.04390776924
4.56,0.1121513224,0.04183888346
4.57,0.1127408039,0.03976264456
4.58,0.1132924477,0.03767971851
4.59,0.1138062498,0.03559076708
4.6,0.1142822161,0.03349644784
4.61,0.1147203621,0.03139741408
4.62,0.1151207131,0.02929431475
4.63,0.1154833035,0.02718779444
4.64,0.1158081767,0.02507849337
4.65,0.1160953848,0.02296704735
4.66,0.1163449887,0.02085408781
4.67,0.1165570574,0.01874024182
4.68,0.1167316682,0.01662613206
4.69,0.1168689062,0.01451237691
4.7,0.1169688643,0.01239959048
4.71,0.1170316431,0.01028838262
4.72,0.1170573505,0.008179359017
4.73,0.1170461016,0.006073121227
4.74,0.1169980188,0.00397026676
4.75,0.1169132312,0.001871389147
4.76,0.1167918751,-0.0002229219919
4.77,0.1166340933,-0.00231208086
4.78,0.1164400354,-0.004395505407
4.79,0.1162098576,-0.006472617247
4.8,0.1159437225,-0.008542841572
4.81,0.1156417994,-0.01060560707
4.82,0.1153042636,-0.01266034584
4.83,0.1149312972,-0.01470649332
4.84,0.1145230883,-0.01674348817
4.85,0.1140798317,-0.01877077226
4.86,0.1136017282,-0.02078779052
4.87,0.1130889852,-0.02279399095
4.88,0.1125418163,-0.02478882448
4.89,0.1119604416,-0.02677174495
4.9,0.1113450876,-0.02874220907
4.91,0.1106959873,-0.03069967634
4.92,0.1100133802,-0.03264360903
4.93,0.1092975125,-0.03457347213
4.94,0.1085486372,-0.03648873336
4.95,0.1077670137,-0.03838886313
4.96,0.1069529086,-0.04027333454
4.97,0.1061065954,-0.04214162339
4.98,0.1052283544,-0.04399320819
4.99,0.1043184735,-0.04582757018
5,0.1033772474,-0.04764419339
5.01,0.1024049785,-0.04944256466
5.02,0.1014019765,-0.05122217371
5.03,0.1003685588,-0.05298251319
5.04,0.09930505066,-0.05472307881
5.05,0.09821178486,-0.0564433694
5.06,0.09708910238,-0.05814288699
5.07,0.09593735218,-0.05982113697
5.08,0.09475689146,-0.06147762823
5.09,0.09354808568,-0.06311187323
5.1,0.09231130874,-0.06472338823
5.11,0.09104694304,-0.06631169339
5.12,0.08975537963,-0.067876313
5.13,0.08843701822,-0.06941677564
5.14,0.08709226738,-0.07093261436
5.15,0.08572154453,-0.07242336693
5.16,0.08432527607,-0.073888576
5.17,0.08290389741,-0.0753277894
5.18,0.08145785307,-0.07674056032
5.19,0.0799875967,-0.07812644758
5.2,0.07849359113,-0.07948501588
5.21,0.07697630839,-0.08081583608
5.22,0.07543622974,-0.08211848545
5.23,0.07387384569,-0.08339254795
5.24,0.07228965594,-0.08463761453
5.25,0.07068416945,-0.08585328341
5.26,0.06905790433,-0.08703916038
5.27,0.06741138783,-0.0881948591
5.28,0.06574515632,-0.08932000141
5.29,0.06405975513,-0.09041421762
5.3,0.06235573858,-0.09147714686
5.31,0.06063366977,-0.09250843735
5.32,0.05889412055,-0.09350774674
5.33,0.05713767136,-0.09447474241
5.34,0.05536491109,-0.09540910179
5.35,0.05357643693,-0.09631051268
5.36,0.05177285418,-0.09717867357
5.37,0.04995477611,-0.09801329391
5.38,0.04812282369,-0.09881409445
5.39,0.04627762545,-0.09958080753
5.4,0.0444198172,-0.1003131774
5.41,0.04255004179,-0.1010109604
5.42,0.04066894887,-0.1016739255
5.43,0.03877719462,-0.1023018543
5.44,0.03687544145,-0.1028945414
5.45,0.03496435769,-0.1034517947
5.46,0.03304461732,-0.1039734355
5.47,0.03111689959,-0.1044592993
5.48,0.02918188875,-0.104909235
5.49,0.02724027362,-0.1053231061
5.5,0.02529274732,-0.1057007904
5.51,0.02334000683,-0.1060421805
5.52,0.02138275263,-0.1063471835
5.53,0.01942168834,-0.1066157218
5.54,0.01745752026,-0.1068477326
5.55,0.01549095704,-0.1070431688
5.56,0.01352270919,-0.1072019983
5.57,0.01155348871,-0.1073242048
5.58,0.009584008644,-0.1074097874
5.59,0.007614982642,-0.1074587611
5.6,0.005647124526,-0.1074711565
5.61,0.003681147846,-0.1074470201
5.62,0.001717765438,-0.1073864143
5.63,-0.0002423110324,-0.1072894173
5.64,-0.002198371514,-0.107156123
5.65,-0.004149708027,-0.1069866414
5.66,-0.006095615111,-0.1067810981
5.67,-0.008035390282,-0.1065396347
5.68,-0.009968334478,-0.1062624082
5.69,-0.01189375251,-0.1059495913
5.7,-0.01381095351,-0.1056013724
5.71,-0.01571925137,-0.1052179549
5.72,-0.01761796517,-0.1047995576
5.73,-0.01950641964,-0.1043464146
5.74,-0.02138394557,-0.1038587746
5.75,-0.02324988021,-0.1033369011
5.76,-0.02510356771,-0.1027810723
5.77,-0.02694435954,-0.1021915804
5.78,-0.02877161483,-0.101568732
5.79,-0.03058470082,-0.1009128474
5.8,-0.03238299321,-0.1002242603
5.81,-0.0341658765,-0.099503318
5.82,-0.03593274442,-0.09875038063
5.83,-0.03768300018,-0.09796582105
5.84,-0.03941605688,-0.09715002457
5.85,-0.0411313378,-0.09630338854
5.86,-0.04282827669,-0.09542632208
5.87,-0.04450631809,-0.0945192457
5.88,-0.0461649176,-0.09358259096
5.89,-0.04780354214,-0.09261680012
5.9,-0.0494216702,-0.09162232575
5.91,-0.05101879207,-0.09059963038
5.92,-0.05259441008,-0.08954918607
5.93,-0.05414803878,-0.08847147407
5.94,-0.05567920513,-0.0873669844
5.95,-0.05718744869,-0.08623621545
5.96,-0.05867232176,-0.08507967358
5.97,-0.06013338952,-0.08389787272
5.98,-0.06157023018,-0.08269133395
5.99,-0.06298243503,-0.08146058509
6,-0.06436960859,-0.0802061603
