"Freq [GHz]","re(S(Tx_p1,Tx_p1)) []","im(S(Tx_p1,Tx_p1)) []"
1,0.1015306262,-0.05192221052
1.01,0.1004372649,-0.05171119934
1.02,0.09938193574,-0.05154271765
1.03,0.09836181273,-0.05141553631
1.04,0.09737419977,-0.05132844253
1.05,0.0964165244,-0.0512802391
1.06,0.09548633174,-0.05126974371
1.07,0.09458127892,-0.05129578832
1.08,0.0936991297,-0.05135721851
1.09,0.09283774965,-0.05145289304
1.1,0.0919951014,-0.05158168327
1.11,0.09116924039,-0.05174247277
1.12,0.09035831073,-0.05193415691
1.13,0.08956054139,-0.05215564246
1.14,0.08877424257,-0.05240584732
1.15,0.08799780232,-0.05268370018
1.16,0.08722968336,-0.05298814027
1.17,0.08646842001,-0.05331811709
1.18,0.0857126154,-0.05367259028
1.19,0.08496093878,-0.05405052934
1.2,0.08421212293,-0.05445091355
1.21,0.08346496184,-0.05487273177
1.22,0.08271830838,-0.05531498235
1.23,0.08197107218,-0.05577667304
1.24,0.0812222176,-0.05625682086
1.25,0.08047076176,-0.0567544521
1.26,0.07971577275,-0.05726860221
1.27,0.07895636789,-0.05779831578
1.28,0.07819171205,-0.05834264655
1.29,0.07742101606,-0.05890065735
1.3,0.07664353528,-0.05947142012
1.31,0.0758585681,-0.06005401593
1.32,0.07506545461,-0.06064753499
1.33,0.07426357533,-0.06125107668
1.34,0.07345234989,-0.06186374959
1.35,0.07263123592,-0.06248467158
1.36,0.07179972787,-0.06311296979
1.37,0.07095735594,-0.06374778077
1.38,0.07010368504,-0.06438825049
1.39,0.06923831378,-0.06503353443
1.4,0.06836087349,-0.06568279769
1.41,0.06747102736,-0.06633521501
1.42,0.06656846946,-0.06698997093
1.43,0.06565292399,-0.06764625983
1.44,0.06472414436,-0.06830328606
1.45,0.06378191244,-0.068960264
1.46,0.06282603781,-0.06961641824
1.47,0.06185635697,-0.07027098361
1.48,0.06087273266,-0.07092320531
1.49,0.05987505315,-0.07157233907
1.5,0.05886323155,-0.07221765119
1.51,0.05783720519,-0.07285841872
1.52,0.05679693495,-0.07349392955
1.53,0.05574240467,-0.07412348252
1.54,0.05467362052,-0.07474638758
1.55,0.05359061042,-0.07536196586
1.56,0.05249342351,-0.07596954984
1.57,0.0513821295,-0.07656848345
1.58,0.05025681822,-0.0771581222
1.59,0.04911759902,-0.07773783329
1.6,0.04796460028,-0.07830699577
1.61,0.04679796887,-0.07886500062
1.62,0.04561786968,-0.07941125091
1.63,0.04442448509,-0.0799451619
1.64,0.0432180145,-0.08046616116
1.65,0.04199867384,-0.08097368871
1.66,0.04076669513,-0.08146719714
1.67,0.03952232596,-0.0819461517
1.68,0.03826582909,-0.08241003044
1.69,0.03699748193,-0.08285832432
1.7,0.03571757615,-0.08329053732
1.71,0.03442641723,-0.08370618654
1.72,0.03312432396,-0.08410480235
1.73,0.03181162809,-0.08448592843
1.74,0.03048867385,-0.08484912193
1.75,0.0291558175,-0.08519395353
1.76,0.02781342698,-0.08552000756
1.77,0.02646188142,-0.08582688209
1.78,0.02510157073,-0.08611418901
1.79,0.02373289524,-0.08638155412
1.8,0.02235626522,-0.08662861721
1.81,0.02097210049,-0.08685503213
1.82,0.01958083003,-0.08706046688
1.83,0.01818289154,-0.08724460369
1.84,0.01677873107,-0.08740713903
1.85,0.01536880259,-0.08754778371
1.86,0.01395356759,-0.08766626295
1.87,0.01253349469,-0.08776231639
1.88,0.01110905924,-0.08783569813
1.89,0.009680742902,-0.08788617683
1.9,0.008249033289,-0.08791353566
1.91,0.006814423539,-0.08791757239
1.92,0.005377411937,-0.08789809937
1.93,0.003938501518,-0.08785494359
1.94,0.002498199681,-0.08778794662
1.95,0.001057017799,-0.08769696467
1.96,-0.0003845291693,-0.08758186858
1.97,-0.001825923065,-0.08744254378
1.98,-0.003266642908,-0.08727889028
1.99,-0.004706165283,-0.08709082269
2,-0.006143964718,-0.08687827011
2.01,-0.007579514059,-0.08664117615
2.02,-0.009012284845,-0.08637949888
2.03,-0.01044174769,-0.08609321076
2.04,-0.01186737262,-0.08578229857
2.05,-0.01328862951,-0.08544676339
2.06,-0.01470498836,-0.08508662047
2.07,-0.01611591973,-0.0847018992
2.08,-0.01752089504,-0.08429264297
2.09,-0.01891938699,-0.08385890912
2.1,-0.02031086985,-0.08340076881
2.11,-0.02169481983,-0.08291830693
2.12,-0.02307071545,-0.08241162195
2.13,-0.02443803784,-0.08188082583
2.14,-0.02579627111,-0.08132604388
2.15,-0.02714490263,-0.08074741459
2.16,-0.02848342345,-0.08014508954
2.17,-0.0298113285,-0.07951923318
2.18,-0.03112811703,-0.07887002274
2.19,-0.03243329282,-0.07819764802
2.2,-0.03372636456,-0.07750231119
2.21,-0.03500684611,-0.0767842267
2.22,-0.0362742568,-0.07604362099
2.23,-0.03752812175,-0.07528073238
2.24,-0.03876797211,-0.0744958108
2.25,-0.03999334537,-0.07368911764
2.26,-0.04120378561,-0.07286092552
2.27,-0.0423988438,-0.07201151805
2.28,-0.043578078,-0.07114118965
2.29,-0.04474105367,-0.07025024527
2.3,-0.04588734388,-0.06933900021
2.31,-0.04701652953,-0.06840777983
2.32,-0.04812819965,-0.06745691934
2.33,-0.04922195155,-0.06648676355
2.34,-0.05029739105,-0.0654976666
2.35,-0.05135413272,-0.0644899917
2.36,-0.05239180004,-0.06346411089
2.37,-0.05341002563,-0.06242040476
2.38,-0.05440845138,-0.06135926219
2.39,-0.05538672869,-0.06028108005
2.4,-0.05634451858,-0.05918626297
2.41,-0.05728149188,-0.05807522303
2.42,-0.05819732937,-0.05694837947
2.43,-0.05909172192,-0.05580615844
2.44,-0.05996437064,-0.05464899269
2.45,-0.060814987,-0.05347732129
2.46,-0.06164329291,-0.05229158934
2.47,-0.06244902089,-0.05109224767
2.48,-0.06323191414,-0.04987975258
2.49,-0.0639917266,-0.04865456549
2.5,-0.0647282231,-0.0474171527
2.51,-0.06544117938,-0.04616798509
2.52,-0.06613038218,-0.0449075378
2.53,-0.0667956293,-0.04363628993
2.54,-0.06743672964,-0.0423547243
2.55,-0.06805350325,-0.04106332712
2.56,-0.06864578135,-0.03976258768
2.57,-0.06921340638,-0.0384529981
2.58,-0.06975623198,-0.03713505302
2.59,-0.07027412305,-0.03580924931
2.6,-0.07076695571,-0.0344760858
2.61,-0.07123461732,-0.03313606297
2.62,-0.07167700644,-0.0317896827
2.63,-0.07209403283,-0.03043744796
2.64,-0.07248561744,-0.02907986257
2.65,-0.07285169232,-0.02771743088
2.66,-0.07319220063,-0.02635065754
2.67,-0.07350709657,-0.02498004722
2.68,-0.07379634533,-0.02360610434
2.69,-0.07405992301,-0.02222933281
2.7,-0.0742978166,-0.02085023578
2.71,-0.07451002384,-0.0194693154
2.72,-0.07469655318,-0.01808707253
2.73,-0.0748574237,-0.01670400654
2.74,-0.074992665,-0.01532061506
2.75,-0.07510231709,-0.01393739372
2.76,-0.07518643034,-0.01255483596
2.77,-0.07524506532,-0.01117343276
2.78,-0.0752782927,-0.009793672455
2.79,-0.07528619316,-0.008416040502
2.8,-0.07526885723,-0.007041019268
2.81,-0.07522638519,-0.005669087831
2.82,-0.07515888696,-0.004300721772
2.83,-0.07506648191,-0.002936392985
2.84,-0.07494929877,-0.001576569482
2.85,-0.07480747548,-0.0002217152096
2.86,-0.07464115905,0.00112771013
2.87,-0.07445050539,0.002471251256
2.88,-0.0742356792,0.003808457479
2.89,-0.07399685378,0.005138882862
2.9,-0.07373421092,0.006462086382
2.91,-0.07344794069,0.007777632081
2.92,-0.07313824133,0.009085089219
2.93,-0.07280531908,0.01038403241
2.94,-0.072449388,0.01167404176
2.95,-0.07207066981,0.01295470302
2.96,-0.07166939376,0.01422560767
2.97,-0.07124579643,0.01548635309
2.98,-0.07080012157,0.01673654265
2.99,-0.07033261996,0.0179757858
3,-0.06984354919,0.01920369824
3.01,-0.06933317355,0.02041990197
3.02,-0.06880176383,0.0216240254
3.03,-0.06824959716,0.02281570345
3.04,-0.06767695686,0.02399457764
3.05,-0.06708413221,0.02516029616
3.06,-0.06647141838,0.02631251396
3.07,-0.06583911617,0.02745089282
3.08,-0.06518753191,0.02857510143
3.09,-0.06451697725,0.02968481544
3.1,-0.06382776901,0.03077971755
3.11,-0.06312022903,0.03185949752
3.12,-0.06239468399,0.03292385229
3.13,-0.06165146525,0.03397248598
3.14,-0.06089090869,0.03500510995
3.15,-0.06011335453,0.03602144285
3.16,-0.05931914722,0.03702121068
3.17,-0.05850863521,0.03800414678
3.18,-0.05768217087,0.03896999191
3.19,-0.05684011027,0.03991849424
3.2,-0.05598281305,0.04084940942
3.21,-0.05511064229,0.04176250059
3.22,-0.0542239643,0.04265753838
3.23,-0.05332314852,0.04353430097
3.24,-0.05240856737,0.04439257405
3.25,-0.05148059606,0.04523215093
3.26,-0.05053961246,0.04605283244
3.27,-0.04958599699,0.04685442702
3.28,-0.04862013244,0.0476367507
3.29,-0.04764240381,0.04839962712
3.3,-0.04665319823,0.04914288751
3.31,-0.04565290474,0.04986637071
3.32,-0.04464191423,0.05056992318
3.33,-0.04362061925,0.05125339897
3.34,-0.04258941388,0.05191665974
3.35,-0.04154869361,0.05255957477
3.36,-0.0404988552,0.05318202089
3.37,-0.03944029653,0.05378388256
3.38,-0.0383734165,0.0543650518
3.39,-0.03729861487,0.05492542819
3.4,-0.03621629214,0.05546491888
3.41,-0.03512684941,0.05598343854
3.42,-0.03403068829,0.0564809094
3.43,-0.03292821072,0.05695726119
3.44,-0.03181981887,0.05741243111
3.45,-0.030705915,0.05784636387
3.46,-0.02958690138,0.05825901163
3.47,-0.02846318009,0.05865033397
3.48,-0.02733515295,0.05902029792
3.49,-0.02620322139,0.05936887785
3.5,-0.0250677863,0.05969605555
3.51,-0.02392924795,0.06000182013
3.52,-0.02278800583,0.06028616799
3.53,-0.02164445852,0.06054910287
3.54,-0.02049900363,0.06079063571
3.55,-0.01935203761,0.06101078473
3.56,-0.01820395567,0.06120957529
3.57,-0.01705515164,0.06138703995
3.58,-0.01590601787,0.06154321839
3.59,-0.01475694508,0.06167815736
3.6,-0.01360832226,0.06179191068
3.61,-0.01246053657,0.06188453917
3.62,-0.01131397318,0.06195611062
3.63,-0.01016901516,0.06200669975
3.64,-0.009026043397,0.06203638817
3.65,-0.007885436437,0.06204526432
3.66,-0.00674757038,0.06203342343
3.67,-0.005612818769,0.06200096746
3.68,-0.004481552462,0.06194800509
3.69,-0.00335413952,0.06187465159
3.7,-0.00223094509,0.06178102884
3.71,-0.001112331287,0.06166726523
3.72,1.342920202E-06,0.06153349563
3.73,0.001109721828,0.06137986128
3.74,0.00221245311,0.06120650978
3.75,0.003309187933,0.06101359499
3.76,0.004399581071,0.060801277
3.77,0.00548329102,0.06056972199
3.78,0.006559980108,0.06031910223
3.79,0.007629314609,0.06004959598
3.8,0.008690964853,0.05976138738
3.81,0.009744605339,0.05945466643
3.82,0.01078991484,0.05912962886
3.83,0.01182657651,0.05878647606
3.84,0.01285427801,0.058425415
3.85,0.01387271158,0.05804665815
3.86,0.01488157416,0.05765042334
3.87,0.01588056753,0.05723693372
3.88,0.01686939833,0.05680641765
3.89,0.01784777824,0.05635910858
3.9,0.01881542403,0.05589524494
3.91,0.01977205769,0.05541507011
3.92,0.02071740648,0.05491883219
3.93,0.02165120309,0.05440678402
3.94,0.02257318565,0.05387918297
3.95,0.0234830979,0.05333629087
3.96,0.0243806892,0.05277837388
3.97,0.02526571469,0.05220570239
3.98,0.02613793531,0.05161855088
3.99,0.0269971179,0.05101719778
4,0.0278430353,0.0504019254
4.01,0.0286754664,0.04977301972
4.02,0.0294941962,0.04913077036
4.03,0.03029901592,0.04847547034
4.04,0.03108972302,0.04780741604
4.05,0.03186612129,0.04712690699
4.06,0.0326280209,0.04643424578
4.07,0.03337523846,0.0457297379
4.08,0.03410759708,0.0450136916
4.09,0.0348249264,0.04428641776
4.1,0.03552706264,0.04354822972
4.11,0.03621384867,0.04279944315
4.12,0.03688513401,0.0420403759
4.13,0.03754077488,0.04127134787
4.14,0.03818063426,0.04049268082
4.15,0.03880458187,0.03970469825
4.16,0.03941249422,0.03890772524
4.17,0.04000425463,0.0381020883
4.18,0.04057975324,0.03728811522
4.19,0.04113888702,0.0364661349
4.2,0.04168155979,0.03563647723
4.21,0.04220768222,0.0347994729
4.22,0.04271717182,0.03395545326
4.23,0.04320995294,0.03310475018
4.24,0.04368595677,0.03224769588
4.25,0.04414512132,0.03138462279
4.26,0.04458739143,0.03051586337
4.27,0.04501271869,0.02964174999
4.28,0.04542106148,0.02876261477
4.29,0.04581238491,0.02787878942
4.3,0.04618666079,0.0269906051
4.31,0.0465438676,0.02609839225
4.32,0.04688399044,0.02520248049
4.33,0.047207021,0.02430319842
4.34,0.04751295752,0.02340087351
4.35,0.0478018047,0.02249583195
4.36,0.04807357368,0.0215883985
4.37,0.04832828197,0.02067889637
4.38,0.0485659534,0.01976764706
4.39,0.04878661803,0.01885497025
4.4,0.0489903121,0.01794118364
4.41,0.04917707794,0.01702660285
4.42,0.04934696391,0.01611154125
4.43,0.04950002432,0.01519630989
4.44,0.04963631935,0.01428121735
4.45,0.04975591493,0.01336656959
4.46,0.04985888271,0.0124526699
4.47,0.04994529992,0.01153981873
4.48,0.05001524931,0.0106283136
4.49,0.05006881901,0.009718449
4.5,0.0501061025,0.008810516269
4.51,0.05012719844,0.007904803512
4.52,0.0501322106,0.007001595489
4.53,0.05012124777,0.006101173525
4.54,0.0500944236,0.005203815424
4.55,0.05005185655,0.004309795373
4.56,0.04999366976,0.003419383868
4.57,0.04991999089,0.002532847627
4.58,0.0498309521,0.001650449516
4.59,0.04972668984,0.0007724484796
4.6,0.0496073448,-0.0001009005332
4.61,0.04947306176,-0.0009693466302
4.62,0.04932398949,-0.001832643039
4.63,0.0491602806,-0.002690547164
4.64,0.04898209147,-0.00354282064
4.65,0.04878958208,-0.004389229385
4.66,0.04858291593,-0.005229543641
4.67,0.04836225988,-0.006063538025
4.68,0.04812778408,-0.006890991559
4.69,0.04787966178,-0.007711687711
4.7,0.0476180693,-0.008525414426
4.71,0.0473431858,-0.009331964153
4.72,0.04705519328,-0.01013113387
4.73,0.04675427636,-0.01092272511
4.74,0.0464406222,-0.01170654395
4.75,0.04611442042,-0.01248240109
4.76,0.04577586291,-0.0132501118
4.77,0.04542514377,-0.01400949593
4.78,0.04506245917,-0.01476037797
4.79,0.04468800725,-0.015502587
4.8,0.04430198798,-0.0162359567
4.81,0.04390460309,-0.01696032536
4.82,0.04349605594,-0.01767553585
4.83,0.04307655139,-0.01838143563
4.84,0.04264629574,-0.01907787672
4.85,0.04220549659,-0.0197647157
4.86,0.04175436275,-0.02044181367
4.87,0.04129310413,-0.02110903626
4.88,0.04082193165,-0.02176625356
4.89,0.04034105716,-0.02241334017
4.9,0.0398506933,-0.02305017507
4.91,0.03935105345,-0.02367664169
4.92,0.03884235161,-0.0242926278
4.93,0.03832480234,-0.02489802555
4.94,0.03779862064,-0.02549273135
4.95,0.0372640219,-0.02607664592
4.96,0.0367212218,-0.02664967418
4.97,0.03617043621,-0.02721172524
4.98,0.03561188117,-0.02776271239
4.99,0.03504577275,-0.02830255299
5,0.03447232702,-0.02883116848
5.01,0.03389175997,-0.02934848432
5.02,0.03330428744,-0.02985442993
5.03,0.03271012503,-0.03034893868
5.04,0.0321094881,-0.03083194778
5.05,0.03150259163,-0.03130339832
5.06,0.03088965022,-0.03176323514
5.07,0.03027087802,-0.03221140683
5.08,0.02964648865,-0.03264786565
5.09,0.02901669518,-0.03307256752
5.1,0.02838171005,-0.03348547194
5.11,0.02774174507,-0.03388654195
5.12,0.0270970113,-0.03427574406
5.13,0.02644771909,-0.03465304826
5.14,0.02579407797,-0.03501842789
5.15,0.02513629664,-0.03537185967
5.16,0.02447458293,-0.03571332359
5.17,0.02380914377,-0.03604280289
5.18,0.02314018515,-0.03636028401
5.19,0.02246791205,-0.03666575655
5.2,0.02179252849,-0.03695921321
5.21,0.02111423742,-0.03724064974
5.22,0.02043324074,-0.03751006491
5.23,0.01974973925,-0.03776746046
5.24,0.01906393264,-0.03801284105
5.25,0.01837601944,-0.03824621423
5.26,0.01768619705,-0.03846759038
5.27,0.01699466164,-0.03867698268
5.28,0.01630160822,-0.03887440705
5.29,0.01560723053,-0.03905988216
5.3,0.01491172109,-0.03923342933
5.31,0.01421527115,-0.03939507252
5.32,0.01351807067,-0.0395448383
5.33,0.01282030834,-0.0396827558
5.34,0.01212217151,-0.03980885668
5.35,0.01142384621,-0.03992317509
5.36,0.01072551714,-0.04002574764
5.37,0.01002736764,-0.04011661337
5.38,0.009329579661,-0.04019581373
5.39,0.008632333802,-0.04026339249
5.4,0.007935809253,-0.04031939581
5.41,0.007240183796,-0.0403638721
5.42,0.006545633798,-0.04039687208
5.43,0.005852334191,-0.04041844871
5.44,0.005160458467,-0.04042865716
5.45,0.004470178659,-0.04042755479
5.46,0.003781665335,-0.04041520114
5.47,0.003095087583,-0.04039165789
5.48,0.002410612999,-0.04035698882
5.49,0.001728407677,-0.04031125981
5.5,0.001048636195,-0.04025453883
5.51,0.000371461601,-0.04018689586
5.52,-0.0003029545959,-0.04010840293
5.53,-0.000974452441,-0.04001913405
5.54,-0.001642873546,-0.03991916523
5.55,-0.002308061103,-0.03980857442
5.56,-0.002969859898,-0.03968744151
5.57,-0.003628116324,-0.03955584831
5.58,-0.004282678396,-0.03941387851
5.59,-0.004933395766,-0.03926161769
5.6,-0.005580119737,-0.03909915327
5.61,-0.006222703277,-0.03892657451
5.62,-0.006861001039,-0.03874397245
5.63,-0.007494869371,-0.03855143998
5.64,-0.008124166335,-0.03834907169
5.65,-0.008748751726,-0.03813696398
5.66,-0.009368487082,-0.03791521492
5.67,-0.009983235708,-0.03768392434
5.68,-0.01059286269,-0.0374431937
5.69,-0.01119723491,-0.03719312618
5.7,-0.01179622107,-0.03693382654
5.71,-0.0123896917,-0.03666540121
5.72,-0.01297751919,-0.03638795819
5.73,-0.0135595778,-0.03610160704
5.74,-0.01413574367,-0.03580645889
5.75,-0.01470589486,-0.03550262638
5.76,-0.01526991135,-0.03519022365
5.77,-0.01582767506,-0.03486936633
5.78,-0.01637906987,-0.03454017147
5.79,-0.01692398166,-0.03420275757
5.8,-0.01746229828,-0.0338572445
5.81,-0.01799390964,-0.03350375351
5.82,-0.01851870764,-0.03314240719
5.83,-0.01903658626,-0.03277332943
5.84,-0.01954744156,-0.03239664541
5.85,-0.02005117166,-0.03201248156
5.86,-0.02054767681,-0.03162096554
5.87,-0.02103685936,-0.03122222618
5.88,-0.02151862384,-0.03081639348
5.89,-0.02199287689,-0.03040359856
5.9,-0.02245952734,-0.02998397365
5.91,-0.02291848621,-0.02955765201
5.92,-0.02336966671,-0.02912476795
5.93,-0.02381298428,-0.02868545677
5.94,-0.02424835656,-0.0282398547
5.95,-0.02467570346,-0.02778809892
5.96,-0.02509494712,-0.02733032749
5.97,-0.02550601195,-0.02686667929
5.98,-0.02590882464,-0.02639729404
5.99,-0.02630331414,-0.02592231223
6,-0.02668941172,-0.02544187506
