"Freq [GHz]","re(S(Tx_p1,Tx_p1)) []","im(S(Tx_p1,Tx_p1)) []"
1,0.2676418395,-0.1288043271
1.01,0.2637420398,-0.1265515876
1.02,0.2600183831,-0.1243997163
1.03,0.256462812,-0.1223468758
1.04,0.2530676219,-0.1203912827
1.05,0.2498254412,-0.1185312036
1.06,0.246729212,-0.1167649541
1.07,0.2437721731,-0.1150908949
1.08,0.2409478435,-0.1135074294
1.09,0.2382500069,-0.1120130013
1.1,0.235672698,-0.1106060922
1.11,0.2332101881,-0.1092852197
1.12,0.2308569732,-0.1080489349
1.13,0.2286077623,-0.1068958204
1.14,0.2264574656,-0.1058244886
1.15,0.2244011849,-0.1048335799
1.16,0.2224342034,-0.1039217604
1.17,0.2205519765,-0.1030877208
1.18,0.2187501235,-0.1023301743
1.19,0.2170244193,-0.1016478556
1.2,0.2153707868,-0.1010395188
1.21,0.2137852898,-0.1005039362
1.22,0.2122641264,-0.1000398972
1.23,0.2108036222,-0.09964620651
1.24,0.2094002252,-0.09932168311
1.25,0.2080504994,-0.09906515904
1.26,0.2067511199,-0.09887547816
1.27,0.2054988681,-0.09875149504
1.28,0.2042906266,-0.09869207388
1.29,0.2031233754,-0.09869608743
1.3,0.2019941873,-0.09876241603
1.31,0.2009002244,-0.09888994663
1.32,0.199838734,-0.09907757185
1.33,0.1988070458,-0.09932418911
1.34,0.1978025683,-0.09962869979
1.35,0.1968227858,-0.0999900084
1.36,0.1958652556,-0.1004070218
1.37,0.1949276055,-0.1008786485
1.38,0.1940075313,-0.1014037979
1.39,0.1931027941,-0.1019813798
1.4,0.1922112185,-0.1026103032
1.41,0.1913306907,-0.1032894766
1.42,0.190459156,-0.1040178067
1.43,0.1895946176,-0.1047941981
1.44,0.1887351344,-0.1056175528
1.45,0.18787882,-0.1064867698
1.46,0.1870238408,-0.1074007446
1.47,0.186168415,-0.1083583687
1.48,0.185310811,-0.1093585294
1.49,0.1844493464,-0.1104001094
1.5,0.1835823869,-0.1114819864
1.51,0.1827083455,-0.1126030328
1.52,0.1818256812,-0.1137621158
1.53,0.1809328981,-0.1149580968
1.54,0.1800285452,-0.1161898314
1.55,0.1791112151,-0.1174561691
1.56,0.1781795433,-0.1187559534
1.57,0.177232208,-0.1200880214
1.58,0.1762679293,-0.1214512043
1.59,0.1752854685,-0.1228443268
1.6,0.1742836278,-0.1242662071
1.61,0.1732612499,-0.1257156575
1.62,0.1722172176,-0.127191484
1.63,0.1711504532,-0.1286924864
1.64,0.1700599184,-0.1302174585
1.65,0.1689446138,-0.1317651885
1.66,0.1678035788,-0.1333344586
1.67,0.1666358913,-0.1349240457
1.68,0.1654406673,-0.1365327215
1.69,0.1642170608,-0.1381592527
1.7,0.1629642638,-0.1398024013
1.71,0.1616815055,-0.1414609247
1.72,0.1603680529,-0.1431335766
1.73,0.1590232099,-0.1448191066
1.74,0.1576463179,-0.1465162613
1.75,0.1562367547,-0.148223784
1.76,0.1547939354,-0.1499404159
1.77,0.1533173114,-0.1516648957
1.78,0.1518063707,-0.1533959608
1.79,0.1502606376,-0.1551323472
1.8,0.1486796726,-0.1568727904
1.81,0.1470630722,-0.1586160257
1.82,0.1454104689,-0.1603607888
1.83,0.1437215308,-0.1621058164
1.84,0.1419959616,-0.1638498466
1.85,0.1402335004,-0.1655916196
1.86,0.1384339214,-0.1673298782
1.87,0.1365970338,-0.1690633687
1.88,0.1347226816,-0.170790841
1.89,0.1328107434,-0.1725110494
1.9,0.1308611321,-0.1742227536
1.91,0.1288737947,-0.1759247188
1.92,0.1268487118,-0.1776157167
1.93,0.1247858977,-0.1792945258
1.94,0.1226854001,-0.1809599324
1.95,0.1205472993,-0.1826107311
1.96,0.1183717085,-0.1842457255
1.97,0.1161587729,-0.1858637286
1.98,0.1139086698,-0.1874635638
1.99,0.111621608,-0.1890440653
2,0.1092978272,-0.1906040789
2.01,0.1069375982,-0.1921424625
2.02,0.1045412219,-0.193658087
2.03,0.1021090289,-0.1951498365
2.04,0.09964137934,-0.1966166092
2.05,0.09713866231,-0.1980573181
2.06,0.0946012952,-0.1994708914
2.07,0.0920297233,-0.2008562733
2.08,0.08942441925,-0.2022124241
2.09,0.08678588249,-0.2035383215
2.1,0.0841146387,-0.2048329606
2.11,0.0814112392,-0.2060953548
2.12,0.07867626038,-0.2073245359
2.13,0.07591030307,-0.2085195551
2.14,0.07311399191,-0.2096794832
2.15,0.07028797472,-0.2108034111
2.16,0.06743292186,-0.2118904503
2.17,0.06454952555,-0.2129397337
2.18,0.0616384992,-0.2139504151
2.19,0.0587005767,-0.2149216708
2.2,0.05573651177,-0.215852699
2.21,0.05274707722,-0.2167427206
2.22,0.04973306424,-0.2175909797
2.23,0.04669528167,-0.2183967436
2.24,0.04363455529,-0.219159303
2.25,0.04055172707,-0.219877973
2.26,0.03744765444,-0.2205520923
2.27,0.03432320952,-0.2211810244
2.28,0.03117927839,-0.2217641573
2.29,0.02801676035,-0.2223009037
2.3,0.02483656714,-0.2227907013
2.31,0.02163962218,-0.2232330129
2.32,0.01842685986,-0.2236273265
2.33,0.01519922475,-0.2239731554
2.34,0.01195767085,-0.2242700384
2.35,0.00870316086,-0.2245175394
2.36,0.005436665426,-0.2247152481
2.37,0.002159162394,-0.2248627795
2.38,-0.001128363915,-0.2249597739
2.39,-0.004424923434,-0.225005897
2.4,-0.007729521074,-0.2250008401
2.41,-0.01104115743,-0.2249443194
2.42,-0.0143588295,-0.2248360763
2.43,-0.01768153134,-0.2246758771
2.44,-0.0210082548,-0.2244635131
2.45,-0.02433799015,-0.2241988001
2.46,-0.02766972677,-0.2238815784
2.47,-0.03100245377,-0.2235117125
2.48,-0.03433516064,-0.2230890909
2.49,-0.03766683786,-0.2226136261
2.5,-0.04099647752,-0.2220852537
2.51,-0.04432307388,-0.2215039329
2.52,-0.04764562397,-0.2208696455
2.53,-0.05096312813,-0.2201823962
2.54,-0.05427459054,-0.2194422117
2.55,-0.05757901978,-0.218649141
2.56,-0.06087542928,-0.2178032543
2.57,-0.06416283785,-0.2169046432
2.58,-0.06744027012,-0.2159534203
2.59,-0.07070675701,-0.2149497185
2.6,-0.07396133612,-0.2138936908
2.61,-0.07720305219,-0.2127855098
2.62,-0.08043095744,-0.2116253675
2.63,-0.083644112,-0.2104134748
2.64,-0.08684158419,-0.2091500607
2.65,-0.0900224509,-0.2078353726
2.66,-0.09318579787,-0.2064696753
2.67,-0.09633072003,-0.2050532505
2.68,-0.09945632169,-0.2035863969
2.69,-0.1025617169,-0.2020694294
2.7,-0.1056460295,-0.2005026787
2.71,-0.1087083936,-0.1988864908
2.72,-0.1117479536,-0.1972212267
2.73,-0.1147638642,-0.1955072619
2.74,-0.117755291,-0.193744986
2.75,-0.1207214102,-0.1919348023
2.76,-0.1236614091,-0.1900771272
2.77,-0.1265744858,-0.18817239
2.78,-0.1294598495,-0.1862210324
2.79,-0.1323167207,-0.184223508
2.8,-0.135144331,-0.1821802821
2.81,-0.1379419233,-0.1800918311
2.82,-0.1407087517,-0.1779586422
2.83,-0.1434440817,-0.1757812133
2.84,-0.14614719,-0.1735600521
2.85,-0.1488173644,-0.1712956761
2.86,-0.1514539043,-0.1689886123
2.87,-0.1540561198,-0.1666393965
2.88,-0.1566233325,-0.1642485736
2.89,-0.1591548749,-0.1618166967
2.9,-0.1616500905,-0.1593443271
2.91,-0.1641083338,-0.1568320338
2.92,-0.1665289698,-0.1542803937
2.93,-0.1689113746,-0.1516899908
2.94,-0.1712549346,-0.1490614162
2.95,-0.173559047,-0.146395268
2.96,-0.175823119,-0.1436921508
2.97,-0.1780465683,-0.1409526758
2.98,-0.1802288228,-0.1381774603
2.99,-0.1823693202,-0.1353671279
3,-0.1844675082,-0.1325223078
3.01,-0.1865228442,-0.1296436354
3.02,-0.1885347952,-0.1267317514
3.03,-0.1905028379,-0.1237873024
3.04,-0.192426458,-0.1208109401
3.05,-0.1943051508,-0.1178033217
3.06,-0.1961384205,-0.1147651097
3.07,-0.1979257804,-0.1116969719
3.08,-0.1996667526,-0.108599581
3.09,-0.201360868,-0.105473615
3.1,-0.2030076662,-0.1023197569
3.11,-0.2046066955,-0.09913869502
3.12,-0.2061575123,-0.09593112243
3.13,-0.2076596818,-0.09269773744
3.14,-0.2091127773,-0.08943924344
3.15,-0.2105163804,-0.08615634891
3.16,-0.211870081,-0.0828497675
3.17,-0.213173477,-0.07952021804
3.18,-0.2144261745,-0.0761684246
3.19,-0.2156277876,-0.07279511654
3.2,-0.2167779385,-0.06940102857
3.21,-0.2178762576,-0.06598690082
3.22,-0.2189223831,-0.06255347893
3.23,-0.2199159615,-0.0591015141
3.24,-0.2208566473,-0.05563176318
3.25,-0.2217441032,-0.05214498874
3.26,-0.2225780001,-0.04864195919
3.27,-0.2233580171,-0.04512344882
3.28,-0.2240838418,-0.04159023791
3.29,-0.2247551702,-0.03804311284
3.3,-0.2253717067,-0.0344828661
3.31,-0.2259331645,-0.03091029647
3.32,-0.2264392657,-0.02732620903
3.33,-0.226889741,-0.02373141525
3.34,-0.2272843306,-0.0201267331
3.35,-0.2276227838,-0.01651298705
3.36,-0.2279048591,-0.01289100821
3.37,-0.2281303251,-0.00926163434
3.38,-0.2282989599,-0.005625709902
3.39,-0.2284105517,-0.001984086117
3.4,-0.228464899,0.001662379013
3.41,-0.228461811,0.005312820672
3.42,-0.2284011073,0.008966367222
3.43,-0.2282826189,0.01262214019
3.44,-0.2281061878,0.01627925429
3.45,-0.2278716676,0.01993681742
3.46,-0.2275789239,0.02359393071
3.47,-0.2272278342,0.02724968854
3.48,-0.2268182886,0.03090317863
3.49,-0.2263501898,0.03455348208
3.5,-0.2258234536,0.03819967346
3.51,-0.2252380091,0.04184082092
3.52,-0.2245937992,0.04547598629
3.53,-0.2238907805,0.0491042252
3.54,-0.2231289243,0.05272458724
3.55,-0.2223082161,0.05633611609
3.56,-0.2214286566,0.05993784975
3.57,-0.2204902619,0.06352882066
3.58,-0.2194930636,0.06710805596
3.59,-0.218437109,0.07067457767
3.6,-0.2173224622,0.07422740299
3.61,-0.2161492033,0.07776554448
3.62,-0.2149174299,0.08128801039
3.63,-0.2136272563,0.08479380494
3.64,-0.2122788148,0.0882819286
3.65,-0.2108722552,0.09175137843
3.66,-0.2094077456,0.09520114844
3.67,-0.2078854725,0.09863022988
3.68,-0.2063056411,0.1020376117
3.69,-0.2046684757,0.1054222809
3.7,-0.2029742198,0.1087832228
3.71,-0.2012231363,0.1121194217
3.72,-0.1994155081,0.1154298613
3.73,-0.1975516377,0.1187135247
3.74,-0.1956318482,0.1219693954
3.75,-0.1936564829,0.1251964577
3.76,-0.1916259057,0.1283936968
3.77,-0.1895405013,0.1315600998
3.78,-0.1874006755,0.1346946556
3.79,-0.1852068548,0.1377963562
3.8,-0.1829594873,0.1408641965
3.81,-0.1806590422,0.1438971754
3.82,-0.1783060102,0.1468942959
3.83,-0.1759009033,0.149854566
3.84,-0.1734442553,0.1527769991
3.85,-0.1709366215,0.1556606146
3.86,-0.1683785787,0.1585044385
3.87,-0.1657707254,0.161307504
3.88,-0.1631136817,0.164068852
3.89,-0.1604080892,0.1667875318
3.9,-0.1576546109,0.1694626017
3.91,-0.1548539312,0.1720931297
3.92,-0.152006756,0.1746781935
3.93,-0.1491138122,0.1772168821
3.94,-0.1461758476,0.1797082956
3.95,-0.1431936311,0.1821515461
3.96,-0.1401679522,0.1845457584
3.97,-0.1370996206,0.1868900701
3.98,-0.1339894666,0.1891836331
3.99,-0.1308383402,0.1914256132
4,-0.1276471112,0.1936151914
4.01,-0.1244166688,0.195751564
4.02,-0.1211479213,0.1978339436
4.03,-0.1178417957,0.1998615593
4.04,-0.1144992374,0.2018336573
4.05,-0.1111212099,0.2037495018
4.06,-0.1077086942,0.205608375
4.07,-0.1042626887,0.2074095779
4.08,-0.1007842085,0.209152431
4.09,-0.09727428483,0.2108362744
4.1,-0.0937339651,0.2124604684
4.11,-0.09016431192,0.2140243943
4.12,-0.08656640284,0.2155274544
4.13,-0.08294132973,0.2169690725
4.14,-0.07929019834,0.2183486947
4.15,-0.07561412767,0.2196657893
4.16,-0.07191424944,0.2209198477
4.17,-0.06819170752,0.2221103841
4.18,-0.06444765736,0.2232369367
4.19,-0.06068326534,0.2242990671
4.2,-0.0568997082,0.2252963615
4.21,-0.05309817242,0.2262284303
4.22,-0.04927985356,0.2270949086
4.23,-0.04544595566,0.2278954568
4.24,-0.04159769057,0.2286297602
4.25,-0.03773627729,0.2292975296
4.26,-0.03386294132,0.2298985014
4.27,-0.02997891401,0.2304324379
4.28,-0.02608543186,0.2308991271
4.29,-0.02218373587,0.2312983831
4.3,-0.01827507086,0.2316300461
4.31,-0.01436068477,0.2318939827
4.32,-0.01044182802,0.2320900854
4.33,-0.006519752794,0.2322182732
4.34,-0.002595712396,0.2322784913
4.35,0.001329039459,0.2322707112
4.36,0.005253249302,0.2321949306
4.37,0.009175664582,0.2320511735
4.38,0.01309503433,0.2318394897
4.39,0.01701010984,0.2315599552
4.4,0.02091964528,0.231212672
4.41,0.0248223984,0.2307977675
4.42,0.02871713114,0.2303153949
4.43,0.03260261024,0.2297657326
4.44,0.03647760792,0.2291489843
4.45,0.04034090246,0.2284653787
4.46,0.04419127882,0.227715169
4.47,0.0480275292,0.2268986331
4.48,0.05184845366,0.2260160729
4.49,0.05565286069,0.2250678143
4.5,0.05943956774,0.2240542065
4.51,0.06320740177,0.2229756224
4.52,0.0669551998,0.2218324573
4.53,0.07068180939,0.2206251296
4.54,0.07438608918,0.2193540793
4.55,0.07806690934,0.2180197685
4.56,0.08172315205,0.2166226808
4.57,0.08535371196,0.2151633206
4.58,0.08895749661,0.2136422128
4.59,0.09253342686,0.2120599027
4.6,0.09608043728,0.2104169552
4.61,0.09959747655,0.2087139542
4.62,0.1030835078,0.2069515029
4.63,0.106537509,0.2051302224
4.64,0.1099584732,0.2032507518
4.65,0.113345409,0.2013137477
4.66,0.1166973407,0.1993198835
4.67,0.1200133085,0.1972698491
4.68,0.1232923692,0.1951643503
4.69,0.1265335957,0.1930041083
4.7,0.1297360779,0.1907898594
4.71,0.1328989227,0.1885223542
4.72,0.1360212539,0.1862023574
4.73,0.1391022127,0.1838306472
4.74,0.1421409578,0.1814080146
4.75,0.1451366653,0.1789352633
4.76,0.1480885292,0.176413209
4.77,0.1509957611,0.1738426788
4.78,0.1538575906,0.1712245109
4.79,0.1566732651,0.1685595541
4.8,0.15944205,0.1658486674
4.81,0.162163229,0.1630927192
4.82,0.1648361033,0.1602925873
4.83,0.1674599925,0.1574491581
4.84,0.1700342343,0.1545633263
4.85,0.1725581841,0.1516359946
4.86,0.1750312155,0.1486680728
4.87,0.1774527199,0.1456604782
4.88,0.1798221066,0.1426141341
4.89,0.1821388028,0.1395299705
4.9,0.1844022532,0.1364089229
4.91,0.1866119203,0.1332519324
4.92,0.188767284,0.1300599451
4.93,0.1908678417,0.1268339117
4.94,0.192913108,0.1235747875
4.95,0.1949026147,0.1202835316
4.96,0.1968359106,0.1169611069
4.97,0.1987125615,0.1136084796
4.98,0.2005321498,0.1102266192
4.99,0.2022942746,0.1068164978
5,0.2039985515,0.1033790901
5.01,0.2056446121,0.09991537307
5.02,0.2072321044,0.0964263257
5.03,0.2087606923,0.09291292876
5.04,0.2102300555,0.08937616455
5.05,0.2116398892,0.08581701674
5.06,0.2129899043,0.0822364701
5.07,0.2142798267,0.07863551037
5.08,0.2155093978,0.07501512402
5.09,0.2166783735,0.07137629816
5.1,0.217786525,0.06772002029
5.11,0.2188336378,0.06404727821
5.12,0.219819512,0.06035905988
5.13,0.220743962,0.05665635327
5.14,0.2216068165,0.05294014627
5.15,0.222407918,0.04921142654
5.16,0.2231471231,0.04547118146
5.17,0.2238243022,0.04172039801
5.18,0.2244393391,0.03796006268
5.19,0.2249921312,0.03419116141
5.2,0.2254825895,0.03041467954
5.21,0.2259106379,0.02663160169
5.22,0.2262762137,0.02284291176
5.23,0.2265792673,0.01904959287
5.24,0.2268197621,0.01525262729
5.25,0.2269976741,0.01145299641
5.26,0.2271129926,0.007651680711
5.27,0.2271657194,0.003849659743
5.28,0.227155869,4.791206508E-05
5.29,0.2270834686,-0.003752584763
5.3,0.226948558,-0.00755085421
5.31,0.2267511898,-0.0113459208
5.32,0.2264914288,-0.01513681014
5.33,0.2261693527,-0.01892254893
5.34,0.2257850516,-0.02270216501
5.35,0.225338628,-0.02647468736
5.36,0.2248301973,-0.03023914616
5.37,0.2242598872,-0.03399457277
5.38,0.2236278382,-0.03773999983
5.39,0.2229342033,-0.04147446124
5.4,0.2221791483,-0.0451969922
5.41,0.2213628517,-0.0489066293
5.42,0.2204855047,-0.05260241052
5.43,0.2195473115,-0.05628337532
5.44,0.2185484893,-0.05994856467
5.45,0.217489268,-0.06359702112
5.46,0.2163698908,-0.06722778889
5.47,0.2151906142,-0.07083991393
5.48,0.2139517078,-0.07443244403
5.49,0.2126534546,-0.07800442888
5.5,0.2112961511,-0.0815549202
5.51,0.2098801073,-0.08508297184
5.52,0.2084056471,-0.0885876399
5.53,0.2068731079,-0.09206798285
5.54,0.2052828414,-0.09552306169
5.55,0.2036352131,-0.09895194008
5.56,0.2019306025,-0.1023536845
5.57,0.2001694038,-0.1057273644
5.58,0.1983520252,-0.1090720524
5.59,0.1964788896,-0.1123868246
5.6,0.1945504346,-0.1156707604
5.61,0.1925671124,-0.1189229431
5.62,0.19052939,-0.12214246
5.63,0.1884377496,-0.1253284025
5.64,0.1862926884,-0.1284798666
5.65,0.1840947187,-0.1315959529
5.66,0.1818443682,-0.1346757669
5.67,0.1795421798,-0.1377184194
5.68,0.1771887122,-0.1407230267
5.69,0.1747845392,-0.1436887108
5.7,0.1723302508,-0.1466145999
5.71,0.1698264521,-0.1494998286
5.72,0.1672737645,-0.1523435381
5.73,0.164672825,-0.1551448767
5.74,0.1620242863,-0.1579030001
5.75,0.1593288172,-0.1606170719
5.76,0.1565871026,-0.1632862634
5.77,0.1537998429,-0.1659097546
5.78,0.1509677549,-0.1684867342
5.79,0.1480915711,-0.1710164002
5.8,0.14517204,-0.1734979601
5.81,0.1422099259,-0.1759306313
5.82,0.1392060093,-0.1783136416
5.83,0.1361610861,-0.1806462294
5.84,0.1330759682,-0.1829276445
5.85,0.129951483,-0.185157148
5.86,0.1267884738,-0.1873340132
5.87,0.1235877989,-0.1894575254
5.88,0.1203503323,-0.191526983
5.89,0.117076963,-0.1935416976
5.9,0.1137685953,-0.1955009942
5.91,0.1104261481,-0.1974042121
5.92,0.1070505552,-0.1992507047
5.93,0.1036427649,-0.2010398407
5.94,0.1002037399,-0.2027710039
5.95,0.09673445669,-0.2044435936
5.96,0.0932359059,-0.2060570255
5.97,0.08970909164,-0.2076107318
5.98,0.08615503133,-0.2091041615
5.99,0.08257475547,-0.210536781
6,0.07896930726,-0.2119080744
