"Freq [GHz]","re(S(Tx_p1,Tx_p1)) []","im(S(Tx_p1,Tx_p1)) []"
1,0.4225670651,-0.2033242136
1.01,0.4164609336,-0.1998034337
1.02,0.4106311765,-0.1964427291
1.03,0.405065092,-0.1932391706
1.04,0.3997505343,-0.1901899148
1.05,0.3946758825,-0.187292199
1.06,0.3898300107,-0.1845433368
1.07,0.3852022603,-0.1819407142
1.08,0.3807824149,-0.1794817848
1.09,0.3765606753,-0.1771640667
1.1,0.3725276375,-0.1749851382
1.11,0.3686742713,-0.1729426347
1.12,0.3649919005,-0.1710342451
1.13,0.3614721841,-0.1692577088
1.14,0.3581070989,-0.1676108124
1.15,0.3548889233,-0.1660913871
1.16,0.3518102219,-0.1646973053
1.17,0.3488638304,-0.1634264786
1.18,0.346042843,-0.1622768547
1.19,0.3433405989,-0.1612464154
1.2,0.3407506706,-0.1603331735
1.21,0.3382668525,-0.1595351714
1.22,0.3358831505,-0.1588504781
1.23,0.3335937717,-0.1582771875
1.24,0.3313931154,-0.1578134165
1.25,0.3292757638,-0.1574573026
1.26,0.3272364742,-0.1572070023
1.27,0.3252701709,-0.1570606892
1.28,0.3233719379,-0.1570165525
1.29,0.3215370122,-0.1570727949
1.3,0.3197607768,-0.1572276313
1.31,0.3180387554,-0.157479287
1.32,0.3163666059,-0.1578259967
1.33,0.3147401154,-0.1582660024
1.34,0.3131551951,-0.1587975525
1.35,0.3116078755,-0.1594189003
1.36,0.310094302,-0.160128303
1.37,0.3086107308,-0.16092402
1.38,0.3071535246,-0.1618043123
1.39,0.3057191496,-0.162767441
1.4,0.3043041713,-0.1638116665
1.41,0.3029052521,-0.1649352475
1.42,0.3015191474,-0.1661364399
1.43,0.3001427037,-0.1674134962
1.44,0.2987728552,-0.1687646642
1.45,0.2974066219,-0.170188187
1.46,0.2960411072,-0.1716823014
1.47,0.2946734957,-0.1732452378
1.48,0.293301051,-0.1748752197
1.49,0.2919211145,-0.1765704623
1.5,0.2905311032,-0.1783291732
1.51,0.2891285084,-0.1801495509
1.52,0.287710894,-0.1820297848
1.53,0.2862758954,-0.183968055
1.54,0.2848212184,-0.1859625317
1.55,0.2833446375,-0.1880113751
1.56,0.2818439955,-0.1901127351
1.57,0.2803172022,-0.1922647514
1.58,0.2787622337,-0.194465553
1.59,0.2771771315,-0.1967132583
1.6,0.2755600016,-0.1990059752
1.61,0.2739090145,-0.201341801
1.62,0.2722224036,-0.2037188228
1.63,0.2704984656,-0.2061351171
1.64,0.2687355594,-0.2085887503
1.65,0.2669321061,-0.2110777791
1.66,0.265086588,-0.2136002503
1.67,0.2631975489,-0.2161542016
1.68,0.2612635933,-0.2187376616
1.69,0.2592833862,-0.2213486507
1.7,0.2572556529,-0.2239851808
1.71,0.2551791789,-0.2266452564
1.72,0.2530528092,-0.229326875
1.73,0.2508754484,-0.2320280275
1.74,0.2486460606,-0.234746699
1.75,0.2463636688,-0.2374808694
1.76,0.2440273551,-0.2402285139
1.77,0.2416362604,-0.2429876042
1.78,0.2391895839,-0.2457561086
1.79,0.2366865835,-0.2485319933
1.8,0.234126575,-0.251313223
1.81,0.2315089323,-0.2540977618
1.82,0.2288330871,-0.256883574
1.83,0.2260985285,-0.259668625
1.84,0.223304803,-0.2624508824
1.85,0.2204515143,-0.2652283168
1.86,0.2175383225,-0.2679989027
1.87,0.2145649446,-0.2707606197
1.88,0.2115311537,-0.2735114533
1.89,0.2084367786,-0.2762493959
1.9,0.2052817037,-0.2789724481
1.91,0.2020658688,-0.2816786196
1.92,0.1987892682,-0.2843659299
1.93,0.1954519506,-0.2870324102
1.94,0.1920540187,-0.2896761037
1.95,0.1885956284,-0.2922950668
1.96,0.1850769887,-0.2948873707
1.97,0.181498361,-0.2974511019
1.98,0.1778600583,-0.2999843634
1.99,0.174162445,-0.3024852762
2,0.1704059361,-0.3049519799
2.01,0.1665909964,-0.3073826337
2.02,0.16271814,-0.3097754181
2.03,0.1587879298,-0.3121285352
2.04,0.154800976,-0.3144402102
2.05,0.1507579363,-0.3167086926
2.06,0.1466595144,-0.3189322563
2.07,0.1425064592,-0.3211092019
2.08,0.1382995645,-0.3232378565
2.09,0.1340396675,-0.3253165754
2.1,0.1297276481,-0.3273437428
2.11,0.1253644279,-0.3293177726
2.12,0.1209509694,-0.3312371096
2.13,0.116488275,-0.3331002299
2.14,0.1119773854,-0.3349056423
2.15,0.1074193796,-0.3366518887
2.16,0.1028153727,-0.3383375449
2.17,0.09816651561,-0.3399612216
2.18,0.09347399367,-0.341521565
2.19,0.08873902544,-0.3430172573
2.2,0.08396286163,-0.3444470178
2.21,0.07914678393,-0.3458096029
2.22,0.07429210383,-0.3471038072
2.23,0.06940016139,-0.3483284639
2.24,0.06447232405,-0.3494824452
2.25,0.05950998542,-0.3505646628
2.26,0.05451456403,-0.3515740685
2.27,0.0494875021,-0.3525096545
2.28,0.0444302643,-0.3533704535
2.29,0.03934433645,-0.3541555395
2.3,0.03423122435,-0.3548640276
2.31,0.02909245246,-0.3554950748
2.32,0.02392956265,-0.3560478794
2.33,0.01874411297,-0.3565216821
2.34,0.01353767636,-0.3569157652
2.35,0.008311839426,-0.3572294535
2.36,0.003068201201,-0.3574621136
2.37,-0.002191628116,-0.3576131546
2.38,-0.00746602837,-0.3576820274
2.39,-0.01275337067,-0.3576682251
2.4,-0.0180520186,-0.3575712827
2.41,-0.02336032941,-0.357390777
2.42,-0.02867665518,-0.3571263264
2.43,-0.03399934401,-0.3567775905
2.44,-0.03932674112,-0.3563442702
2.45,-0.04465719002,-0.3558261069
2.46,-0.0499890336,-0.3552228829
2.47,-0.05532061519,-0.3545344202
2.48,-0.06065027965,-0.3537605808
2.49,-0.0659763744,-0.3529012659
2.5,-0.07129725042,-0.3519564155
2.51,-0.07661126327,-0.3509260079
2.52,-0.08191677399,-0.3498100595
2.53,-0.0872121501,-0.3486086238
2.54,-0.09249576646,-0.3473217912
2.55,-0.09776600616,-0.3459496882
2.56,-0.1030212614,-0.3444924769
2.57,-0.1082599341,-0.3429503543
2.58,-0.1134804371,-0.341323552
2.59,-0.1186811944,-0.3396123349
2.6,-0.1238606424,-0.3378170011
2.61,-0.1290172302,-0.335937881
2.62,-0.1341494202,-0.3339753364
2.63,-0.1392556891,-0.3319297602
2.64,-0.1443345282,-0.3298015754
2.65,-0.1493844442,-0.3275912343
2.66,-0.1544039592,-0.325299218
2.67,-0.1593916118,-0.3229260355
2.68,-0.1643459572,-0.3204722231
2.69,-0.1692655677,-0.3179383434
2.7,-0.174149033,-0.3153249846
2.71,-0.1789949608,-0.3126327601
2.72,-0.1838019768,-0.3098623071
2.73,-0.1885687251,-0.3070142866
2.74,-0.1932938686,-0.3040893821
2.75,-0.1979760891,-0.301088299
2.76,-0.2026140875,-0.298011764
2.77,-0.2072065838,-0.2948605243
2.78,-0.2117523176,-0.2916353468
2.79,-0.2162500478,-0.2883370176
2.8,-0.2206985531,-0.284966341
2.81,-0.2250966318,-0.2815241391
2.82,-0.2294431015,-0.2780112512
2.83,-0.2337367999,-0.2744285328
2.84,-0.2379765841,-0.2707768551
2.85,-0.2421613307,-0.2670571048
2.86,-0.2462899361,-0.2632701829
2.87,-0.2503613157,-0.2594170044
2.88,-0.2543744046,-0.2554984978
2.89,-0.2583281569,-0.2515156045
2.9,-0.2622215457,-0.2474692782
2.91,-0.266053563,-0.2433604846
2.92,-0.2698232196,-0.2391902008
2.93,-0.2735295448,-0.2349594147
2.94,-0.2771715861,-0.2306691251
2.95,-0.2807484092,-0.2263203406
2.96,-0.2842590978,-0.2219140797
2.97,-0.2877027529,-0.2174513704
2.98,-0.2910784934,-0.2129332496
2.99,-0.2943854552,-0.2083607631
3,-0.297622791,-0.2037349651
3.01,-0.3007896704,-0.1990569182
3.02,-0.3038852795,-0.1943276929
3.03,-0.3069088205,-0.1895483675
3.04,-0.3098595116,-0.1847200277
3.05,-0.3127365868,-0.179843767
3.06,-0.3155392957,-0.174920686
3.07,-0.3182669029,-0.1699518924
3.08,-0.3209186883,-0.1649385012
3.09,-0.3234939465,-0.159881634
3.1,-0.3259919869,-0.1547824198
3.11,-0.3284121331,-0.1496419942
3.12,-0.3307537231,-0.1444614997
3.13,-0.3330161089,-0.1392420858
3.14,-0.3351986565,-0.1339849088
3.15,-0.3373007455,-0.1286911318
3.16,-0.3393217693,-0.1233619253
3.17,-0.3412611347,-0.1179984662
3.18,-0.3431182619,-0.1126019391
3.19,-0.3448925844,-0.1071735355
3.2,-0.3465835491,-0.1017144541
3.21,-0.348190616,-0.09622590133
3.22,-0.3497132582,-0.09070909085
3.23,-0.3511509622,-0.08516524411
3.24,-0.3525032274,-0.07959559032
3.25,-0.3537695665,-0.07400136662
3.26,-0.3549495056,-0.06838381821
3.27,-0.3560425839,-0.0627441985
3.28,-0.3570483542,-0.0570837693
3.29,-0.3579663828,-0.05140380089
3.3,-0.3587962496,-0.04570557224
3.31,-0.3595375484,-0.03999037114
3.32,-0.3601898869,-0.03425949431
3.33,-0.3607528871,-0.02851424759
3.34,-0.3612261854,-0.02275594603
3.35,-0.3616094328,-0.01698591405
3.36,-0.3619022954,-0.01120548555
3.37,-0.3621044543,-0.005416004004
3.38,-0.3622156061,0.0003811774171
3.39,-0.3622354635,0.006184695773
3.4,-0.362163755,0.01199317827
3.41,-0.3620002259,0.0178052422
3.42,-0.3617446383,0.02361949491
3.43,-0.3613967714,0.02943453375
3.44,-0.3609564223,0.03524894606
3.45,-0.3604234063,0.04106130919
3.46,-0.3597975569,0.04687019052
3.47,-0.359078727,0.0526741475
3.48,-0.3582667885,0.05847172771
3.49,-0.3573616337,0.06426146894
3.5,-0.3563631749,0.07004189932
3.51,-0.3552713456,0.07581153744
3.52,-0.3540861005,0.08156889249
3.53,-0.3528074162,0.08731246446
3.54,-0.3514352919,0.09304074432
3.55,-0.3499697497,0.09875221429
3.56,-0.3484108349,0.104445348
3.57,-0.346758617,0.110118611
3.58,-0.34501319,0.1157704607
3.59,-0.343174673,0.1213993471
3.6,-0.3412432103,0.1270037127
3.61,-0.3392189727,0.1325819934
3.62,-0.3371021572,0.1381326186
3.63,-0.3348929882,0.1436540116
3.64,-0.3325917176,0.1491445904
3.65,-0.3301986251,0.1546027676
3.66,-0.3277140194,0.1600269516
3.67,-0.3251382381,0.1654155467
3.68,-0.322471648,0.1707669539
3.69,-0.3197146463,0.1760795713
3.7,-0.3168676603,0.181351795
3.71,-0.3139311482,0.1865820194
3.72,-0.3109055993,0.1917686382
3.73,-0.3077915347,0.1969100449
3.74,-0.3045895071,0.2020046336
3.75,-0.3013001017,0.2070507997
3.76,-0.2979239364,0.2120469409
3.77,-0.2944616617,0.2169914575
3.78,-0.2909139615,0.2218827536
3.79,-0.287281553,0.2267192379
3.8,-0.283565187,0.2314993244
3.81,-0.2797656483,0.2362214333
3.82,-0.2758837556,0.240883992
3.83,-0.2719203615,0.2454854356
3.84,-0.2678763533,0.2500242085
3.85,-0.2637526521,0.2544987648
3.86,-0.2595502138,0.258907569
3.87,-0.2552700283,0.2632490978
3.88,-0.2509131202,0.2675218402
3.89,-0.2464805482,0.2717242988
3.9,-0.2419734052,0.275854991
3.91,-0.2373928182,0.2799124495
3.92,-0.2327399484,0.2838952235
3.93,-0.2280159904,0.2878018796
3.94,-0.2232221726,0.2916310031
3.95,-0.2183597567,0.2953811984
3.96,-0.2134300372,0.2990510905
3.97,-0.2084343415,0.3026393257
3.98,-0.2033740293,0.3061445723
3.99,-0.198250492,0.3095655224
4,-0.1930651529,0.3129008918
4.01,-0.187819466,0.3161494217
4.02,-0.182514916,0.3193098794
4.03,-0.1771530176,0.3223810591
4.04,-0.171735315,0.3253617828
4.05,-0.1662633812,0.3282509014
4.06,-0.1607388176,0.3310472954
4.07,-0.155163253,0.3337498759
4.08,-0.1495383431,0.3363575851
4.09,-0.14386577,0.3388693976
4.1,-0.1381472409,0.3412843207
4.11,-0.1323844879,0.3436013956
4.12,-0.1265792669,0.3458196979
4.13,-0.1207333568,0.3479383383
4.14,-0.1148485586,0.3499564635
4.15,-0.1089266947,0.3518732566
4.16,-0.1029696076,0.3536879381
4.17,-0.09697915963,0.3553997661
4.18,-0.09095723131,0.3570080371
4.19,-0.08490572079,0.3585120867
4.2,-0.0788265427,0.3599112898
4.21,-0.07272162722,0.3612050612
4.22,-0.066592919,0.3623928564
4.23,-0.06044237613,0.3634741713
4.24,-0.0542719691,0.3644485433
4.25,-0.0480836797,0.3653155514
4.26,-0.04187949999,0.3660748163
4.27,-0.03566143114,0.3667260009
4.28,-0.02943148241,0.3672688107
4.29,-0.02319166996,0.3677029936
4.3,-0.0169440158,0.3680283404
4.31,-0.01069054665,0.3682446848
4.32,-0.004433292806,0.3683519037
4.33,0.001825712956,0.3683499169
4.34,0.008084436523,0.3682386875
4.35,0.01434084356,0.3680182215
4.36,0.02059290062,0.3676885681
4.37,0.02683857629,0.3672498197
4.38,0.03307584225,0.3667021114
4.39,0.03930267442,0.3660456208
4.4,0.04551705404,0.3652805685
4.41,0.05171696874,0.364407217
4.42,0.05790041364,0.3634258711
4.43,0.06406539239,0.3623368774
4.44,0.07020991823,0.3611406237
4.45,0.07633201502,0.3598375391
4.46,0.08242971827,0.3584280932
4.47,0.08850107613,0.356912796
4.48,0.09454415034,0.3552921974
4.49,0.1005570173,0.3535668864
4.5,0.1065377688,0.3517374909
4.51,0.1124845133,0.3498046773
4.52,0.1183953763,0.3477691495
4.53,0.1242685019,0.3456316485
4.54,0.130102053,0.3433929519
4.55,0.1358942124,0.3410538732
4.56,0.1416431838,0.3386152611
4.57,0.1473471923,0.3360779989
4.58,0.1530044851,0.3334430034
4.59,0.1586133325,0.3307112251
4.6,0.1641720284,0.3278836462
4.61,0.1696788909,0.324961281
4.62,0.1751322631,0.3219451744
4.63,0.1805305137,0.3188364015
4.64,0.1858720375,0.3156360665
4.65,0.1911552557,0.3123453021
4.66,0.196378617,0.3089652687
4.67,0.2015405974,0.3054971534
4.68,0.2066397014,0.3019421693
4.69,0.2116744616,0.2983015547
4.7,0.2166434398,0.2945765719
4.71,0.2215452267,0.2907685069
4.72,0.226378443,0.2868786681
4.73,0.2311417389,0.2829083857
4.74,0.235833795,0.2788590107
4.75,0.240453322,0.2747319141
4.76,0.2449990614,0.270528486
4.77,0.2494697854,0.2662501349
4.78,0.2538642969,0.2618982868
4.79,0.2581814301,0.2574743841
4.8,0.26242005,0.2529798852
4.81,0.266579053,0.2484162633
4.82,0.2706573666,0.243785006
4.83,0.2746539494,0.239087614
4.84,0.2785677913,0.2343256007
4.85,0.2823979133,0.2295004914
4.86,0.2861433674,0.2246138222
4.87,0.2898032368,0.2196671396
4.88,0.2933766353,0.2146619997
4.89,0.2968627076,0.2095999674
4.9,0.300260629,0.2044826156
4.91,0.3035696051,0.1993115248
4.92,0.3067888718,0.1940882822
4.93,0.3099176951,0.1888144812
4.94,0.3129553706,0.1834917205
4.95,0.3159012236,0.1781216039
4.96,0.3187546086,0.1727057394
4.97,0.3215149093,0.1672457387
4.98,0.3241815379,0.1617432168
4.99,0.3267539352,0.1561997912
5,0.3292315703,0.1506170815
5.01,0.3316139398,0.1449967091
5.02,0.3339005683,0.1393402966
5.03,0.3360910071,0.1336494672
5.04,0.3381848348,0.1279258444
5.05,0.3401816564,0.1221710518
5.06,0.342081103,0.1163867124
5.07,0.3438828317,0.1105744483
5.08,0.3455865253,0.1047358808
5.09,0.3471918914,0.09887262922
5.1,0.3486986627,0.09298631149
5.11,0.3501065965,0.08707854334
5.12,0.3514154741,0.08115093821
5.13,0.3526251008,0.075205107
5.14,0.3537353053,0.06924265786
5.15,0.3547459397,0.06326519596
5.16,0.3556568787,0.05727432333
5.17,0.3564680199,0.05127163871
5.18,0.3571792831,0.04525873734
5.19,0.35779061,0.0392372109
5.2,0.3583019642,0.03320864734
5.21,0.3587133306,0.0271746308
5.22,0.3590247155,0.0211367415
5.23,0.3592361459,0.01509655569
5.24,0.3593476699,0.009055645566
5.25,0.3593593557,0.003015579199
5.26,0.3592712922,-0.003022079479
5.27,0.3590835881,-0.009055770732
5.28,0.3587963721,-0.01508393904
5.29,0.358409793,-0.02110503312
5.3,0.3579240187,-0.02711750596
5.31,0.3573392369,-0.03311981478
5.32,0.3566556548,-0.03911042109
5.33,0.3558734986,-0.04508779067
5.34,0.3549930138,-0.05105039356
5.35,0.354014465,-0.05699670406
5.36,0.3529381358,-0.06292520076
5.37,0.351764329,-0.06883436648
5.38,0.3504933662,-0.07472268831
5.39,0.3491255881,-0.08058865761
5.4,0.3476613544,-0.08643077001
5.41,0.3461010436,-0.09224752541
5.42,0.3444450534,-0.09803742799
5.43,0.3426938007,-0.1037989863
5.44,0.3408477214,-0.1095307131
5.45,0.3389072706,-0.1152311257
5.46,0.3368729228,-0.1208987458
5.47,0.3347451718,-0.1265320994
5.48,0.3325245311,-0.1321297172
5.49,0.3302115337,-0.1376901346
5.5,0.3278067325,-0.1432118916
5.51,0.3253107002,-0.148693533
5.52,0.3227240295,-0.1541336085
5.53,0.3200473337,-0.1595306731
5.54,0.317281246,-0.1648832866
5.55,0.3144264206,-0.1701900145
5.56,0.3114835322,-0.1754494277
5.57,0.3084532765,-0.1806601029
5.58,0.3053363704,-0.1858206226
5.59,0.302133552,-0.1909295756
5.6,0.2988455809,-0.1959855571
5.61,0.2954732385,-0.2009871687
5.62,0.292017328,-0.2059330194
5.63,0.2884786748,-0.2108217249
5.64,0.2848581265,-0.215651909
5.65,0.2811565531,-0.2204222029
5.66,0.2773748474,-0.2251312463
5.67,0.2735139248,-0.2297776873
5.68,0.2695747241,-0.2343601833
5.69,0.2655582068,-0.2388774007
5.7,0.261465358,-0.2433280161
5.71,0.2572971862,-0.2477107158
5.72,0.2530547237,-0.2520241975
5.73,0.2487390262,-0.2562671694
5.74,0.2443511735,-0.2604383519
5.75,0.2398922694,-0.2645364773
5.76,0.2353634415,-0.2685602906
5.77,0.2307658418,-0.2725085501
5.78,0.2261006463,-0.2763800279
5.79,0.2213690555,-0.2801735104
5.8,0.2165722937,-0.2838877991
5.81,0.21171161,-0.2875217107
5.82,0.2067882773,-0.2910740785
5.83,0.2018035929,-0.2945437521
5.84,0.1967588784,-0.2979295988
5.85,0.1916554793,-0.3012305038
5.86,0.1864947652,-0.3044453709
5.87,0.1812781295,-0.3075731235
5.88,0.1760069894,-0.3106127047
5.89,0.1706827857,-0.3135630783
5.9,0.1653069825,-0.3164232295
5.91,0.1598810672,-0.3191921657
5.92,0.15440655,-0.3218689165
5.93,0.1488849639,-0.3244525354
5.94,0.1433178642,-0.3269420997
5.95,0.1377068283,-0.3293367113
5.96,0.1320534554,-0.3316354979
5.97,0.1263593659,-0.333837613
5.98,0.1206262013,-0.3359422369
5.99,0.1148556237,-0.3379485776
6,0.1090493152,-0.339855871
