"Freq [GHz]","re(S(Tx_p1,Tx_p1)) []","im(S(Tx_p1,Tx_p1)) []"
1,0.1426017497,-0.08506988412
1.01,0.1412200254,-0.08577681891
1.02,0.1398459613,-0.08653904651
1.03,0.1384761121,-0.08735381465
1.04,0.1371072237,-0.08821839238
1.05,0.1357362254,-0.08913007008
1.06,0.1343602232,-0.0900861595
1.07,0.1329764926,-0.09108399392
1.08,0.1315824728,-0.09212092834
1.09,0.1301757603,-0.09319433979
1.1,0.1287541036,-0.0943016277
1.11,0.1273153976,-0.09544021432
1.12,0.125857679,-0.09660754515
1.13,0.124379121,-0.09780108955
1.14,0.1228780294,-0.09901834121
1.15,0.1213528376,-0.1002568189
1.16,0.1198021032,-0.1015140668
1.17,0.1182245034,-0.1027876558
1.18,0.1166188318,-0.1040751834
1.19,0.1149839946,-0.1053742752
1.2,0.1133190069,-0.106682585
1.21,0.1116229897,-0.1079977962
1.22,0.1098951669,-0.109317622
1.23,0.1081348615,-0.1106398067
1.24,0.1063414933,-0.1119621261
1.25,0.1045145758,-0.1132823884
1.26,0.102653713,-0.1145984355
1.27,0.1007585974,-0.115908143
1.28,0.09882900694,-0.1172094216
1.29,0.09686480222,-0.1185002177
1.3,0.09486592441,-0.1197785144
1.31,0.0928323925,-0.1210423321
1.32,0.09076430102,-0.122289729
1.33,0.08866181761,-0.1235188027
1.34,0.08652518072,-0.1247276902
1.35,0.08435469732,-0.1259145689
1.36,0.08215074069,-0.1270776575
1.37,0.07991374819,-0.1282152165
1.38,0.07764421906,-0.1293255488
1.39,0.07534271235,-0.1304070007
1.4,0.07300984472,-0.1314579624
1.41,0.07064628843,-0.1324768684
1.42,0.06825276919,-0.1334621985
1.43,0.0658300642,-0.134412478
1.44,0.06337900007,-0.1353262785
1.45,0.06090045087,-0.1362022182
1.46,0.05839533611,-0.1370389628
1.47,0.05586461879,-0.1378352254
1.48,0.05330930347,-0.1385897672
1.49,0.05073043435,-0.1393013981
1.5,0.04812909332,-0.1399689768
1.51,0.04550639814,-0.140591411
1.52,0.0428635005,-0.1411676583
1.53,0.0402015842,-0.1416967256
1.54,0.03752186329,-0.1421776702
1.55,0.03482558026,-0.1426095994
1.56,0.03211400424,-0.1429916708
1.57,0.02938842915,-0.1433230926
1.58,0.02665017202,-0.1436031237
1.59,0.02390057116,-0.1438310733
1.6,0.02114098441,-0.1440063017
1.61,0.0183727875,-0.1441282195
1.62,0.01559737224,-0.1441962881
1.63,0.01281614492,-0.1442100193
1.64,0.01003052458,-0.1441689755
1.65,0.007241941398,-0.1440727691
1.66,0.004451835039,-0.1439210628
1.67,0.001661653059,-0.1437135691
1.68,-0.001127150691,-0.1434500498
1.69,-0.003913117628,-0.1431303165
1.7,-0.006694785986,-0.1427542293
1.71,-0.009470692337,-0.1423216971
1.72,-0.01223937309,-0.1418326771
1.73,-0.01499936597,-0.1412871741
1.74,-0.01774921148,-0.1406852403
1.75,-0.02048745429,-0.1400269748
1.76,-0.02321264469,-0.139312523
1.77,-0.02592333994,-0.138542076
1.78,-0.02861810562,-0.1377158701
1.79,-0.03129551695,-0.1368341861
1.8,-0.03395416009,-0.1358973488
1.81,-0.03659263341,-0.1349057262
1.82,-0.03920954873,-0.133859729
1.83,-0.04180353252,-0.1327598095
1.84,-0.04437322708,-0.1316064612
1.85,-0.04691729168,-0.1304002179
1.86,-0.0494344037,-0.1291416528
1.87,-0.05192325972,-0.127831378
1.88,-0.05438257653,-0.1264700432
1.89,-0.05681109221,-0.1250583351
1.9,-0.05920756707,-0.1235969765
1.91,-0.06157078466,-0.1220867253
1.92,-0.06389955265,-0.1205283737
1.93,-0.06619270373,-0.1189227471
1.94,-0.06844909649,-0.1172707033
1.95,-0.07066761622,-0.1155731314
1.96,-0.07284717571,-0.1138309506
1.97,-0.07498671601,-0.1120451097
1.98,-0.0770852071,-0.1102165857
1.99,-0.07914164868,-0.1083463827
2,-0.08115507069,-0.1064355312
2.01,-0.08312453404,-0.1044850867
2.02,-0.0850491311,-0.1024961287
2.03,-0.0869279863,-0.1004697599
2.04,-0.08876025662,-0.09840710465
2.05,-0.09054513204,-0.09630930825
2.06,-0.09228183604,-0.09417753559
2.07,-0.09396962592,-0.09201297022
2.08,-0.09560779322,-0.08981681313
2.09,-0.09719566407,-0.0875902817
2.1,-0.09873259941,-0.08533460854
2.11,-0.1002179953,-0.08305104042
2.12,-0.1016512832,-0.08074083715
2.13,-0.1030319301,-0.07840527044
2.14,-0.1043594386,-0.0760456228
2.15,-0.1056333473,-0.07366318647
2.16,-0.1068532304,-0.07125926227
2.17,-0.1080186984,-0.06883515852
2.18,-0.1091293977,-0.06639218998
2.19,-0.1101850105,-0.06393167671
2.2,-0.1111852553,-0.06145494303
2.21,-0.1121298862,-0.05896331646
2.22,-0.1130186932,-0.05645812664
2.23,-0.1138515018,-0.05394070429
2.24,-0.1146281732,-0.05141238018
2.25,-0.1153486037,-0.04887448411
2.26,-0.1160127249,-0.04632834387
2.27,-0.1166205029,-0.0437752843
2.28,-0.1171719385,-0.04121662624
2.29,-0.1176670669,-0.03865368563
2.3,-0.1181059568,-0.03608777249
2.31,-0.1184887109,-0.03352019005
2.32,-0.1188154648,-0.03095223378
2.33,-0.1190863867,-0.02838519054
2.34,-0.1193016775,-0.02582033765
2.35,-0.1194615698,-0.02325894205
2.36,-0.1195663274,-0.02070225948
2.37,-0.1196162452,-0.01815153361
2.38,-0.1196116484,-0.01560799529
2.39,-0.119552892,-0.01307286173
2.4,-0.1194403604,-0.01054733575
2.41,-0.1192744664,-0.008032605075
2.42,-0.1190556512,-0.005529841578
2.43,-0.1187843832,-0.003040200616
2.44,-0.1184611579,-0.0005648203526
2.45,-0.1180864968,0.001895178879
2.46,-0.1176609469,0.004338695201
2.47,-0.1171850803,0.006764645784
2.48,-0.116659493,0.009171967417
2.49,-0.1160848047,0.01155961706
2.5,-0.1154616578,0.01392657234
2.51,-0.1147907166,0.0162718321
2.52,-0.1140726668,0.01859441681
2.53,-0.1133082148,0.02089336905
2.54,-0.1124980867,0.02316775391
2.55,-0.1116430276,0.0254166594
2.56,-0.1107438012,0.02763919681
2.57,-0.1098011883,0.02983450105
2.58,-0.108815987,0.032001731
2.59,-0.107789011,0.03414006974
2.6,-0.1067210894,0.03624872487
2.61,-0.1056130657,0.03832692873
2.62,-0.1044657972,0.04037393862
2.63,-0.1032801539,0.042389037
2.64,-0.1020570181,0.04437153164
2.65,-0.1007972832,0.04632075578
2.66,-0.09950185354,0.04823606822
2.67,-0.09817164287,0.05011685344
2.68,-0.09680757416,0.05196252168
2.69,-0.09541057859,0.05377250893
2.7,-0.09398159484,0.05554627701
2.71,-0.09252156832,0.05728331354
2.72,-0.09103145046,0.05898313194
2.73,-0.08951219791,0.06064527134
2.74,-0.08796477185,0.06226929656
2.75,-0.08639013725,0.063854798
2.76,-0.08478926217,0.06540139153
2.77,-0.083163117,0.06690871835
2.78,-0.08151267385,0.06837644488
2.79,-0.07983890579,0.06980426251
2.8,-0.07814278619,0.07119188751
2.81,-0.0764252881,0.07253906075
2.82,-0.07468738354,0.0738455475
2.83,-0.07293004289,0.07511113717
2.84,-0.07115423429,0.07633564307
2.85,-0.06936092297,0.07751890213
2.86,-0.06755107071,0.0786607746
2.87,-0.06572563521,0.07976114372
2.88,-0.06388556957,0.08081991544
2.89,-0.06203182169,0.08183701806
2.9,-0.06016533378,0.08281240187
2.91,-0.05828704179,0.0837460388
2.92,-0.05639787494,0.08463792206
2.93,-0.05449875522,0.08548806571
2.94,-0.05259059692,0.08629650428
2.95,-0.05067430618,0.08706329239
2.96,-0.04875078053,0.0877885043
2.97,-0.04682090851,0.08847223348
2.98,-0.04488556921,0.08911459219
2.99,-0.04294563195,0.08971571103
3,-0.04100195585,0.09027573851
3.01,-0.03905538954,0.09079484054
3.02,-0.03710677076,0.09127320002
3.03,-0.03515692612,0.09171101635
3.04,-0.03320667073,0.09210850495
3.05,-0.03125680798,0.09246589682
3.06,-0.02930812925,0.09278343799
3.07,-0.02736141366,0.09306138913
3.08,-0.02541742788,0.09330002498
3.09,-0.02347692587,0.09349963392
3.1,-0.02154064875,0.09366051746
3.11,-0.01960932457,0.09378298977
3.12,-0.01768366818,0.09386737715
3.13,-0.01576438112,0.09391401763
3.14,-0.01385215144,0.09392326038
3.15,-0.01194765363,0.09389546533
3.16,-0.01005154853,0.09383100262
3.17,-0.008164483259,0.09373025215
3.18,-0.006287091137,0.09359360313
3.19,-0.004419991669,0.09342145356
3.2,-0.002563790509,0.09321420982
3.21,-0.0007190794462,0.0929722862
3.22,0.001113563584,0.09269610443
3.23,0.002933574486,0.09238609324
3.24,0.00474040297,0.09204268795
3.25,0.006533512507,0.09166633001
3.26,0.008312380268,0.09125746657
3.27,0.01007649705,0.0908165501
3.28,0.01182536721,0.09034403796
3.29,0.01355850852,0.08984039199
3.3,0.01527545212,0.08930607814
3.31,0.01697574236,0.08874156611
3.32,0.01865893667,0.08814732891
3.33,0.02032460545,0.08752384259
3.34,0.02197233188,0.08687158581
3.35,0.02360171179,0.08619103955
3.36,0.02521235346,0.08548268677
3.37,0.0268038775,0.08474701209
3.38,0.02837591661,0.08398450147
3.39,0.02992811539,0.08319564193
3.4,0.03146013018,0.08238092128
3.41,0.03297162883,0.08154082782
3.42,0.03446229049,0.08067585009
3.43,0.03593180539,0.07978647662
3.44,0.03737987463,0.07887319572
3.45,0.03880620995,0.07793649521
3.46,0.04021053349,0.07697686225
3.47,0.04159257756,0.07599478311
3.48,0.04295208442,0.07499074299
3.49,0.04428880602,0.07396522587
3.5,0.04560250379,0.07291871431
3.51,0.04689294835,0.07185168931
3.52,0.04815991931,0.0707646302
3.53,0.04940320502,0.06965801447
3.54,0.05062260231,0.06853231767
3.55,0.05181791624,0.06738801333
3.56,0.05298895991,0.06622557282
3.57,0.05413555417,0.06504546532
3.58,0.05525752738,0.06384815773
3.59,0.05635471521,0.06263411459
3.6,0.0574269604,0.06140379807
3.61,0.05847411248,0.06015766792
3.62,0.05949602763,0.05889618142
3.63,0.06049256836,0.05761979341
3.64,0.06146360338,0.05632895624
3.65,0.06240900733,0.05502411982
3.66,0.06332866061,0.05370573157
3.67,0.06422244912,0.05237423652
3.68,0.06509026413,0.05103007728
3.69,0.06593200207,0.04967369411
3.7,0.06674756431,0.04830552495
3.71,0.06753685701,0.04692600549
3.72,0.06829979098,0.04553556925
3.73,0.06903628144,0.04413464762
3.74,0.06974624795,0.04272366993
3.75,0.07042961419,0.04130306358
3.76,0.07108630788,0.03987325409
3.77,0.07171626059,0.03843466523
3.78,0.07231940769,0.03698771906
3.79,0.07289568815,0.03553283612
3.8,0.07344504449,0.03407043548
3.81,0.07396742269,0.03260093486
3.82,0.07446277206,0.03112475078
3.83,0.07493104519,0.02964229865
3.84,0.07537219789,0.02815399291
3.85,0.07578618909,0.02666024714
3.86,0.07617298083,0.02516147422
3.87,0.07653253819,0.02365808642
3.88,0.07686482928,0.02215049556
3.89,0.07716982522,0.02063911313
3.9,0.07744750008,0.01912435044
3.91,0.07769783096,0.0176066187
3.92,0.07792079789,0.01608632921
3.93,0.07811638396,0.01456389347
3.94,0.07828457524,0.01303972329
3.95,0.07842536089,0.01151423094
3.96,0.07853873316,0.009987829267
3.97,0.07862468746,0.008460931799
3.98,0.07868322241,0.006933952893
3.99,0.07871433992,0.005407307831
4,0.07871804526,0.003881412934
4.01,0.07869434714,0.002356685673
4.02,0.07864325781,0.0008335447661
4.03,0.07856479317,-0.0006875897229
4.04,0.07845897287,-0.002206296292
4.05,0.07832582043,-0.003722151914
4.06,0.07816536336,-0.00523473196
4.07,0.07797763329,-0.006743610122
4.08,0.07776266611,-0.00824835835
4.09,0.07752050211,-0.009748546787
4.1,0.07725118616,-0.01124374372
4.11,0.07695476782,-0.01273351553
4.12,0.0766313015,-0.01421742667
4.13,0.07628084669,-0.01569503961
4.14,0.07590346805,-0.01716591484
4.15,0.07549923564,-0.01862961084
4.16,0.07506822509,-0.02008568408
4.17,0.07461051775,-0.02153368904
4.18,0.07412620091,-0.02297317822
4.19,0.07361536799,-0.02440370213
4.2,0.07307811871,-0.02582480937
4.21,0.07251455929,-0.02723604665
4.22,0.07192480266,-0.02863695883
4.23,0.07130896864,-0.03002708902
4.24,0.07066718413,-0.03140597862
4.25,0.06999958334,-0.03277316739
4.26,0.06930630797,-0.03412819359
4.27,0.06858750738,-0.03547059404
4.28,0.06784333883,-0.03679990426
4.29,0.06707396766,-0.03811565857
4.3,0.06627956748,-0.03941739023
4.31,0.06546032036,-0.04070463159
4.32,0.06461641702,-0.04197691425
4.33,0.06374805702,-0.04323376918
4.34,0.06285544894,-0.04447472695
4.35,0.06193881057,-0.04569931789
4.36,0.06099836907,-0.04690707225
4.37,0.06003436115,-0.04809752045
4.38,0.05904703321,-0.04927019329
4.39,0.05803664156,-0.05042462211
4.4,0.05700345251,-0.05156033911
4.41,0.05594774255,-0.05267687752
4.42,0.05486979847,-0.05377377186
4.43,0.05376991754,-0.05485055824
4.44,0.05264840759,-0.05590677458
4.45,0.05150558714,-0.05694196088
4.46,0.05034178554,-0.05795565955
4.47,0.04915734301,-0.05894741565
4.48,0.04795261083,-0.0599167772
4.49,0.04672795131,-0.06086329551
4.5,0.04548373797,-0.06178652544
4.51,0.04422035555,-0.06268602578
4.52,0.04293820005,-0.06356135951
4.53,0.04163767885,-0.06441209417
4.54,0.04031921065,-0.06523780218
4.55,0.03898322556,-0.06603806119
4.56,0.03763016511,-0.0668124544
4.57,0.03626048222,-0.06756057093
4.58,0.03487464119,-0.06828200619
4.59,0.03347311771,-0.06897636217
4.6,0.03205639883,-0.06964324788
4.61,0.03062498285,-0.07028227966
4.62,0.02917937934,-0.07089308156
4.63,0.02772010902,-0.0714752857
4.64,0.0262477037,-0.07202853265
4.65,0.02476270616,-0.07255247177
4.66,0.02326567006,-0.07304676165
4.67,0.02175715984,-0.07351107036
4.68,0.02023775053,-0.07394507595
4.69,0.01870802764,-0.07434846672
4.7,0.017168587,-0.07472094163
4.71,0.01562003455,-0.07506221066
4.72,0.01406298621,-0.07537199516
4.73,0.01249806764,-0.07565002825
4.74,0.01092591401,-0.07589605511
4.75,0.00934716984,-0.07610983339
4.76,0.007762488684,-0.07629113353
4.77,0.006172532926,-0.07643973911
4.78,0.0045779735,-0.07655544721
4.79,0.00297948961,-0.0766380687
4.8,0.001377768443,-0.07668742862
4.81,-0.0002264951372,-0.07670336645
4.82,-0.001832598902,-0.07668573647
4.83,-0.003439833589,-0.07663440803
4.84,-0.005047483239,-0.07654926587
4.85,-0.00665482555,-0.07643021041
4.86,-0.008261132238,-0.07627715802
4.87,-0.00986566941,-0.07609004132
4.88,-0.01146769795,-0.07586880939
4.89,-0.01306647392,-0.07561342809
4.9,-0.01466124896,-0.07532388025
4.91,-0.0162512707,-0.07500016595
4.92,-0.01783578319,-0.07464230268
4.93,-0.01941402736,-0.07425032561
4.94,-0.02098524141,-0.07382428776
4.95,-0.02254866133,-0.07336426016
4.96,-0.0241035213,-0.0728703321
4.97,-0.02564905419,-0.07234261119
4.98,-0.02718449207,-0.07178122359
4.99,-0.02870906663,-0.0711863141
5,-0.0302220097,-0.07055804629
5.01,-0.03172255379,-0.06989660261
5.02,-0.03320993251,-0.06920218446
5.03,-0.03468338115,-0.06847501231
5.04,-0.03614213718,-0.0677153257
5.05,-0.03758544075,-0.06692338334
5.06,-0.03901253522,-0.06609946313
5.07,-0.04042266771,-0.06524386214
5.08,-0.04181508959,-0.06435689665
5.09,-0.04318905706,-0.06343890211
5.1,-0.04454383165,-0.06249023313
5.11,-0.04587868077,-0.06151126341
5.12,-0.04719287826,-0.06050238568
5.13,-0.0484857049,-0.05946401162
5.14,-0.04975644897,-0.05839657179
5.15,-0.05100440679,-0.05730051546
5.16,-0.05222888325,-0.05617631052
5.17,-0.05342919236,-0.05502444333
5.18,-0.05460465775,-0.05384541856
5.19,-0.05575461325,-0.05263975897
5.2,-0.05687840338,-0.05140800528
5.21,-0.05797538388,-0.05015071589
5.22,-0.05904492225,-0.04886846669
5.23,-0.06008639827,-0.04756185083
5.24,-0.06109920447,-0.0462314784
5.25,-0.06208274669,-0.0448779762
5.26,-0.06303644452,-0.04350198744
5.27,-0.06395973185,-0.0421041714
5.28,-0.06485205731,-0.04068520316
5.29,-0.06571288479,-0.03924577319
5.3,-0.06654169384,-0.03778658706
5.31,-0.06733798023,-0.03630836502
5.32,-0.0681012563,-0.03481184163
5.33,-0.06883105148,-0.03329776538
5.34,-0.06952691264,-0.03176689823
5.35,-0.07018840461,-0.03022001524
5.36,-0.0708151105,-0.02865790408
5.37,-0.07140663214,-0.02708136458
5.38,-0.07196259044,-0.02549120829
5.39,-0.07248262582,-0.02388825797
5.4,-0.07296639848,-0.02227334711
5.41,-0.07341358882,-0.0206473194
5.42,-0.07382389773,-0.01901102827
5.43,-0.07419704693,-0.0173653363
5.44,-0.07453277927,-0.0157111147
5.45,-0.07483085899,-0.01404924279
5.46,-0.07509107204,-0.01238060738
5.47,-0.0753132263,-0.01070610228
5.48,-0.07549715185,-0.009026627651
5.49,-0.07564270115,-0.007343089454
5.5,-0.0757497493,-0.005656398852
5.51,-0.0758181942,-0.003967471607
5.52,-0.07584795674,-0.00227722747
5.53,-0.07583898095,-0.0005865895664
5.54,-0.07579123412,0.001103516224
5.55,-0.07570470697,0.002792161895
5.56,-0.0755794137,0.004478417939
5.57,-0.07541539213,0.006161353993
5.58,-0.07521270371,0.007840039467
5.59,-0.07497143361,0.009513544193
5.6,-0.07469169073,0.01118093907
5.61,-0.07437360773,0.0128412967
5.62,-0.074017341,0.01449369205
5.63,-0.07362307066,0.0161372031
5.64,-0.07319100048,0.0177709115
5.65,-0.07272135785,0.01939390317
5.66,-0.07221439368,0.02100526903
5.67,-0.07167038231,0.02260410559
5.68,-0.07108962135,0.02418951559
5.69,-0.07047243162,0.02576060869
5.7,-0.0698191569,0.02731650206
5.71,-0.06913016381,0.02885632106
5.72,-0.0684058416,0.03037919983
5.73,-0.06764660194,0.03188428194
5.74,-0.06685287867,0.03337072101
5.75,-0.06602512758,0.03483768131
5.76,-0.06516382608,0.03628433839
5.77,-0.064269473,0.03770987967
5.78,-0.06334258822,0.03911350504
5.79,-0.06238371236,0.04049442742
5.8,-0.06139340645,0.04185187337
5.81,-0.06037225158,0.04318508364
5.82,-0.05932084849,0.04449331374
5.83,-0.05823981725,0.04577583446
5.84,-0.05712979677,0.04703193244
5.85,-0.05599144443,0.04826091066
5.86,-0.05482543565,0.04946208899
5.87,-0.05363246338,0.05063480465
5.88,-0.05241323772,0.05177841276
5.89,-0.05116848536,0.05289228671
5.9,-0.04989894911,0.05397581875
5.91,-0.04860538741,0.05502842033
5.92,-0.04728857379,0.05604952259
5.93,-0.04594929634,0.05703857675
5.94,-0.04458835715,0.05799505452
5.95,-0.04320657178,0.05891844852
5.96,-0.04180476865,0.05980827258
5.97,-0.0403837885,0.06066406215
5.98,-0.03894448378,0.06148537462
5.99,-0.03748771803,0.06227178963
6,-0.0360143653,0.0630229094
