"Freq [GHz]","re(S(Tx_p1,Tx_p1)) []","im(S(Tx_p1,Tx_p1)) []"
1,0.258003534,-0.1230922214
1.01,0.2551343437,-0.1217964774
1.02,0.2523968282,-0.1206127549
1.03,0.2497834213,-0.1195387686
1.04,0.2472868758,-0.118572278
1.05,0.2449002454,-0.1177110831
1.06,0.2426168692,-0.1169530227
1.07,0.2404303556,-0.1162959708
1.08,0.2383345683,-0.1157378343
1.09,0.2363236134,-0.1152765505
1.1,0.2343918263,-0.1149100848
1.11,0.2325337605,-0.1146364282
1.12,0.2307441769,-0.1144535955
1.13,0.2290180329,-0.1143596228
1.14,0.227350474,-0.114352566
1.15,0.2257368238,-0.1144304986
1.16,0.2241725766,-0.1145915103
1.17,0.2226533893,-0.1148337048
1.18,0.221175074,-0.1151551985
1.19,0.2197335914,-0.1155541192
1.2,0.2183250446,-0.1160286042
1.21,0.2169456729,-0.1165767992
1.22,0.2155918465,-0.1171968568
1.23,0.2142600614,-0.1178869358
1.24,0.2129469341,-0.1186451991
1.25,0.2116491979,-0.1194698136
1.26,0.210363698,-0.1203589487
1.27,0.209087388,-0.1213107752
1.28,0.207817326,-0.1223234648
1.29,0.2065506717,-0.123395189
1.3,0.2052846824,-0.1245241185
1.31,0.2040167112,-0.1257084224
1.32,0.2027442031,-0.1269462677
1.33,0.2014646935,-0.1282358186
1.34,0.2001758051,-0.1295752359
1.35,0.1988752461,-0.1309626771
1.36,0.1975608083,-0.1323962952
1.37,0.1962303647,-0.133874239
1.38,0.1948818686,-0.1353946528
1.39,0.1935133512,-0.1369556757
1.4,0.1921229206,-0.1385554421
1.41,0.1907087602,-0.1401920813
1.42,0.1892691278,-0.1418637174
1.43,0.187802354,-0.1435684695
1.44,0.1863068414,-0.1453044517
1.45,0.1847810635,-0.1470697733
1.46,0.183223564,-0.1488625392
1.47,0.1816329557,-0.1506808496
1.48,0.1800079198,-0.1525228009
1.49,0.1783472053,-0.1543864857
1.5,0.176649628,-0.1562699936
1.51,0.1749140704,-0.1581714112
1.52,0.1731394805,-0.1600888228
1.53,0.1713248719,-0.1620203111
1.54,0.1694693226,-0.1639639579
1.55,0.167571975,-0.1659178442
1.56,0.1656320352,-0.1678800517
1.57,0.1636487725,-0.1698486627
1.58,0.1616215192,-0.1718217618
1.59,0.1595496697,-0.1737974357
1.6,0.1574326807,-0.1757737751
1.61,0.1552700701,-0.1777488748
1.62,0.153061417,-0.1797208351
1.63,0.1508063609,-0.1816877624
1.64,0.1485046016,-0.1836477706
1.65,0.1461558986,-0.1855989818
1.66,0.1437600704,-0.1875395274
1.67,0.1413169942,-0.1894675494
1.68,0.1388266056,-0.191381201
1.69,0.1362888975,-0.1932786483
1.7,0.1337039198,-0.195158071
1.71,0.1310717791,-0.1970176636
1.72,0.1283926377,-0.1988556367
1.73,0.1256667128,-0.200670218
1.74,0.1228942765,-0.2024596536
1.75,0.1200756544,-0.204222209
1.76,0.1172112251,-0.2059561703
1.77,0.1143014196,-0.2076598455
1.78,0.1113467202,-0.2093315655
1.79,0.10834766,-0.2109696854
1.8,0.1053048214,-0.2125725854
1.81,0.102218836,-0.2141386722
1.82,0.09909038312,-0.21566638
1.83,0.09592018882,-0.2171541716
1.84,0.09270902511,-0.2186005395
1.85,0.08945770879,-0.2200040068
1.86,0.08616710034,-0.2213631287
1.87,0.08283810284,-0.2226764929
1.88,0.07947166079,-0.2239427211
1.89,0.07606875894,-0.2251604696
1.9,0.0726304211,-0.2263284306
1.91,0.06915770885,-0.2274453327
1.92,0.0656517203,-0.228509942
1.93,0.06211358879,-0.2295210628
1.94,0.05854448156,-0.2304775385
1.95,0.05494559838,-0.2313782523
1.96,0.05131817024,-0.2322221279
1.97,0.04766345789,-0.2330081302
1.98,0.04398275048,-0.2337352656
1.99,0.04027736409,-0.2344025832
2,0.03654864034,-0.2350091748
2.01,0.03279794488,-0.2355541755
2.02,0.02902666595,-0.2360367642
2.03,0.02523621289,-0.236456164
2.04,0.02142801469,-0.2368116425
2.05,0.01760351843,-0.237102512
2.06,0.01376418786,-0.2373281298
2.07,0.009911501865,-0.2374878984
2.08,0.006046952964,-0.2375812656
2.09,0.00217204585,-0.2376077246
2.1,-0.001711704114,-0.2375668139
2.11,-0.005602772373,-0.2374581176
2.12,-0.009499626642,-0.2372812649
2.13,-0.01340072836,-0.2370359304
2.14,-0.01730453415,-0.2367218334
2.15,-0.02120949721,-0.2363387383
2.16,-0.02511406876,-0.2358864539
2.17,-0.0290166994,-0.2353648332
2.18,-0.0329158405,-0.2347737731
2.19,-0.03680994552,-0.234113214
2.2,-0.04069747134,-0.233383139
2.21,-0.04457687953,-0.232583574
2.22,-0.04844663764,-0.2317145867
2.23,-0.05230522041,-0.2307762862
2.24,-0.05615111095,-0.2297688226
2.25,-0.05998280193,-0.2286923856
2.26,-0.06379879669,-0.227547205
2.27,-0.06759761034,-0.2263335487
2.28,-0.07137777078,-0.2250517229
2.29,-0.07513781977,-0.2237020709
2.3,-0.07887631384,-0.2222849724
2.31,-0.08259182526,-0.2208008427
2.32,-0.0862829429,-0.2192501317
2.33,-0.08994827312,-0.2176333231
2.34,-0.09358644052,-0.2159509334
2.35,-0.09719608874,-0.2142035114
2.36,-0.1007758811,-0.2123916368
2.37,-0.1043245015,-0.2105159193
2.38,-0.1078406546,-0.2085769978
2.39,-0.1113230669,-0.2065755395
2.4,-0.1147704869,-0.2045122388
2.41,-0.1181816858,-0.2023878163
2.42,-0.1215554579,-0.2002030177
2.43,-0.124890621,-0.1979586133
2.44,-0.1281860167,-0.1956553965
2.45,-0.1314405106,-0.1932941829
2.46,-0.1346529929,-0.1908758098
2.47,-0.1378223786,-0.1884011346
2.48,-0.1409476071,-0.1858710341
2.49,-0.1440276432,-0.1832864039
2.5,-0.1470614766,-0.1806481567
2.51,-0.1500481222,-0.1779572223
2.52,-0.1529866201,-0.175214546
2.53,-0.1558760355,-0.1724210879
2.54,-0.158715459,-0.1695778222
2.55,-0.161504006,-0.1666857362
2.56,-0.1642408171,-0.1637458296
2.57,-0.1669250577,-0.1607591136
2.58,-0.1695559179,-0.1577266102
2.59,-0.1721326122,-0.1546493512
2.6,-0.1746543796,-0.1515283781
2.61,-0.177120483,-0.1483647406
2.62,-0.1795302091,-0.1451594966
2.63,-0.1818828684,-0.1419137112
2.64,-0.1841777942,-0.1386284562
2.65,-0.1864143432,-0.1353048096
2.66,-0.1885918944,-0.1319438549
2.67,-0.1907098491,-0.1285466808
2.68,-0.1927676307,-0.1251143804
2.69,-0.1947646839,-0.1216480511
2.7,-0.1967004749,-0.1181487939
2.71,-0.1985744906,-0.1146177134
2.72,-0.2003862383,-0.1110559168
2.73,-0.2021352456,-0.1074645142
2.74,-0.2038210596,-0.103844618
2.75,-0.2054432469,-0.1001973426
2.76,-0.2070013931,-0.09652380452
2.77,-0.2084951025,-0.09282512162
2.78,-0.2099239976,-0.08910241338
2.79,-0.2112877188,-0.08535680058
2.8,-0.2125859243,-0.08158940516
2.81,-0.2138182896,-0.07780135018
2.82,-0.2149845069,-0.07399375968
2.83,-0.2160842855,-0.07016775865
2.84,-0.2171173509,-0.066324473
2.85,-0.2180834448,-0.06246502954
2.86,-0.218982325,-0.058590556
2.87,-0.2198137648,-0.05470218102
2.88,-0.2205775533,-0.05080103421
2.89,-0.2212734946,-0.0468882462
2.9,-0.2219014082,-0.0429649487
2.91,-0.2224611287,-0.0390322746
2.92,-0.2229525054,-0.03509135801
2.93,-0.2233754028,-0.0311433344
2.94,-0.2237297,-0.02718934068
2.95,-0.2240152907,-0.0232305153
2.96,-0.2242320836,-0.01926799838
2.97,-0.224380002,-0.01530293179
2.98,-0.2244589842,-0.0113364593
2.99,-0.2244689829,-0.007369726637
3,-0.2244099662,-0.003403881645
3.01,-0.2242819169,0.0005599256644
3.02,-0.2240848331,0.004520542992
3.03,-0.2238187282,0.00847681568
3.04,-0.2234836311,0.01242758663
3.05,-0.2230795863,0.01637169626
3.06,-0.2226066543,0.02030798242
3.07,-0.2220649116,0.02423528041
3.08,-0.2214544513,0.02815242291
3.09,-0.220775383,0.03205824003
3.1,-0.2200278333,0.03595155927
3.11,-0.2192119461,0.03983120561
3.12,-0.2183278829,0.04369600156
3.13,-0.2173758231,0.04754476723
3.14,-0.2163559645,0.05137632041
3.15,-0.2152685232,0.05518947676
3.16,-0.2141137348,0.05898304992
3.17,-0.2128918539,0.0627558517
3.18,-0.211603155,0.06650669227
3.19,-0.2102479328,0.07023438045
3.2,-0.2088265024,0.07393772388
3.21,-0.2073392001,0.07761552939
3.22,-0.2057863832,0.08126660327
3.23,-0.2041684311,0.08488975166
3.24,-0.2024857449,0.08848378085
3.25,-0.2007387485,0.09204749775
3.26,-0.1989278885,0.09557971031
3.27,-0.1970536349,0.09907922793
3.28,-0.1951164811,0.102544862
3.29,-0.1931169444,0.1059754265
3.3,-0.1910555666,0.1093697382
3.31,-0.1889329139,0.1127266178
3.32,-0.1867495773,0.1160448899
3.33,-0.184506173,0.1193233841
3.34,-0.1822033427,0.1225609355
3.35,-0.1798417537,0.1257563851
3.36,-0.1774220991,0.128908581
3.37,-0.1749450979,0.1320163788
3.38,-0.1724114955,0.1350786422
3.39,-0.1698220637,0.1380942442
3.4,-0.1671776003,0.1410620675
3.41,-0.1644789302,0.1439810054
3.42,-0.1617269044,0.1468499626
3.43,-0.1589224007,0.1496678562
3.44,-0.1560663232,0.152433616
3.45,-0.1531596029,0.1551461862
3.46,-0.1502031967,0.1578045254
3.47,-0.1471980883,0.1604076081
3.48,-0.144145287,0.1629544251
3.49,-0.1410458284,0.1654439846
3.5,-0.1379007736,0.1678753132
3.51,-0.1347112092,0.1702474565
3.52,-0.1314782468,0.1725594802
3.53,-0.1282030229,0.1748104707
3.54,-0.1248866983,0.1769995363
3.55,-0.1215304577,0.1791258079
3.56,-0.1181355093,0.1811884397
3.57,-0.1147030844,0.1831866104
3.58,-0.1112344366,0.1851195236
3.59,-0.1077308416,0.186986409
3.6,-0.1041935961,0.188786523
3.61,-0.1006240177,0.1905191495
3.62,-0.09702344376,0.1921836006
3.63,-0.09339323098,0.1937792176
3.64,-0.08973475452,0.1953053713
3.65,-0.08604940728,0.1967614632
3.66,-0.08233859905,0.1981469255
3.67,-0.0786037557,0.1994612226
3.68,-0.07484631829,0.2007038509
3.69,-0.07106774217,0.2018743399
3.7,-0.06726949609,0.2029722525
3.71,-0.06345306121,0.2039971855
3.72,-0.05961993016,0.2049487702
3.73,-0.05577160602,0.205826673
3.74,-0.05190960132,0.2066305954
3.75,-0.04803543701,0.2073602747
3.76,-0.0441506414,0.208015484
3.77,-0.0402567491,0.2085960329
3.78,-0.03635529994,0.2091017675
3.79,-0.03244783788,0.2095325708
3.8,-0.02853590989,0.2098883624
3.81,-0.02462106489,0.2101690992
3.82,-0.02070485257,0.2103747751
3.83,-0.01678882233,0.2105054215
3.84,-0.01287452213,0.2105611065
3.85,-0.008963497352,0.2105419358
3.86,-0.005057289729,0.2104480517
3.87,-0.001157436183,0.2102796337
3.88,0.002734532263,0.2100368981
3.89,0.006617091594,0.2097200974
3.9,0.0104887259,0.2093295208
3.91,0.01434792844,0.2088654932
3.92,0.01819320275,0.208328375
3.93,0.02202306366,0.2077185623
3.94,0.02583603833,0.2070364856
3.95,0.02963066732,0.2062826101
3.96,0.03340550553,0.2054574346
3.97,0.0371591232,0.2045614914
3.98,0.04089010687,0.2035953456
3.99,0.04459706032,0.2025595944
4,0.04827860545,0.2014548666
4.01,0.05193338313,0.200281822
4.02,0.05556005413,0.1990411502
4.03,0.05915729985,0.1977335707
4.04,0.06272382314,0.1963598313
4.05,0.06625834907,0.194920708
4.06,0.06975962558,0.1934170038
4.07,0.07322642426,0.191849548
4.08,0.0766575409,0.1902191953
4.09,0.08005179617,0.1885268249
4.1,0.08340803615,0.1867733398
4.11,0.08672513289,0.1849596657
4.12,0.09000198489,0.1830867502
4.13,0.09323751757,0.1811555617
4.14,0.09643068369,0.1791670887
4.15,0.09958046369,0.1771223388
4.16,0.1026858661,0.1750223373
4.17,0.1057459278,0.1728681272
4.18,0.1087597143,0.1706607671
4.19,0.1117263198,0.168401331
4.2,0.1146448677,0.1660909073
4.21,0.1175145106,0.1637305974
4.22,0.12033443,0.1613215151
4.23,0.1231038372,0.1588647854
4.24,0.1258219726,0.1563615439
4.25,0.1284881059,0.1538129357
4.26,0.1311015361,0.1512201141
4.27,0.1336615917,0.1485842404
4.28,0.13616763,0.1459064824
4.29,0.1386190374,0.1431880139
4.3,0.1410152289,0.1404300134
4.31,0.1433556484,0.1376336639
4.32,0.1456397678,0.1348001514
4.33,0.1478670872,0.1319306645
4.34,0.1500371344,0.1290263936
4.35,0.1521494646,0.1260885299
4.36,0.1542036601,0.1231182648
4.37,0.1561993298,0.1201167894
4.38,0.1581361092,0.1170852934
4.39,0.1600136592,0.1140249649
4.4,0.1618316665,0.1109369891
4.41,0.1635898426,0.1078225486
4.42,0.1652879235,0.104682822
4.43,0.1669256694,0.1015189839
4.44,0.1685028637,0.09833220423
4.45,0.1700193132,0.09512364754
4.46,0.1714748467,0.09189447287
4.47,0.1728693154,0.08864583317
4.48,0.1742025917,0.08537887496
4.49,0.1754745688,0.0820947379
4.5,0.1766851604,0.07879455456
4.51,0.1778342999,0.07547945002
4.52,0.1789219399,0.07215054169
4.53,0.1799480517,0.06880893901
4.54,0.1809126249,0.06545574326
4.55,0.1818156666,0.0620920474
4.56,0.1826572009,0.05871893587
4.57,0.1834372686,0.05533748451
4.58,0.1841559264,0.05194876045
4.59,0.1848132468,0.04855382202
4.6,0.185409317,0.04515371874
4.61,0.1859442391,0.04174949124
4.62,0.186418129,0.03834217132
4.63,0.1868311166,0.03493278195
4.64,0.1871833447,0.03152233731
4.65,0.187474969,0.02811184286
4.66,0.1877061576,0.02470229541
4.67,0.1878770908,0.02129468325
4.68,0.1879879601,0.01788998626
4.69,0.1880389689,0.01448917601
4.7,0.188030331,0.01109321593
4.71,0.1879622714,0.007703061504
4.72,0.1878350251,0.004319660369
4.73,0.1876488376,0.0009439525471
4.74,0.1874039642,-0.002423129387
4.75,0.1871006697,-0.005780660108
4.76,0.1867392287,-0.009127721339
4.77,0.1863199252,-0.01246340165
4.78,0.1858430522,-0.01578679626
4.79,0.1853089119,-0.01909700682
4.8,0.1847178156,-0.02239314118
4.81,0.1840700834,-0.02567431326
4.82,0.1833660445,-0.02893964278
4.83,0.1826060367,-0.03218825507
4.84,0.181790407,-0.03541928091
4.85,0.1809195108,-0.03863185634
4.86,0.1799937129,-0.04182512246
4.87,0.1790133869,-0.04499822528
4.88,0.1779789152,-0.04815031556
4.89,0.1768906897,-0.05128054869
4.9,0.1757491114,-0.05438808452
4.91,0.1745545906,-0.05747208729
4.92,0.1733075472,-0.06053172548
4.93,0.1720084108,-0.06356617179
4.94,0.1706576209,-0.06657460298
4.95,0.1692556268,-0.06955619993
4.96,0.1678028882,-0.07251014752
4.97,0.1662998754,-0.07543563466
4.98,0.1647470689,-0.0783318543
4.99,0.1631449606,-0.08119800344
5,0.161494053,-0.08403328319
5.01,0.1597948602,-0.08683689883
5.02,0.158047908,-0.08960805993
5.03,0.1562537337,-0.09234598042
5.04,0.1544128867,-0.09504987878
5.05,0.152525929,-0.09771897814
5.06,0.1505934347,-0.1003525065
5.07,0.1486159911,-0.1029496969
5.08,0.146594198,-0.1055097878
5.09,0.1445286689,-0.1080320229
5.1,0.1424200304,-0.1105156521
5.11,0.1402689229,-0.1129599309
5.12,0.1380760008,-0.1153641217
5.13,0.1358419322,-0.1177274934
5.14,0.1335673996,-0.1200493218
5.15,0.1312531001,-0.1223288904
5.16,0.128899745,-0.1245654906
5.17,0.1265080605,-0.1267584218
5.18,0.1240787875,-0.1289069923
5.19,0.1216126817,-0.1310105192
5.2,0.119110514,-0.1330683295
5.21,0.1165730703,-0.1350797601
5.22,0.1140011514,-0.1370441584
5.23,0.1113955733,-0.1389608827
5.24,0.1087571673,-0.1408293031
5.25,0.1060867795,-0.1426488015
5.26,0.1033852711,-0.1444187723
5.27,0.1006535184,-0.1461386233
5.28,0.09789241241,-0.1478077757
5.29,0.09510285895,-0.1494256647
5.3,0.09228577842,-0.1509917407
5.31,0.08944210563,-0.152505469
5.32,0.08657278961,-0.1539663308
5.33,0.0836787934,-0.1553738237
5.34,0.08076109377,-0.1567274622
5.35,0.07782068093,-0.1580267782
5.36,0.07485855827,-0.1592713219
5.37,0.07187574199,-0.1604606616
5.38,0.06887326075,-0.1615943851
5.39,0.0658521553,-0.1626720994
5.4,0.06281347804,-0.163693432
5.41,0.05975829261,-0.1646580307
5.42,0.05668767342,-0.1655655646
5.43,0.05360270515,-0.1664157242
5.44,0.05050448227,-0.167208222
5.45,0.04739410849,-0.1679427932
5.46,0.04427269618,-0.1686191957
5.47,0.04114136584,-0.1692372108
5.48,0.0380012455,-0.1697966433
5.49,0.03485347005,-0.1702973223
5.5,0.03169918064,-0.170739101
5.51,0.02853952403,-0.1711218577
5.52,0.02537565193,-0.1714454953
5.53,0.02220872024,-0.1717099423
5.54,0.01903988844,-0.1719151525
5.55,0.01587031882,-0.1720611056
5.56,0.01270117575,-0.1721478071
5.57,0.009533624978,-0.1721752888
5.58,0.006368832827,-0.1721436085
5.59,0.003207965478,-0.1720528506
5.6,5.218818696E-05,-0.1719031259
5.61,-0.003097335484,-0.1716945714
5.62,-0.006239444443,-0.1714273509
5.63,-0.009372980851,-0.1711016547
5.64,-0.0124967909,-0.1707176994
5.65,-0.01560972559,-0.1702757281
5.66,-0.01871064152,-0.16977601
5.67,-0.02179840167,-0.1692188408
5.68,-0.02487187614,-0.1686045418
5.69,-0.02792994298,-0.1679334605
5.7,-0.03097148888,-0.1672059697
5.71,-0.03399541001,-0.1664224675
5.72,-0.03700061268,-0.1655833773
5.73,-0.03998601412,-0.1646891471
5.74,-0.04295054321,-0.1637402493
5.75,-0.04589314116,-0.1627371804
5.76,-0.04881276222,-0.1616804605
5.77,-0.05170837437,-0.160570633
5.78,-0.05457895997,-0.1594082639
5.79,-0.05742351638,-0.1581939419
5.8,-0.06024105664,-0.1569282773
5.81,-0.06303061003,-0.1556119016
5.82,-0.06579122268,-0.1542454674
5.83,-0.06852195811,-0.1528296472
5.84,-0.07122189778,-0.1513651335
5.85,-0.07389014161,-0.1498526376
5.86,-0.07652580847,-0.1482928893
5.87,-0.07912803661,-0.1466866363
5.88,-0.08169598417,-0.1450346435
5.89,-0.08422882953,-0.143337692
5.9,-0.08672577171,-0.1415965792
5.91,-0.08918603074,-0.1398121174
5.92,-0.09160884799,-0.1379851333
5.93,-0.09399348645,-0.1361164676
5.94,-0.09633923104,-0.1342069739
5.95,-0.09864538881,-0.1322575181
5.96,-0.1009112892,-0.1302689779
5.97,-0.1031362841,-0.1282422419
5.98,-0.1053197483,-0.1261782085
5.99,-0.1074610792,-0.1240777861
6,-0.1095596974,-0.1219418914
