"Freq [GHz]","re(S(Antenna1_1_1,Antenna1_1_1)) []","im(S(Antenna1_1_1,Antenna1_1_1)) []"
1,-0.801841572528551,-0.481446086772086
1.01,-0.820423418589007,-0.441272837129475
1.02,-0.837276306727286,-0.398888151463954
1.03,-0.852139240216067,-0.354240387930459
1.04,-0.864716504586138,-0.30729356752307
1.05,-0.874674114757948,-0.258033705251921
1.06,-0.881636592557552,-0.206476830261286
1.07,-0.885184238213136,-0.152678914492964
1.08,-0.884851758539485,-0.0967483266186704
1.09,-0.880128439921125,-0.0388606158375928
1.1,-0.870461421280722,0.0207236946386893
1.11,-0.855262784032952,0.0816383149116915
1.12,-0.833922713387121,0.143388666536398
1.13,-0.805829912725417,0.205326754559871
1.14,-0.770401988470487,0.266627628733804
1.15,-0.727127429619541,0.326267963978781
1.16,-0.675621080221179,0.383012796271292
1.17,-0.615692344805383,0.435415889956569
1.18,-0.547424785081162,0.481840470024933
1.19,-0.471260891749113,0.52050889571572
1.2,-0.388081608411414,0.549587014918294
1.21,-0.299265988239596,0.567306726691609
1.22,-0.206712021530413,0.572122116171831
1.23,-0.112800897446042,0.562885620069494
1.24,-0.0202921909516212,0.539020512245762
1.25,0.0678522863605181,0.500657832622868
1.26,0.14869664269046,0.448705320920097
1.27,0.219585228137933,0.384826233877267
1.28,0.278373435998743,0.311319813845746
1.29,0.323600782375223,0.230925288264993
1.3,0.354573963142259,0.146576321670609
1.31,0.371353932564304,0.0611548421987758
1.32,0.374659805072291,-0.0227185379800524
1.33,0.365718197184935,-0.10283378598687
1.34,0.34608983759216,-0.177469287369139
1.35,0.31750189718846,-0.245405726219094
1.36,0.281706067020258,-0.305890667663167
1.37,0.240372949464167,-0.358571986384339
1.38,0.195021301095073,-0.403418201108511
1.39,0.146981156300528,-0.440637380563176
1.4,0.0973797815200033,-0.470603550978726
1.41,0.0471468550036725,-0.493794548500052
1.42,-0.00296917632837408,-0.510743262989505
1.43,-0.0523799408285486,-0.522000941102294
1.44,-0.100633886635754,-0.528112303907654
1.45,-0.147391684875512,-0.529596715103781
1.46,-0.192406040994759,-0.526939226336233
1.47,-0.235500910057737,-0.520584925631811
1.48,-0.276557701983639,-0.510937881614392
1.49,-0.315498840685387,-0.498361173180229
1.5,-0.352279343145081,-0.483180152930637
1.51,-0.3868763191088,-0.465685625035058
1.52,-0.419283390633656,-0.446137655825869
1.53,-0.449505253387112,-0.424769762697449
1.54,-0.477554091796589,-0.401792413785291
1.55,-0.503446806947737,-0.377397192981832
1.56,-0.527204232456335,-0.351759468529481
1.57,-0.548849046844318,-0.325041244423287
1.58,-0.568406571862361,-0.297393939960812
1.59,-0.585903965069262,-0.268959435285867
1.6,-0.601370654833263,-0.239872094576458
1.61,-0.614838942151466,-0.210259617937538
1.62,-0.626343733553412,-0.180243243044411
1.63,-0.635923614039454,-0.149938378664538
1.64,-0.643620390274562,-0.119454788029125
1.65,-0.649479734953912,-0.0888957766377251
1.66,-0.653550348227215,-0.0583590324167874
1.67,-0.65588418225461,-0.0279352929869482
1.68,-0.656535899821083,0.00229124352210407
1.69,-0.655561898281187,0.0322433610803472
1.7,-0.653019694876337,0.0618511652267969
1.71,-0.648967446863155,0.0910510831872703
1.72,-0.643462122669937,0.119786618205235
1.73,-0.636560054940995,0.148006974554381
1.74,-0.628314697510005,0.17566704041464
1.75,-0.618777162670085,0.202726264385289
1.76,-0.607995455813773,0.229147546217177
1.77,-0.596013804246291,0.254896325958633
1.78,-0.582873439719704,0.27993950566194
1.79,-0.568612244718025,0.30424461410422
1.8,-0.553265492347393,0.327778003684617
1.81,-0.536867246507299,0.350505259307022
1.82,-0.5194498924124,0.372389580403302
1.83,-0.501046593513119,0.393391850483684
1.84,-0.481691544155952,0.413470636213042
1.85,-0.461421513106664,0.432582001832045
1.86,-0.440276846009328,0.450680462666544
1.87,-0.418301948295299,0.467719263850952
1.88,-0.395547208021432,0.483652158949865
1.89,-0.372067676065523,0.498433219955002
1.9,-0.347924896699542,0.512019720371738
1.91,-0.323185911287694,0.524371636988282
1.92,-0.297922440103205,0.535455835751896
1.93,-0.272211567003863,0.545243188183236
1.94,-0.246133105780904,0.553712648736999
1.95,-0.219768536842802,0.560850877062728
1.96,-0.193201048371872,0.566652418285244
1.97,-0.166512634842884,0.571120190711179
1.98,-0.139783130037101,0.574264936360618
1.99,-0.113088657235963,0.576104213107895
2,-0.0865014931879285,0.57666211640576
2.01,-0.0600866636249228,0.575968595513484
2.02,-0.033905856486723,0.574055841928705
2.03,-0.00801120491595997,0.570959056447642
2.04,0.0175482052091266,0.566715036480083
2.05,0.0427305939920845,0.561359692563406
2.06,0.0674996703033743,0.5549268001226
2.07,0.0918208363941996,0.547449033054718
2.08,0.115664312705283,0.538955394021618
2.09,0.139000450101229,0.529472409368302
2.1,0.161799866244503,0.519022457904785
2.11,0.184032730460086,0.507627456410996
2.12,0.205664688789838,0.49530477506245
2.13,0.226661836312517,0.482074541333218
2.14,0.246984890065796,0.467955483301127
2.15,0.266592043020078,0.452969704103439
2.16,0.285437689170466,0.437141583388099
2.17,0.303474872117392,0.420500952590582
2.18,0.320654610949366,0.403083011949536
2.19,0.336928220202843,0.384929211617174
2.2,0.352248463171668,0.366088625889937
2.21,0.366571345584652,0.346615878644972
2.22,0.379857267663746,0.326572584093091
2.23,0.392072733745938,0.306026095139671
2.24,0.403191203768139,0.285048166826829
2.25,0.413194775410557,0.263713696300243
2.26,0.42207361888705,0.242099356154528
2.27,0.429828025204493,0.220280882285408
2.28,0.436465690629344,0.198333220985912
2.29,0.442003829956291,0.176325400384742
2.3,0.446465413631742,0.154324889871501
2.31,0.44988031118672,0.13239112223117
2.32,0.452281945932245,0.110574875812519
2.33,0.453707401371702,0.088923590475327
2.34,0.454193524467464,0.0674745949585852
2.35,0.453778041610631,0.0462584686537345
2.36,0.452495894796342,0.0252995736961532
2.37,0.450378733546241,0.00461846676059642
2.38,0.447454750870159,-0.0157702906049938
2.39,0.443745530305639,-0.0358536681271972
2.4,0.439271817445787,-0.0556189825786063
2.41,0.43404656755123,-0.0750536582638877
2.42,0.428080291933241,-0.0941430829004176
2.43,0.421381630205514,-0.112870521366855
2.44,0.41395398320959,-0.131213804400173
2.45,0.405805164383723,-0.149148833850127
2.46,0.396941245078296,-0.166645507642349
2.47,0.387370858580349,-0.183671806595912
2.48,0.377107715420891,-0.200187518784024
2.49,0.366168784792025,-0.216156648298883
2.5,0.354575644075982,-0.231539570052432
2.51,0.342360662920905,-0.246293902837512
2.52,0.329555614544771,-0.260382270387326
2.53,0.316202439979799,-0.273768805943109
2.54,0.302347359260197,-0.286422518053973
2.55,0.2880409663926,-0.298317038935514
2.56,0.273334715764556,-0.309433676243174
2.57,0.258285573419233,-0.319759129583398
2.58,0.242948823385185,-0.329287684478633
2.59,0.227377754499822,-0.338021493803881
2.6,0.211625042058994,-0.345967942903772
2.61,0.195739074036278,-0.353140892346445
2.62,0.179762262276524,-0.359558966952111
2.63,0.163732490553279,-0.36524461768837
2.64,0.147682881753227,-0.370222057597315
2.65,0.131638266696274,-0.374516840189746
2.66,0.115618993854995,-0.378153449237604
2.67,0.099638962954813,-0.381154611983386
2.68,0.0837096555997564,-0.383540295988694
2.69,0.0678374061673646,-0.385328274649078
2.7,0.0520270831436254,-0.386528490238912
2.71,0.0362830104905394,-0.387150054908353
2.72,0.0206074684067166,-0.387196627496417
2.73,0.00500672122526509,-0.386666801093033
2.74,-0.0105107468531422,-0.385556463360436
2.75,-0.0259349147240282,-0.38385922237924
2.76,-0.0412498662396334,-0.381566379430192
2.77,-0.0564364137226608,-0.378669872873075
2.78,-0.0714712098429467,-0.375161261049269
2.79,-0.0863258118569346,-0.371035401669459
2.8,-0.100969287229018,-0.366288589839362
2.81,-0.115367236615181,-0.360921774925531
2.82,-0.129483481868943,-0.354940873981536
2.83,-0.143280853127227,-0.348354367116188
2.84,-0.156722524757463,-0.341178879086226
2.85,-0.169773304375174,-0.333434469346998
2.86,-0.182399233063372,-0.325145461251111
2.87,-0.19457056187705,-0.316340652307809
2.88,-0.206261052072034,-0.307052131099085
2.89,-0.217450767069212,-0.297313970140784
2.9,-0.228120395232295,-0.287162070086488
2.91,-0.238259900983138,-0.276631434915264
2.92,-0.247862596155701,-0.265758438133791
2.93,-0.256923125929365,-0.254575336984644
2.94,-0.265445175519223,-0.243112958783114
2.95,-0.273431481153111,-0.231399312236868
2.96,-0.280887875901517,-0.219458201343041
2.97,-0.287820990692016,-0.207310024327517
2.98,-0.294238452105602,-0.194971963027216
2.99,-0.300145492288114,-0.182456060107258
3,-0.305546824075647,-0.169772724653943
3.01,-0.310445807927582,-0.156929413421735
3.02,-0.314841399210821,-0.143932120074464
3.03,-0.318729448815315,-0.130784762082489
3.04,-0.322103011983638,-0.117492256936073
3.05,-0.32494986531816,-0.104060581689273
3.06,-0.327258526733481,-0.0904976336772354
3.07,-0.329010884890812,-0.0768130723047933
3.08,-0.330189847859941,-0.063019203536545
3.09,-0.330774878671682,-0.0491336995905028
3.1,-0.330746319996108,-0.0351777594307629
3.11,-0.330083527519174,-0.0211751022394592
3.12,-0.328768076685026,-0.00715590553677313
3.13,-0.326782726548408,0.00684647526063969
3.14,-0.324112923391826,0.0207949314549968
3.15,-0.320750443697091,0.0346490727742488
3.16,-0.316686620818689,0.0483661529450676
3.17,-0.311919140347083,0.0619024110140943
3.18,-0.306451327810143,0.0752103731463029
3.19,-0.300290511000776,0.0882446946562941
3.2,-0.29344990502748,0.10096086799535
3.21,-0.285944260906005,0.113313002118883
3.22,-0.277796088836854,0.125257925211932
3.23,-0.269030128327661,0.136756931878936
3.24,-0.259674414659987,0.147772485446892
3.25,-0.249760559588836,0.158270542646551
3.26,-0.239321265414002,0.168221181080797
3.27,-0.228390736648176,0.177597579382159
3.28,-0.217004965293593,0.186377581099092
3.29,-0.20519856318066,0.19454045405194
3.3,-0.193006417411776,0.202071102391129
3.31,-0.180462382489248,0.208954922006789
3.32,-0.167599348001318,0.21518031860616
3.33,-0.154447701415331,0.220737881021363
3.34,-0.141037145598661,0.225618499729786
3.35,-0.127395558022825,0.229813304300421
3.36,-0.113550553885303,0.233312284709626
3.37,-0.0995265011234234,0.236106229211222
3.38,-0.0853496387516696,0.238183907164463
3.39,-0.0710466122977828,0.239531799142807
3.4,-0.0566440236693798,0.240135302796597
3.41,-0.0421713612607562,0.23997808954956
3.42,-0.0276616817220855,0.239042291121064
3.43,-0.0131513146144846,0.237309028646303
3.44,0.00132033984216278,0.234760892073197
3.45,0.0157053897827202,0.231379527048335
3.46,0.0299521700731061,0.227149990868852
3.47,0.0440046507504918,0.222060343674353
3.48,0.0577991293408762,0.216104061420795
3.49,0.0712692126101994,0.209282050155667
3.5,0.0843436352906329,0.201601420505856
3.51,0.0969500163085245,0.193078817018622
3.52,0.109012565262552,0.183741284578382
3.53,0.12046039154557,0.173624101324093
3.54,0.13122206156721,0.162777003164138
3.55,0.1412318435509,0.151256309218252
3.56,0.150436571637368,0.13912733587843
3.57,0.158783786261612,0.126465345824588
3.58,0.166237855463305,0.11335137666003
3.59,0.172771485483242,0.099868943695711
3.6,0.178371506309687,0.0861031142420001
3.61,0.183036636561527,0.0721407892423089
3.62,0.186777037424585,0.0580614869028507
3.63,0.189611598563234,0.0439436997962406
3.64,0.191571373435002,0.029856552906962
3.65,0.19269441887882,0.0158571997478372
3.66,0.193021806485348,0.00199717020998185
3.67,0.192593168250549,-0.0116890429328214
3.68,0.19145452904366,-0.0251661775398008
3.69,0.189649497107043,-0.0384140897753973
3.7,0.187208451622181,-0.0514224406066197
3.71,0.184163500775763,-0.0641827049221767
3.72,0.180536820976528,-0.0766907753975677
3.73,0.176344067323389,-0.0889438246196673
3.74,0.171593643878638,-0.100937600212995
3.75,0.166287922425799,-0.112665581731636
3.76,0.160425906764724,-0.124113249276499
3.77,0.154002070830478,-0.135263776962437
3.78,0.147012424076,-0.146089657380214
3.79,0.139453121359881,-0.156557785033505
3.8,0.131326530087476,-0.166628576058363
3.81,0.122641149595562,-0.17625574280847
3.82,0.113410127099518,-0.185392095839539
3.83,0.103660947929607,-0.1939846892583
3.84,0.0934273593101175,-0.201983831682306
3.85,0.0827538856855613,-0.20934315851041
3.86,0.0716942044631345,-0.216020400182872
3.87,0.0603103683761964,-0.221982647743478
3.88,0.0486684761467282,-0.227204496841776
3.89,0.0368420733929274,-0.231674832880322
3.9,0.0249013161970901,-0.235389272550753
3.91,0.0129185604953461,-0.238358528404849
3.92,0.00096284550445715,-0.240604920061163
3.93,-0.0109051553622101,-0.242158694282174
3.94,-0.0226314330311119,-0.243061034857097
3.95,-0.034173402428152,-0.24335496752159
3.96,-0.0454956586162424,-0.243093240811855
3.97,-0.0565772439973954,-0.242326111762262
3.98,-0.0674065683939528,-0.241105498233049
3.99,-0.0779814244787023,-0.23947734058282
4,-0.0883113569065075,-0.237483895748423
4.01,-0.0984065070967174,-0.235157789181883
4.02,-0.108288681355343,-0.232527498729386
4.03,-0.11797837995903,-0.229608452021141
4.04,-0.127497391120066,-0.226408750484355
4.05,-0.13686500293776,-0.222928448617104
4.06,-0.146094798021789,-0.219159082864857
4.07,-0.155197892890137,-0.215086612048552
4.08,-0.164174606971174,-0.210693734041832
4.09,-0.173021183931256,-0.205957896659697
4.1,-0.181723153266964,-0.200861289234873
4.11,-0.1902533865387,-0.195383935954794
4.12,-0.19858860198584,-0.189514250853708
4.13,-0.206691410376784,-0.183243155932004
4.14,-0.214523809249171,-0.176570325348381
4.15,-0.222045233159782,-0.169502716512596
4.16,-0.229211255506726,-0.162059354266484
4.17,-0.235984823253173,-0.154263378676706
4.18,-0.242329367587789,-0.146146726391996
4.19,-0.248215856544853,-0.137750226690673
4.2,-0.253619689739134,-0.129118511414925
4.21,-0.258528988760035,-0.120299413594934
4.22,-0.26293587242695,-0.111342693994253
4.23,-0.266844522588461,-0.102298815623859
4.24,-0.270265673712186,-0.0932139155945968
4.25,-0.273219153654533,-0.0841324133407979
4.26,-0.27573040070426,-0.0750905213594336
4.27,-0.277830548795172,-0.0661190326298887
4.28,-0.279554311050441,-0.0572386763205796
4.29,-0.280935398721654,-0.0484657882836622
4.3,-0.282009799530789,-0.0398051616908936
4.31,-0.282809144473686,-0.0312557179695303
4.32,-0.283362377722359,-0.0228071410782016
4.33,-0.283690031719292,-0.0144470417840219
4.34,-0.283808228341125,-0.00615798107106502
4.35,-0.28372778606561,0.00207856144951029
4.36,-0.283448456406451,0.0102855835576295
4.37,-0.282964788833276,0.0184788286765546
4.38,-0.282265683877961,0.0266742009710653
4.39,-0.281332245561712,0.0348828635356245
4.4,-0.28014434224836,0.0431089095356209
4.41,-0.278677830302684,0.0513501002215021
4.42,-0.27690855981351,0.0595978078656079
4.43,-0.274812603517066,0.0678354558382411
4.44,-0.272369965603868,0.0760412121570483
4.45,-0.269564396242968,0.0841863283029408
4.46,-0.266384883235426,0.0922381410412782
4.47,-0.26282694118701,0.100160022523737
4.48,-0.258893646635364,0.107914966156638
4.49,-0.254594732529506,0.115466113716741
4.5,-0.249947375099266,0.122776405627233
4.51,-0.244975495016074,0.12981422956463
4.52,-0.239708542028241,0.136551699181941
4.53,-0.234179772573521,0.14296759353233
4.54,-0.22842552052355,0.149046223808257
4.55,-0.222483515834589,0.154780050107254
4.56,-0.216391430368653,0.160168120341771
4.57,-0.210184581741182,0.165217050596602
4.58,-0.203895107535837,0.169937298829981
4.59,-0.197551156446407,0.174346781624583
4.6,-0.191172705428507,0.178464769339834
4.61,-0.184778661374085,0.182318921687348
4.62,-0.178376695719895,0.185930732412378
4.63,-0.171969014992173,0.189325634148179
4.64,-0.165552655282603,0.192522715579968
4.65,-0.159117306602111,0.195542123802724
4.66,-0.152656757705259,0.198392600200322
4.67,-0.14614918875733,0.201086414694114
4.68,-0.139581757302841,0.203623046319862
4.69,-0.132933827262315,0.206001268553088
4.7,-0.126194724292142,0.208207425127872
4.71,-0.119349446020806,0.210229794338735
4.72,-0.112392757925399,0.212046587487599
4.73,-0.105319606212834,0.213635922060051
4.74,-0.0981339989079037,0.214973480559234
4.75,-0.0908447773917768,0.216033957473165
4.76,-0.0834679602310747,0.216794347529963
4.77,-0.0760251461565351,0.21723055221391
4.78,-0.0685358676685617,0.217330153042918
4.79,-0.0610362804283608,0.217076094294434
4.8,-0.0535595872084841,0.216459438721662
4.81,-0.0461311665674807,0.215483353460608
4.82,-0.0387933760412598,0.214149294573414
4.83,-0.0315768875271686,0.212472310131168
4.84,-0.0245096892707305,0.210461549467843
4.85,-0.0176167301532158,0.208144201092214
4.86,-0.0109250194012445,0.205547366441755
4.87,-0.00444601003779464,0.202690267311012
4.88,0.0018117053745494,0.199609305814331
4.89,0.00784110092510831,0.196335016744424
4.9,0.0136458688473221,0.192889215051058
4.91,0.0192323214558046,0.189298062174064
4.92,0.0246098849717498,0.185582178974981
4.93,0.0297942445615155,0.181763139074581
4.94,0.0348009333170067,0.177846381834353
4.95,0.0396490883251834,0.17384166731397
4.96,0.0443517756654842,0.169748247097511
4.97,0.0489273683162062,0.165563564347393
4.98,0.053384385781434,0.161277911838046
4.99,0.0577318174397643,0.156881851901798
5,0.0619712189932151,0.152360787480645
5.01,0.0660985574578104,0.147692757102387
5.02,0.0701192918742108,0.142877677741866
5.03,0.074008001218505,0.137890352394874
5.04,0.0777514380189939,0.132722165593963
5.05,0.0813313385328177,0.127369078958165
5.06,0.0847220262166321,0.121826413562246
5.07,0.0879041316996952,0.116095465222344
5.08,0.0908507318071253,0.110186391329551
5.09,0.093535902217912,0.104110876494107
5.1,0.0959396831324011,0.0978859486072755
5.11,0.0980421247700294,0.0915343909770906
5.12,0.0998297137587193,0.0850784223306861
5.13,0.101292457032062,0.0785518216478546
5.14,0.102424246696176,0.0719796978195119
5.15,0.103225222363731,0.0653929515260599
5.16,0.103699660145328,0.0588198743055065
5.17,0.103861169890889,0.052287338384069
5.18,0.10372289883896,0.0458160828394324
5.19,0.103298458762528,0.0394342202193022
5.2,0.102613084402693,0.0331441466525009
5.21,0.101685033419669,0.0269673560355803
5.22,0.100533504146217,0.0209038597948266
5.23,0.099180829556389,0.0149562819934854
5.24,0.0976409957597294,0.0091219724603814
5.25,0.0959347633656758,0.00339288634808195
5.26,0.0940677300292117,-0.00224059750838825
5.27,0.0920496753589625,-0.00778667352581131
5.28,0.089881920653889,-0.0132578404481905
5.29,0.0875631319053871,-0.0186603138790671
5.3,0.0850864919835956,-0.0240122337472172
5.31,0.0824452601864811,-0.0293120844980316
5.32,0.0796259128788492,-0.0345653159876645
5.33,0.0766167913552326,-0.0397684645004921
5.34,0.0734007250029156,-0.0449211519303897
5.35,0.0699619017985093,-0.0500134447316129
5.36,0.0662933906926398,-0.0550288403763677
5.37,0.0623837472101638,-0.0599511526154742
5.38,0.0582217304567799,-0.0647596331596255
5.39,0.0538032130776255,-0.0694336466185991
5.4,0.049132933879393,-0.0739472498444072
5.41,0.0442135363563509,-0.0782747907183268
5.42,0.0390536162039274,-0.0823902187558967
5.43,0.0336689681287478,-0.0862750625052555
5.44,0.0280752721716397,-0.0899074272774588
5.45,0.0222937485185567,-0.0932698491808147
5.46,0.0163482742065676,-0.0963510815564355
5.47,0.0102593306228401,-0.0991361166028543
5.48,0.00405750450325588,-0.101622121740643
5.49,-0.00223744302259094,-0.103810687419525
5.5,-0.00860056842219114,-0.105704180191185
5.51,-0.0150090615758685,-0.107305948237911
5.52,-0.0214489639863617,-0.108627023104449
5.53,-0.0279009482041377,-0.109678141360231
5.54,-0.0343551772762053,-0.110474973847893
5.55,-0.0408051290166329,-0.111023573993719
5.56,-0.0472467648055034,-0.111341106106907
5.57,-0.0536756288641478,-0.111436029559273
5.58,-0.0600989027273753,-0.111317073553561
5.59,-0.0665158721104345,-0.11099044239989
5.6,-0.0729323135993435,-0.11045788639915
5.61,-0.0793530196461111,-0.10971405789271
5.62,-0.0857839893182474,-0.108763156943936
5.63,-0.0922318218431962,-0.1075924951394
5.64,-0.0986907581111138,-0.106194541311253
5.65,-0.105164981989234,-0.104559447309594
5.66,-0.111644791127147,-0.102665031559012
5.67,-0.118125208961073,-0.100504656891482
5.68,-0.124591995147524,-0.0980601744255169
5.69,-0.13103081079825,-0.0953214881214596
