"Freq [GHz]","re(S(Antenna1_1_p1,Antenna1_1_p1)) []","im(S(Antenna1_1_p1,Antenna1_1_p1)) []"
3,0.0883982956757872,-0.093011751909387
3.002,0.0875606039745999,-0.0940934168116278
3.004,0.0867103182315265,-0.095168326849813
3.006,0.0858455259211175,-0.0962352265488325
3.008,0.0849668348791517,-0.0972956576994777
3.01,0.0840721559650745,-0.0983474420165913
3.012,0.0831656170153965,-0.0993947442436454
3.014,0.0822428923607069,-0.10043411459954
3.016,0.0813051728681895,-0.101466401432467
3.018,0.0803549442242424,-0.10249189161537
3.02,0.0793889249293935,-0.103505054669655
3.022,0.0783988977726598,-0.104518446672212
3.024,0.0774057919373809,-0.105511820680168
3.026,0.0763942716241175,-0.106502254300992
3.028,0.0753675955615956,-0.107487327354553
3.03,0.0743208712127071,-0.108452392502011
3.032,0.0732619033916373,-0.109415282217885
3.034,0.0721858520850112,-0.11036432193106
3.036,0.0710935708381525,-0.111305097651679
3.038,0.0699873788384368,-0.112232654126175
3.04,0.0688605014727017,-0.113146911264968
3.042,0.067724523429807,-0.114048174580476
3.044,0.06657198790584,-0.114941619923939
3.046,0.0654015550789701,-0.115817515298936
3.048,0.064215626794886,-0.116678538211616
3.05,0.0630126415253692,-0.117524818224254
3.052,0.061799979861258,-0.118360955829705
3.054,0.06056921548725,-0.119177270929839
3.056,0.0593230769354328,-0.119981552135182
3.058,0.0580661523828504,-0.120762116571212
3.06,0.0567912038815762,-0.12153418252134
3.062,0.0555111518120629,-0.122279075853313
3.064,0.0542106497964852,-0.123010654095263
3.066,0.0528981513475716,-0.123726105819194
3.068,0.0515737229779752,-0.124419465454156
3.07,0.0502402609926626,-0.1250920121549
3.072,0.0488921991417164,-0.125746131358082
3.074,0.0475338055241382,-0.126379238485131
3.076,0.0461672021614651,-0.126994599528602
3.078,0.0447912107968133,-0.127583951443142
3.08,0.0434072775624896,-0.128158096792073
3.082,0.0420125977117308,-0.12870382998249
3.084,0.040607291970747,-0.129236682368999
3.086,0.0392051671982667,-0.129738715041127
3.088,0.0377938658207046,-0.130223186617151
3.09,0.0363740422832499,-0.130683667396669
3.092,0.034952025267368,-0.131122381025825
3.094,0.0335258674102107,-0.131540147162958
3.096,0.0320963559444003,-0.131933235775094
3.098,0.0306663402839856,-0.132303615825897
3.1,0.0292327315841464,-0.132654645601316
3.102,0.0277980868563232,-0.13298132426208
3.104,0.0263623564008112,-0.133288935991592
3.106,0.024930433397891,-0.133574308608969
3.108,0.0234972819340803,-0.133834870679613
3.11,0.0220657721719295,-0.134080022260859
3.112,0.0206355309432531,-0.134301664600583
3.114,0.0192101767525584,-0.134501707418864
3.116,0.0177869950927158,-0.134679651824607
3.118,0.0163744964168076,-0.13484641241637
3.12,0.0149588320991886,-0.134992030940344
3.122,0.0135521100138488,-0.135116944855527
3.124,0.0121505205898793,-0.135222716382603
3.126,0.0107526281142858,-0.135313302482857
3.128,0.0093632735719227,-0.135385894403373
3.13,0.0079806349697671,-0.135443889917822
3.132,0.00660317815132008,-0.135485821843602
3.134,0.005235904588284,-0.135512091161131
3.136,0.00387533905152099,-0.135527077503417
3.138,0.00252069697217483,-0.135525976044332
3.14,0.0011764852960765,-0.135512105156134
3.142,-0.00016403338565577,-0.13548600271281
3.144,-0.00149583802569778,-0.135444020208205
3.146,-0.00281980689345118,-0.135396754994471
3.148,-0.00413504670563422,-0.135342134918098
3.15,-0.00544539858471211,-0.135275042995622
3.152,-0.00674446641606302,-0.135198688448115
3.154,-0.00804191593082304,-0.13511089376137
3.156,-0.0093314568045792,-0.135015997906885
3.158,-0.0106139494706657,-0.134913032056539
3.16,-0.0118896655126068,-0.134806044501072
3.162,-0.013159223303404,-0.134688087053263
3.164,-0.0144255659427148,-0.13456623666796
3.166,-0.0156865407096991,-0.13444145615577
3.168,-0.0169416357950878,-0.134304241158574
3.17,-0.0181941610609379,-0.134162146863821
3.172,-0.019441385502365,-0.134022048506584
3.174,-0.020690252937202,-0.133872655730355
3.176,-0.0219359097132904,-0.133722133744713
3.178,-0.0231759996079646,-0.133558021169705
3.18,-0.0244186090550719,-0.133395672399031
3.182,-0.0256618473711407,-0.133231780402046
3.184,-0.0269018805686394,-0.133053749938555
3.186,-0.0281413501340488,-0.132876485557373
3.188,-0.0293858426325233,-0.13269505871475
3.19,-0.0306294500994359,-0.132508573227557
3.192,-0.0318760410686117,-0.132313879922312
3.194,-0.0331294011320576,-0.132116630720998
3.196,-0.0343796768714375,-0.131909941115725
3.198,-0.0356315487772961,-0.131702447511217
3.2,-0.0368932345179762,-0.131480469019068
3.202,-0.0381605861933491,-0.131252593682932
3.204,-0.039427291316184,-0.131021865836445
3.206,-0.0407006294543099,-0.130779368636038
3.208,-0.0419838526514999,-0.130525865240686
3.21,-0.0432664890460784,-0.13026699526729
3.212,-0.0445549626592741,-0.129995033290809
3.214,-0.0458535794562763,-0.129715252099942
3.216,-0.0471550238240783,-0.129420511538067
3.218,-0.0484642878589802,-0.129114428844344
3.22,-0.0497810953558896,-0.128797448516905
3.222,-0.0511009034073105,-0.128465973370815
3.224,-0.0524288302771017,-0.128120317776318
3.226,-0.0537604199299182,-0.12775969256335
3.228,-0.0550996840404161,-0.127382347405454
3.23,-0.0564409008212065,-0.126987249674107
3.232,-0.0577889213304913,-0.126576214121175
3.234,-0.0591410278524804,-0.126147827757403
3.236,-0.060498251616483,-0.125701424436159
3.238,-0.0618560647678185,-0.125235656018569
3.24,-0.0632203759693694,-0.124745829655458
3.242,-0.0645863403229061,-0.124242440236793
3.244,-0.0659522134141684,-0.123712343639981
3.246,-0.067323171538613,-0.123165769190128
3.248,-0.0686939090599803,-0.122597596793137
3.25,-0.0700613765904992,-0.122002279231781
3.252,-0.0714283628959234,-0.121389054626633
3.254,-0.0727913984822231,-0.120745500728938
3.256,-0.0741542052484309,-0.120087796338383
3.258,-0.0755125929393637,-0.119399440151805
3.26,-0.076868747249513,-0.118692198679794
3.262,-0.0782248091967309,-0.117956348843253
3.264,-0.0795623711690025,-0.117199724161867
3.266,-0.0808986183905533,-0.116418381994483
3.268,-0.0822247410243625,-0.115609324341469
3.27,-0.0835458622034247,-0.114783459060985
3.272,-0.08485804556863,-0.113927274140156
3.274,-0.0861521616606963,-0.113052134679265
3.276,-0.0874352756846412,-0.112152110194829
3.278,-0.0887103089090944,-0.111227552617619
3.28,-0.0899694968455796,-0.110281158761684
3.282,-0.0912155436834739,-0.109311391340279
3.284,-0.0924433066721423,-0.108321647625745
3.286,-0.0936540155270687,-0.107309268720387
3.288,-0.0948494121348109,-0.106275944507274
3.29,-0.0960269085629762,-0.105222491475023
3.292,-0.0971860324719712,-0.104149880963529
3.294,-0.0983255244684589,-0.103057801763683
3.296,-0.099445455592602,-0.101948350092055
3.298,-0.100545195545017,-0.100821478144541
3.3,-0.101620728125485,-0.099680880264977
3.302,-0.102679627480401,-0.0985190912077829
3.304,-0.103709428975971,-0.0973460435264987
3.306,-0.104724637833186,-0.0961613712002946
3.308,-0.105714337179481,-0.0949574961277116
3.31,-0.106680744938183,-0.093746127076278
3.312,-0.107623349070738,-0.0925221403823005
3.314,-0.108543512364602,-0.0912879076961205
3.316,-0.109438203174956,-0.0900461957853123
3.318,-0.110309853711156,-0.0887952598577324
3.32,-0.111158912531918,-0.0875363528485342
3.322,-0.111983944948244,-0.0862709021122902
3.324,-0.112785384549161,-0.0850010181678709
3.326,-0.113563334470144,-0.0837254209382426
3.328,-0.114315221530334,-0.0824494669115907
3.33,-0.115050631773514,-0.0811636005511052
3.332,-0.115758123403803,-0.0798809450088989
3.334,-0.116447100894151,-0.0785948944381291
3.336,-0.117110513452604,-0.0773093351697856
3.338,-0.117751886015247,-0.0760252406662834
3.34,-0.118372617976002,-0.0747442588011442
3.342,-0.118977616267126,-0.0734585284556365
3.344,-0.119563257334499,-0.0721785353744825
3.346,-0.120125813954659,-0.0709018105285703
3.348,-0.120670896589631,-0.0696293342487129
3.35,-0.121194109886474,-0.068359571105455
3.352,-0.121705348339631,-0.0670941020068617
3.354,-0.122197498248432,-0.0658336414684176
3.356,-0.122672662903074,-0.0645794185998962
3.358,-0.123133440782641,-0.0633269559553293
3.36,-0.123580532867448,-0.0620828375469887
3.362,-0.124014230868094,-0.0608457149974171
3.364,-0.124434344012684,-0.0596125449385198
3.366,-0.124841365408797,-0.0583859014036916
3.368,-0.125237174768599,-0.0571676779310128
3.37,-0.125619980844304,-0.0559528914324807
3.372,-0.125995617837698,-0.0547444547983162
3.374,-0.126358740423288,-0.0535438283233304
3.376,-0.126714678117142,-0.0523463278513154
3.378,-0.127062201151772,-0.0511558017595588
3.38,-0.12739977580518,-0.0499710733483595
3.382,-0.127732017539734,-0.0487895526176676
3.384,-0.128057072797887,-0.0476150863107444
3.386,-0.128375700718414,-0.046446022141935
3.388,-0.128690265930689,-0.0452775939694745
3.39,-0.128996125267798,-0.0441161149613831
3.392,-0.129298791130399,-0.0429561220164763
3.394,-0.129599659782402,-0.0417986977063839
3.396,-0.129893624206427,-0.0406442134587036
3.398,-0.130186432727031,-0.0394869459541993
3.4,-0.130468133094788,-0.0383410460131265
3.402,-0.130751739646073,-0.0371895985194012
3.404,-0.131029800867757,-0.0360377561546835
3.406,-0.131306761494559,-0.0348889151728242
3.408,-0.131579509960336,-0.03373733927185
3.41,-0.131848350195074,-0.0325847061183889
3.412,-0.132115060536713,-0.0314295991294155
3.414,-0.132377979415788,-0.0302733499510091
3.416,-0.13263748901885,-0.0291145779881436
3.418,-0.132895417175692,-0.0279495443520081
3.42,-0.133146100987408,-0.0267812959797765
3.422,-0.133393616190225,-0.0256118405114805
3.424,-0.133638111851167,-0.024433273195763
3.426,-0.133877268095508,-0.0232520073154225
3.428,-0.134107668164079,-0.0220654607246846
3.43,-0.134337574982331,-0.0208733286381962
3.432,-0.134559829426248,-0.0196741162406924
3.434,-0.134773598107069,-0.0184673534498036
3.436,-0.134984434961843,-0.0172530885644868
3.438,-0.135186477003747,-0.0160326794052454
3.44,-0.135381897535315,-0.0148055155705102
3.442,-0.135567371185395,-0.0135703943590755
3.444,-0.135745630982002,-0.0123272536397369
3.446,-0.135913933707934,-0.0110757062709866
3.448,-0.136073428355294,-0.0098174115888652
3.45,-0.136219847802651,-0.00855111004694775
3.452,-0.136357546308094,-0.00727482673142222
3.454,-0.136480422819679,-0.00599348482934643
3.456,-0.136595996004862,-0.00470466214198083
3.458,-0.136697632262186,-0.00340645967932494
3.46,-0.136784283149875,-0.00209983342169163
3.462,-0.13685767782044,-0.00078786968952981
3.464,-0.136917480067785,0.00052777506271692
3.466,-0.13696211283324,0.00185518809554004
3.468,-0.136992761553609,0.00318509457620474
3.47,-0.13700547470182,0.0045237854404226
3.472,-0.137004120593617,0.00586697850187292
3.474,-0.13698437938163,0.00721420530161661
3.476,-0.136947887536026,0.0085686997463116
3.478,-0.136893634757846,0.0099240811203468
3.48,-0.136823034400248,0.0112860731687556
3.482,-0.136734777966277,0.0126522076560513
3.484,-0.136625905137791,0.0140186682748373
3.486,-0.136498237268562,0.0153867157113406
3.488,-0.136352121433227,0.0167567991447411
3.49,-0.136187979518493,0.0181317572493574
3.492,-0.136002798855232,0.0195045752756897
3.494,-0.135798945818395,0.0208764397152793
3.496,-0.135575118936865,0.022247658490463
3.498,-0.135330044583101,0.0236178341388831
3.5,-0.135067798494695,0.0249883586871319
3.502,-0.134784703268824,0.0263549899852651
3.504,-0.134481781945503,0.0277173892858738
3.506,-0.134159149662821,0.0290755752273141
3.508,-0.133816909033933,0.0304294155329342
3.51,-0.133454422091048,0.0317795474173722
3.512,-0.133073744225218,0.0331237821222368
3.514,-0.132675840188046,0.03446244986636
3.516,-0.132253871456291,0.0357921156921318
3.518,-0.131815606088324,0.0371189585385331
3.52,-0.131359865712516,0.0384354686524474
3.522,-0.130885022418488,0.0397427347908514
3.524,-0.13039097006427,0.0410421527641149
3.526,-0.129882492712351,0.0423324533700455
3.528,-0.129352923684635,0.0436125452295167
3.53,-0.128808200997279,0.0448832593254345
3.532,-0.128247951179471,0.0461438356606371
3.534,-0.127670871731063,0.0473909553213984
3.536,-0.127078182572135,0.0486282717725535
3.538,-0.126471224145494,0.049855305882104
3.54,-0.12584743525802,0.0510676363524222
3.542,-0.125210644216001,0.0522722559550213
3.544,-0.12455965222631,0.0534602697072127
3.546,-0.12389240684055,0.0546363898815896
3.548,-0.123213001104099,0.0558009220832344
3.55,-0.122523562589267,0.0569501074828438
3.552,-0.121820716442499,0.0580879681705516
3.554,-0.121105911087778,0.0592123579376826
3.556,-0.120380072528074,0.0603220165142487
3.558,-0.119645141468116,0.0614185912192887
3.56,-0.118897285877294,0.0625006852360024
3.562,-0.118141027767587,0.0635692262767256
3.564,-0.117375268840737,0.0646250448917101
3.566,-0.116601104785482,0.0656663428996854
3.568,-0.11581695611675,0.0666918661862709
3.57,-0.115024254517449,0.0677083474412099
3.572,-0.114225432793301,0.0687069348993531
3.574,-0.113419250271628,0.0696935639875179
3.576,-0.112607086594573,0.0706663867061303
3.578,-0.111786283403098,0.071623568251669
3.58,-0.110962788882955,0.0725701420469463
3.582,-0.110130950485455,0.0735023711541691
3.584,-0.109293986297727,0.074421984381838
3.586,-0.108450777502117,0.0753280973384247
3.588,-0.107602821546943,0.0762230722908896
3.59,-0.106749553245749,0.0771020995359944
3.592,-0.105893917823471,0.0779714593954159
3.594,-0.105033349652522,0.0788267723416786
3.596,-0.104168500570021,0.0796729042918876
3.598,-0.103303031337576,0.0805043655603024
3.6,-0.102429945182798,0.0813249271127428
3.602,-0.101552832508316,0.082133223426911
3.604,-0.100678473528454,0.0829324434268087
3.606,-0.099797766445802,0.0837171802572682
3.608,-0.098914869390851,0.0844949873129054
3.61,-0.0980274952955481,0.0852617504241266
3.612,-0.0971423983208813,0.0860142889803414
3.614,-0.09625141639243,0.0867574257031679
3.616,-0.0953567891039138,0.0874917986567591
3.618,-0.0944626838237556,0.088215198949939
3.62,-0.0935662702795832,0.0889282902302458
3.622,-0.0926663538128115,0.0896339379052597
3.624,-0.0917647284591408,0.0903309685059484
3.626,-0.0908621457311196,0.0910149190141547
3.628,-0.0899582666216849,0.0916938185994085
3.63,-0.0890509871037032,0.0923602174290693
3.632,-0.0881436886135401,0.0930205134741583
3.634,-0.0872337908076142,0.0936699676820071
3.636,-0.0863202000700088,0.0943101426312139
3.638,-0.085406517814026,0.0949445589934041
3.64,-0.0844914246258427,0.0955747243063675
3.642,-0.0835741926021157,0.0961893952718043
3.644,-0.0826499916056463,0.0967984869307958
3.646,-0.0817323846330528,0.0974016440444065
3.648,-0.0808056030404769,0.0979987571846645
3.65,-0.0798848486243152,0.0985827967043599
3.652,-0.0789503932891752,0.099161380904508
3.654,-0.0780214109064551,0.099734030559548
3.656,-0.0770895480048943,0.100299073005621
3.658,-0.0761551890240053,0.100855143994148
3.66,-0.0752164639986804,0.101405260116507
3.662,-0.0742758412920445,0.101948520117842
3.664,-0.0733334535794043,0.102483424565797
3.666,-0.0723896263841947,0.103011989887651
3.668,-0.0714431906474271,0.103531136458292
3.67,-0.0704937811190147,0.104045321087007
3.672,-0.0695420716033519,0.104550134549068
3.674,-0.0685861527029932,0.105051091800169
3.676,-0.0676262985430499,0.105543160854703
3.678,-0.0666662656456144,0.106028869820789
3.68,-0.0657010811850285,0.106505533687218
3.682,-0.0647325875541216,0.106976746325147
3.684,-0.0637640687847087,0.107440751891662
3.686,-0.0627876044373483,0.107896756163165
3.688,-0.061810223432382,0.108344330745555
3.69,-0.0608291431926625,0.108785829539286
3.692,-0.0598470378155549,0.109221745288221
3.694,-0.058858689783215,0.109647436633341
3.696,-0.0578680608174013,0.110067123997246
3.698,-0.0568730531871635,0.110477533475544
3.7,-0.055876456924204,0.11088334726203
3.702,-0.0548719694152052,0.111277118964723
3.704,-0.0538680081413483,0.111665381668724
3.706,-0.0528576651148189,0.112043538176518
3.708,-0.0518463716333834,0.112417266243836
3.71,-0.0508293421111514,0.1127789267883
3.712,-0.0498095500832272,0.113135108968676
3.714,-0.048784685180879,0.113482165286618
3.716,-0.0477577013244147,0.113814128569381
3.718,-0.0467250038591621,0.114144593640169
3.72,-0.0456905895159527,0.114464479683934
3.722,-0.0446503968000388,0.114773942096907
3.724,-0.043608372376209,0.115078147289097
3.726,-0.0425620424539882,0.115370196483929
3.728,-0.0415134632149552,0.115647550193523
3.73,-0.0404605596331279,0.115921015587862
3.732,-0.0394032232975063,0.116182600281642
3.734,-0.0383423379216625,0.116434557083359
3.736,-0.0372783740564823,0.116676569604101
3.738,-0.0362135875459857,0.116908750010701
3.74,-0.0351417386982767,0.117130415630737
3.742,-0.0340692241175766,0.11733962667649
3.744,-0.032991416133405,0.1175408093938
3.746,-0.0319150667438577,0.117730587746493
3.748,-0.0308320614309832,0.11790842477297
3.75,-0.029750958813317,0.118074560566933
3.752,-0.0286614902964924,0.118227686215367
3.754,-0.0275734407919863,0.118371945710928
3.756,-0.0264826485510003,0.118500742348986
3.758,-0.0253910519244503,0.118620874788018
3.76,-0.0242969410730652,0.118724510992021
3.762,-0.0232021676066571,0.118820379610626
3.764,-0.0221077383247565,0.118902434279689
3.766,-0.0210064748508317,0.118971600526277
3.768,-0.0199096356822991,0.119026815145851
3.77,-0.0188098636164739,0.119072222114364
3.772,-0.0177105810540708,0.119103031361022
3.774,-0.0166133751568071,0.119119191048994
3.776,-0.0155155001361638,0.119128298050683
3.778,-0.0144133560045697,0.119118579449911
3.78,-0.0133155652776254,0.119099597495047
3.782,-0.0122192292168656,0.119062901078885
3.784,-0.0111243538112603,0.119015599525062
3.786,-0.0100314685371462,0.11895529912931
3.788,-0.00893756378291815,0.118880299929673
3.79,-0.00784833222534551,0.118792541224565
3.792,-0.00676085799554067,0.118692389042754
3.794,-0.00567779100447233,0.118577417202247
3.796,-0.00459652793046829,0.118450288036083
3.798,-0.00351791390534688,0.118308837172006
3.8,-0.00244521173714677,0.118156042858077
3.802,-0.00137233085239079,0.117990635843191
3.804,-0.000308252955664033,0.117809460035454
3.806,0.000754810534375508,0.117615280147585
3.808,0.00180964019295254,0.117408844023074
3.81,0.00286031079574977,0.117189511031413
3.812,0.00390563872688295,0.116957928581143
3.814,0.00494732077769017,0.116715021435862
3.816,0.00597873869667176,0.116458415076147
3.818,0.00700534489008423,0.116191603727396
3.82,0.00802714323747112,0.115911097046497
3.822,0.00903809909555717,0.115618068296144
3.824,0.0100465098561409,0.115313349105441
3.826,0.0110454000645711,0.114999747853783
3.828,0.0120362298082591,0.114673883641235
3.83,0.0130193325281134,0.114336750686672
3.832,0.0139931929359344,0.11399039601153
3.834,0.014959995469221,0.113630544476242
3.836,0.0159188865849614,0.113263716922943
3.838,0.0168683869429229,0.112886677153297
3.84,0.0178095391016799,0.112500468773522
3.842,0.0187417418425272,0.112103822057149
3.844,0.0196636453771687,0.111699005203706
3.846,0.020577320329273,0.111286978321042
3.848,0.021481201559873,0.110859752101313
3.85,0.0223754484495855,0.110431789278236
3.852,0.023260101459659,0.109994601072537
3.854,0.0241365113708963,0.109546890558933
3.856,0.0250009243083614,0.109093930384151
3.858,0.0258563227869444,0.108636210446137
3.86,0.026700342628777,0.108168250882243
3.862,0.0275370812494504,0.10769840671906
3.864,0.0283642879300784,0.107218225691521
3.866,0.0291809289992071,0.106737711875813
3.868,0.0299858509365446,0.106245492603743
3.87,0.0307845459525121,0.105753240241922
3.872,0.0315682063956653,0.105252563858682
3.874,0.0323479974172071,0.104749742507094
3.876,0.0331182332636539,0.104243741785467
3.878,0.0338762166786417,0.10373310075993
3.88,0.0346237308429352,0.103217544772795
3.882,0.0353640581810098,0.102698998415116
3.884,0.0360941865418259,0.102176095449739
3.886,0.0368149381480743,0.101653592917021
3.888,0.0375309594406174,0.101122595205479
3.89,0.0382319892790879,0.100596395552916
3.892,0.0389295381543088,0.100064770590054
3.894,0.0396191168315607,0.099531758390631
3.896,0.0402951542285541,0.09899449952188
3.898,0.0409671467083694,0.0984559321569227
3.9,0.0416311824544106,0.097917285664221
3.902,0.0422861792984812,0.0973769406040452
