"Freq [GHz]","re(S(Antenna1_1_p1,Antenna1_1_p1)) []","im(S(Antenna1_1_p1,Antenna1_1_p1)) []"
3,0.0854242063403872,-0.090682236016587
3.002,0.0847341844699999,-0.0915936047521278
3.004,0.0840452768369265,-0.092503450339213
3.006,0.0833457187995175,-0.0934224989028325
3.008,0.0826382331350517,-0.0943442165770777
3.01,0.0819286917832745,-0.0952660549898913
3.012,0.0812098160680965,-0.0961949597582454
3.014,0.0804806608724069,-0.09712894585284
3.016,0.0797463683882895,-0.098064448147087
3.018,0.0789983102963424,-0.099002784024679
3.02,0.0782418830285435,-0.099950873597505
3.022,0.0774523322292598,-0.100893878652112
3.024,0.0766934015853809,-0.101851360333568
3.026,0.0758987278899175,-0.102811463332792
3.028,0.0750892512972956,-0.103773006304353
3.03,0.0742673016547071,-0.104733050579811
3.032,0.0734275205086373,-0.105705397918385
3.034,0.0725652131950112,-0.10667048947026
3.036,0.0716944436171525,-0.107641438399279
3.038,0.0708028235174368,-0.108619361149175
3.04,0.0698886307607017,-0.109594822861268
3.042,0.068962815019807,-0.110563223306676
3.044,0.06800830394824,-0.111538745898039
3.046,0.0670354318458701,-0.112507881555736
3.048,0.066041035915786,-0.113477667586616
3.05,0.0650205052332692,-0.114426184419254
3.052,0.063987938354858,-0.115401510082705
3.054,0.06292630240455,-0.116353827765839
3.056,0.0618413637141328,-0.117302176462182
3.058,0.0607350665996504,-0.118241494321212
3.06,0.0596035494759762,-0.11916648744334
3.062,0.0584516305075629,-0.120092861524513
3.064,0.0572760792952852,-0.121001982322063
3.066,0.0560727458544716,-0.121900820268694
3.068,0.0548458311950752,-0.122786956596456
3.07,0.0536049514369626,-0.1236583065321
3.072,0.0523302375764154,-0.124512113913582
3.074,0.0510357384787382,-0.125348216181931
3.076,0.0497229184930651,-0.126172655938002
3.078,0.0483851744673133,-0.126973740074142
3.08,0.0470318702812896,-0.127760856315073
3.082,0.0456545950110308,-0.12851785445549
3.084,0.044255453037247,-0.129265396631999
3.086,0.0428408788049667,-0.129979289092127
3.088,0.0414023728974046,-0.130680092712151
3.09,0.0399475474199499,-0.131353373141669
3.092,0.038480619381368,-0.132001091080825
3.094,0.0369938493232107,-0.132621814995958
3.096,0.0354933049544003,-0.133217486741094
3.098,0.0339818295069856,-0.133784521696897
3.1,0.0324514779431464,-0.134327626613316
3.102,0.0309137740423232,-0.13483832746608
3.104,0.0293623772938112,-0.135325554090592
3.106,0.027805560947891,-0.135785905139469
3.108,0.0262376177929803,-0.136207548149813
3.11,0.0246625267440295,-0.136610500308959
3.112,0.0230798284183531,-0.136979394673783
3.114,0.0214935237300584,-0.137320924952964
3.116,0.0199029981146158,-0.137624768026707
3.118,0.0183078234795576,-0.13790969667927
3.12,0.0167103192913886,-0.138162215626144
3.122,0.0151163282729488,-0.138384830764856
3.124,0.0135179191452793,-0.138578535697503
3.126,0.0119241404748858,-0.138740238497957
3.128,0.0103314361009227,-0.138875955375773
3.13,0.0087451621417671,-0.138988737923722
3.132,0.00715829440632008,-0.139067318998102
3.134,0.005578902724284,-0.139120340814731
3.136,0.00400595421052099,-0.139151350880617
3.138,0.00243763202917483,-0.139150148255332
3.14,0.0008811706040765,-0.139127965131134
3.142,-0.00067055087965577,-0.13907810531181
3.144,-0.00221190376469778,-0.139005391584205
3.146,-0.00374159684345118,-0.138914532551471
3.148,-0.00525940792763422,-0.138794883815098
3.15,-0.00676887511871211,-0.138656504703622
3.152,-0.00826998671806302,-0.138495833575115
3.154,-0.00975862951582304,-0.13831879339337
3.156,-0.0112307108055792,-0.138117707051885
3.158,-0.0126948716307657,-0.137901081203039
3.16,-0.0141404475458068,-0.137666227288672
3.162,-0.015581507831004,-0.137416712159263
3.164,-0.0170006313242148,-0.13714858711726
3.166,-0.0184121335751991,-0.1368729938398
3.168,-0.0198045608247878,-0.136571373591874
3.17,-0.0211916532527379,-0.136263942929921
3.172,-0.022564386038365,-0.135940270916284
3.174,-0.023912981442902,-0.135607203137955
3.176,-0.0252629742595904,-0.135264785354913
3.178,-0.0265875056555646,-0.134907365187705
3.18,-0.0279056699113719,-0.134542856110031
3.182,-0.0292174094733407,-0.134169489035046
3.184,-0.0305062551746394,-0.133785170642555
3.186,-0.0317878376010488,-0.133397222163373
3.188,-0.0330634616855233,-0.13299791435475
3.19,-0.0343193982154359,-0.132595129371557
3.192,-0.0355724444876117,-0.132186174473312
3.194,-0.0368190082720576,-0.131767763932998
3.196,-0.0380469588064375,-0.131348370284725
3.198,-0.0392567608562961,-0.130931796872217
3.2,-0.0404717414899762,-0.130489962190068
3.202,-0.0416859211643491,-0.130049270042932
3.204,-0.042872289874184,-0.129610542662445
3.206,-0.0440626721381099,-0.129166424112038
3.208,-0.0452528534661999,-0.128716804111586
3.21,-0.0464245360718784,-0.12826599200389
3.212,-0.0475943904310741,-0.127808414370009
3.214,-0.0487613891314763,-0.127347441087442
3.216,-0.0499249192837783,-0.126882655275167
3.218,-0.0510844223182802,-0.126416402492524
3.22,-0.0522397815015896,-0.125943467310005
3.222,-0.0533893714437105,-0.125464749738815
3.224,-0.0545401281793017,-0.124985457363418
3.226,-0.0556854854789182,-0.12449848763085
3.228,-0.0568284546385161,-0.124003504832954
3.23,-0.0579734425142065,-0.123510850523507
3.232,-0.0591172520404913,-0.123010234648175
3.234,-0.0602567059064804,-0.122503661837403
3.236,-0.061397955370483,-0.121989301196159
3.238,-0.0625350998968185,-0.121471549795569
3.24,-0.0636765282163694,-0.120936603144458
3.242,-0.0648158034579061,-0.120409433080793
3.244,-0.0659532326091684,-0.119858560722981
3.246,-0.067095600567613,-0.119319497283128
3.248,-0.0682387635979803,-0.118763236715137
3.25,-0.0693746922764992,-0.118195664273781
3.252,-0.0705116723029234,-0.117618185348633
3.254,-0.0716512841662231,-0.117027719186938
3.256,-0.0727915102910309,-0.116440270433383
3.258,-0.0739338634138637,-0.115836217637005
3.26,-0.075078882593013,-0.115220940658294
3.262,-0.0762303473032309,-0.114593537470853
3.264,-0.0773613191091025,-0.113956694250367
3.266,-0.0785022736551733,-0.113305927459283
3.268,-0.0796394565278425,-0.112636939395469
3.27,-0.0807803757649247,-0.111969519728646
3.272,-0.08193162157603,-0.111274404069856
3.274,-0.0830576425065963,-0.110577868933565
3.276,-0.0841893711727412,-0.109863786420829
3.278,-0.0853290183437944,-0.109134855106919
3.28,-0.0864600083805796,-0.108389439212984
3.282,-0.0875914251894739,-0.107633747502079
3.284,-0.0887163280641423,-0.106860719090445
3.286,-0.0898391625540687,-0.106071253439387
3.288,-0.0909605568088109,-0.105269489302274
3.29,-0.0920739854479762,-0.104448244931023
3.292,-0.0931876309259712,-0.103616658659529
3.294,-0.0942926455774589,-0.102763440886683
3.296,-0.095396911029602,-0.101900574055055
3.298,-0.0964903602660166,-0.101017727403541
3.3,-0.0975774628044852,-0.100122716568977
3.302,-0.098662423248401,-0.0992054892027829
3.304,-0.099728818322971,-0.0982737963794987
3.306,-0.100800022079186,-0.0973295678063946
3.308,-0.101863298486481,-0.0963671666870116
3.31,-0.102913982112583,-0.095388613725678
3.312,-0.103956258378838,-0.0943936230381005
3.314,-0.104989415521802,-0.0933834864798205
3.316,-0.106011075876256,-0.0923564279497823
3.318,-0.107021970077456,-0.0913141308148324
3.32,-0.108020633582018,-0.0902591063752342
3.322,-0.109013164902844,-0.0891829559111902
3.324,-0.109993720626081,-0.0880909824503709
3.326,-0.110957262115914,-0.0869888504754426
3.328,-0.111901697933134,-0.0858745965475907
3.33,-0.112853948344814,-0.0847310039031052
3.332,-0.113777219597103,-0.0835850786778989
3.334,-0.114689759207051,-0.0824238447901291
3.336,-0.115588819311104,-0.0812437638017856
3.338,-0.116472792763447,-0.0800531190802834
3.34,-0.117336777355602,-0.0788539465771442
3.342,-0.118194892281126,-0.0776275526896365
3.344,-0.119031938495499,-0.0763977091884825
3.346,-0.119853626634659,-0.0751512632415703
3.348,-0.120662132736631,-0.0738993449817129
3.35,-0.121446663809474,-0.072625437347455
3.352,-0.122218614769631,-0.0713453740878617
3.354,-0.122971393019032,-0.0700523915884176
3.356,-0.123706294808974,-0.0687494028888962
3.358,-0.124423726253741,-0.0674340288323293
3.36,-0.125123227478048,-0.0661122960989887
3.362,-0.125803138531194,-0.0647795594924171
3.364,-0.126464104179034,-0.0634380455095198
3.366,-0.127106336050697,-0.0620844373969916
3.368,-0.127728390851099,-0.0607223486165128
3.37,-0.128330937336204,-0.0593551737245807
3.372,-0.128914075317098,-0.0579796987244162
3.374,-0.129477709207788,-0.0565972489524304
3.376,-0.130020003095842,-0.0552082137945154
3.378,-0.130542673615772,-0.0538129379766588
3.38,-0.13104361603118,-0.0524116796546695
3.382,-0.131525905505734,-0.0510067283190976
3.384,-0.131984551793887,-0.0495965154162444
3.386,-0.132424498371414,-0.048181020725435
3.388,-0.132846336832689,-0.0467648981762745
3.39,-0.133239947083798,-0.0453438314948831
3.392,-0.133620920789399,-0.0439223026559763
3.394,-0.133978603221402,-0.0424983719101839
3.396,-0.134313890927427,-0.0410734612508036
3.398,-0.134635942333031,-0.0396505540661993
3.4,-0.134916630248788,-0.0382191480731265
3.402,-0.135194348583073,-0.0367926635766012
3.404,-0.135447774825757,-0.0353683541580835
3.406,-0.135678450796559,-0.0339444969589242
3.408,-0.135889817568336,-0.03252261669605
3.41,-0.136080250128074,-0.0311023455656889
3.412,-0.136253549777713,-0.0296876820752155
3.414,-0.136404892279788,-0.0282744233360991
3.416,-0.13653683838385,-0.0268671583509436
3.418,-0.136650901655692,-0.0254629475906081
3.42,-0.136746332861408,-0.0240643107684765
3.422,-0.136822367084225,-0.0226712861467805
3.424,-0.136882483665367,-0.021285074512063
3.426,-0.136919712064108,-0.0199038394807225
3.428,-0.136943953554879,-0.0185305636296846
3.43,-0.136950457231931,-0.0171625695521962
3.432,-0.136938807110248,-0.0158037327676924
3.434,-0.136913142063369,-0.0144535343498036
3.436,-0.136869655496073,-0.0131105271164868
3.438,-0.136814561376647,-0.0117759359892454
3.44,-0.136741693220815,-0.0104521867745102
3.442,-0.136656762336395,-0.0091384560310755
3.444,-0.136556307616802,-0.0078294541537369
3.446,-0.136445196826334,-0.00653252750698661
3.448,-0.136318876986694,-0.0052462805388652
3.45,-0.136182130679751,-0.00396924235494775
3.452,-0.136033517993694,-0.00270505541942222
3.454,-0.135874897503179,-0.00144018269334643
3.456,-0.135706973014762,-0.00020062041498083
3.458,-0.135524889073086,0.00103766230067506
3.46,-0.135339832262375,0.00226696076430837
3.462,-0.13514325487274,0.00348191010347019
3.464,-0.134938385332315,0.00468717014371692
3.466,-0.13472588700224,0.00588693489254004
3.468,-0.134507021931509,0.00707201624520474
3.47,-0.13427836892762,0.0082463031344226
3.472,-0.134050664545117,0.00941797361687292
3.474,-0.13381352007693,0.0105776419396166
3.476,-0.133571949649626,0.0117267460763116
3.478,-0.133321088014446,0.0128694367225468
3.48,-0.133075885514248,0.0140023509481556
3.482,-0.132822357468277,0.0151300936488513
3.484,-0.132564702296791,0.0162499321257373
3.486,-0.132305187568562,0.0173625451047406
3.488,-0.132040870210227,0.0184683016702411
3.49,-0.131776733560493,0.0195682041948374
3.492,-0.131509000386232,0.0206624517005897
3.494,-0.131241157374395,0.0217522698599793
3.496,-0.130970338473865,0.022837885993263
3.498,-0.130695072969101,0.0239215090786831
3.5,-0.130422395225695,0.0249988246561319
3.502,-0.130147816361824,0.0260758537699651
3.504,-0.129869122507503,0.0271478259623738
3.506,-0.129591618201821,0.0282204103225141
3.508,-0.129311510368933,0.0292875402594342
3.51,-0.129027177197048,0.0303615212644722
3.512,-0.128749171759218,0.0314313255446368
3.514,-0.128458442084046,0.0325017590109
3.516,-0.128167314322291,0.0335731232862318
3.518,-0.127877524131324,0.0346469079295331
3.52,-0.127583446897516,0.0357221204003474
3.522,-0.127285319030488,0.0367987609284514
3.524,-0.12698007348627,0.0378806072772149
3.526,-0.126677627505351,0.0389632816998455
3.528,-0.126364474463635,0.0400495789474167
3.53,-0.126049252515279,0.0411400061737345
3.532,-0.125727301232471,0.0422369921510371
3.534,-0.125400853859663,0.0433355201124984
3.536,-0.125066785215735,0.0444394611805535
3.538,-0.124724430818794,0.045548823680104
3.54,-0.12437537410412,0.0466595139034222
3.542,-0.124013283381921,0.0477812686990213
3.544,-0.12364713230141,0.0489063256582127
3.546,-0.12327131596365,0.0500340682625896
3.548,-0.122878600100299,0.0511692185992344
3.55,-0.122478200255367,0.0523114125338438
3.552,-0.122064397369199,0.0534555430745516
3.554,-0.121640542776678,0.0546027513446826
3.556,-0.121202373210874,0.0557582000962487
3.558,-0.120749853679016,0.0569170747672887
3.56,-0.120280747012794,0.0580790763630024
3.562,-0.119796966702887,0.0592453192957256
3.564,-0.119298867460437,0.0604153335707101
3.566,-0.118781822828482,0.0615855312496854
3.568,-0.11824689718127,0.0627591522562709
3.57,-0.117694463032569,0.0639348862812099
3.572,-0.117125833595901,0.0651113299853531
3.574,-0.116535219131728,0.0662900605875179
3.576,-0.115930249048573,0.0674637057611303
3.578,-0.115300394756098,0.068638487875669
3.58,-0.114652261638155,0.0698121728859463
3.582,-0.113981658329755,0.0709831655221691
3.584,-0.113293578536027,0.072147833127338
3.586,-0.112582250330117,0.0733107205457247
3.588,-0.111849965315043,0.0744680632276896
3.59,-0.111096417781549,0.0756192854880944
3.592,-0.110321043491871,0.0767624717386459
3.594,-0.109524166099522,0.0778989843725786
3.596,-0.108705612914021,0.0790255908972876
3.598,-0.107866828076576,0.0801431007629024
3.6,-0.107004887782798,0.0812494336281428
3.602,-0.106118663629316,0.082345487053311
3.604,-0.105218307585454,0.0834292707313087
3.606,-0.104296324800802,0.0844948378780682
3.608,-0.103349652773851,0.0855516829670054
3.61,-0.102385788274548,0.0865899944599266
3.612,-0.101402453795881,0.0876119618992414
3.614,-0.10040088681543,0.0886193917029679
3.616,-0.0993782699309138,0.0896087777475591
3.618,-0.0983376503057556,0.090575019544539
3.62,-0.0972853532115832,0.0915234306039458
3.622,-0.0962088060218115,0.0924519602745597
3.624,-0.0951251086021408,0.0933643157339854
3.626,-0.0940241764371196,0.0942463708135147
3.628,-0.0929063873326849,0.0951130204048085
3.63,-0.0917778650257032,0.0959542355963693
3.632,-0.0906373648575401,0.0967723187958583
3.634,-0.0894849502257142,0.0975680778612071
3.636,-0.0883218183815088,0.0983394103575139
3.638,-0.087149334906826,0.0990880507758041
3.64,-0.0859727666733427,0.0998080514465675
3.642,-0.0847849230395457,0.100504432630104
3.644,-0.0835885908136463,0.101173449013696
3.646,-0.0823958966430528,0.101824461520607
3.648,-0.0811919850727769,0.102446030016864
3.65,-0.0799904158218152,0.10304170627886
3.652,-0.0787805743879752,0.103616438565808
3.654,-0.0775741431806551,0.104160162098948
3.656,-0.0763667981331943,0.104678702073621
3.658,-0.0751595850589053,0.105176358480148
3.66,-0.0739577933574804,0.105653531313507
3.662,-0.0727546929969445,0.106104619359842
3.664,-0.0715583108186043,0.106531514687797
3.666,-0.0703675958000947,0.106935295564651
3.668,-0.0691850251714271,0.107310436479292
3.67,-0.0680056257931147,0.107679032027007
3.672,-0.0668348957253519,0.108017373116068
3.674,-0.0656719702911932,0.108336020535169
3.676,-0.0645181937878499,0.108636440417703
3.678,-0.0633747419790144,0.108918515289789
3.68,-0.0622411121862285,0.109179387721218
3.682,-0.0611183857203316,0.109426193431147
3.684,-0.0600097568389687,0.109653329519562
3.686,-0.0589083157421483,0.109871922505665
3.688,-0.057818928968882,0.110071657154855
3.69,-0.0567483720658625,0.110256349684486
3.692,-0.0556825439202549,0.110435510534091
3.694,-0.054634567736515,0.110600705597741
3.696,-0.0535993284903013,0.110749391720346
3.698,-0.0525832343564635,0.110891958997544
3.7,-0.051569633305104,0.11102858995843
3.702,-0.0505696896517052,0.111157162049723
3.704,-0.0495910407923483,0.111275646262724
3.706,-0.0486210770010189,0.111391312286918
3.708,-0.0476638124419834,0.111501146348536
3.71,-0.0467223103402514,0.1116078080665
3.712,-0.0457861310521272,0.111710511664676
3.714,-0.044861097442879,0.111812283692918
3.716,-0.0439497876554147,0.111911802572981
3.718,-0.0430569890881621,0.112010855616269
3.72,-0.0421623228589527,0.112111459382434
3.722,-0.0412810809380388,0.112210411324807
3.724,-0.040410685298209,0.112312212400697
3.726,-0.0395480252649882,0.112414851433529
3.728,-0.0386924817579552,0.112517813869823
3.73,-0.0378491200411279,0.112628284218062
3.732,-0.0370057234975063,0.112743371113342
3.734,-0.0361635059233625,0.112856344084959
3.736,-0.0353303949811823,0.112975591348801
3.738,-0.0345010570008857,0.113100610513591
3.74,-0.0336742331228767,0.113229663641037
3.742,-0.0328483151747666,0.11336362396179
3.744,-0.032024617384105,0.1135001285413
3.746,-0.0312036555994577,0.113650787051493
3.748,-0.0303778468095832,0.11379357459837
3.75,-0.029552014781517,0.113950296408433
3.752,-0.0287191488724924,0.114104197708967
3.754,-0.0278860069799863,0.114265243267228
3.756,-0.0270497391960003,0.114431146399486
3.758,-0.0262109801824503,0.114603299150918
3.76,-0.0253640313730652,0.114779105244421
3.762,-0.0245101111546571,0.114948635885226
3.764,-0.0236498287514565,0.115127953181489
3.766,-0.0227771301396317,0.115306636238677
3.768,-0.0219008299678991,0.115484162544851
3.77,-0.0210111116202739,0.115666847433864
3.772,-0.0201147928419708,0.115848350670422
3.774,-0.0192107978214071,0.116030598444994
3.776,-0.0182947737753638,0.116210300743683
3.778,-0.0173627434302697,0.116380624013911
3.78,-0.0164244586456254,0.116553250894047
3.782,-0.0154720827275656,0.116723458631885
3.784,-0.0145089643275603,0.116884261606162
3.786,-0.0135329250182462,0.11704361899261
3.788,-0.0125439050734181,0.117197543047073
3.79,-0.0115449710621455,0.117336245087065
3.792,-0.0105338148730407,0.117469589732197
3.794,-0.00951177513766233,0.117594971175347
3.796,-0.00847206040708129,0.117709770448083
3.798,-0.00742686046856688,0.117810982426706
3.8,-0.00636799042144677,0.117900698741377
3.802,-0.00529819021809079,0.117976911147191
3.804,-0.00421592130806403,0.118039811168454
3.806,-0.00312541932342449,0.118088219704585
3.808,-0.00202173927014746,0.118119548982074
3.81,-0.00091194557475023,0.118137230855413
3.812,0.00020625455698295,0.118136119388143
3.814,0.00133086864709017,0.118114035603862
3.816,0.00246641771937176,0.118075476730147
3.818,0.00360835794318423,0.118017988362396
3.82,0.00475521309707112,0.117942641576597
3.822,0.00590762538225717,0.117842661070044
3.824,0.00706430231394094,0.117725662395941
3.826,0.0082241174944711,0.117584693677983
3.828,0.0093884212413591,0.117422868968835
3.83,0.0105517723491134,0.117238705646572
3.832,0.0117146300999344,0.11703265804303
3.834,0.012882098870221,0.116803058359142
3.836,0.0140428491593614,0.116553325423143
3.838,0.0152077141495229,0.116277259555797
3.84,0.0163620410253799,0.115979155110522
3.842,0.0175154741928472,0.115657271677449
3.844,0.0186620050983687,0.115313191932506
3.846,0.019804577724473,0.114948554982342
3.848,0.020938220492273,0.114558706025313
3.85,0.0220626344657855,0.114144829997336
3.852,0.023177410702659,0.11371190966077
3.854,0.0242817726588963,0.113259886871213
3.856,0.0253762328203614,0.112782373616251
3.858,0.0264580121319444,0.112279709583237
3.86,0.027525937705777,0.111764225944943
3.862,0.0285818563674504,0.11122406522526
3.864,0.0296191847550784,0.110669966545821
3.866,0.0306466288152071,0.110091741095613
3.868,0.0316553760145446,0.109500973238543
3.87,0.0326443134695121,0.108888119391022
3.872,0.0336156798526653,0.108262294153482
3.874,0.0345781596419071,0.107624206787894
3.876,0.0355084942535539,0.106965293367267
3.878,0.0364244510552417,0.10629477499713
3.88,0.0373308332996352,0.105616375489995
3.882,0.0381976810960098,0.104916290705816
3.884,0.0390618565786259,0.104214413350439
3.886,0.0398901579969743,0.103494675189021
3.888,0.0407018765068174,0.102768501734879
3.89,0.0414977321350879,0.102038969215016
3.892,0.0422665491746088,0.101299274616454
3.894,0.0430172673106607,0.100551617962431
3.896,0.0437444949803541,0.09980112551218
3.898,0.0444513405788694,0.0990486255669227
3.9,0.0451377858855106,0.098290414984321
3.902,0.0458003485355812,0.0975320276850452
