"Freq [GHz]","re(S(Antenna1_1_p1,Antenna1_1_p1)) []","im(S(Antenna1_1_p1,Antenna1_1_p1)) []"
3,0.0794520830113872,-0.100477945447587
3.002,0.0781475632039999,-0.101049021065128
3.004,0.0768552265569265,-0.101579562758213
3.006,0.0755843537515175,-0.102077918310833
3.008,0.0743313890310517,-0.102540492491078
3.01,0.0730985456432745,-0.102976896921891
3.012,0.0718883982059965,-0.103377362974245
3.014,0.0707031217437069,-0.10375338949984
3.016,0.0695368833081895,-0.104104969252087
3.018,0.0683999362492424,-0.104440412439679
3.02,0.0672994947863935,-0.104743733593505
3.022,0.0662045294206598,-0.105031535286912
3.024,0.0651478303863809,-0.105295889273528
3.026,0.0641199811031175,-0.105546932507092
3.028,0.0631302844875956,-0.105792986372353
3.03,0.0621558797757071,-0.106026760667811
3.032,0.0612194864146373,-0.106250907147385
3.034,0.0603106296150112,-0.10648526263726
3.036,0.0594295373431525,-0.106696041294279
3.038,0.0585748340734368,-0.106904093905175
3.04,0.0577452994407017,-0.107126714475268
3.042,0.056950464166807,-0.107349461100676
3.044,0.05618367033124,-0.107583676939039
3.046,0.0554400564918701,-0.107815724661736
3.048,0.054715844095786,-0.108062476176616
3.05,0.0540180150602692,-0.108317933552254
3.052,0.053341929808858,-0.108596787938705
3.054,0.05268889592155,-0.108892125343839
3.056,0.0520530587501328,-0.109223302063182
3.058,0.0514342451646504,-0.109529535282212
3.06,0.0508281372689762,-0.10989032300134
3.062,0.0502408063135629,-0.110251595232313
3.064,0.0496569409902852,-0.110651089057263
3.066,0.0490917344834716,-0.111077886939194
3.068,0.0485258002980752,-0.111528459623156
3.07,0.0479689874999626,-0.1119924844989
3.072,0.0474091863214154,-0.112493157283082
3.074,0.0468582329512382,-0.113022749631131
3.076,0.0462963939886251,-0.113579517298602
3.078,0.0457306766821133,-0.114162177352142
3.08,0.0451527191312896,-0.114781945140073
3.082,0.0445743041870308,-0.11541828639249
3.084,0.043984118558247,-0.116100724490999
3.086,0.0433747611769667,-0.116790877778127
3.088,0.0427570784534046,-0.117518226786151
3.09,0.0421159181499499,-0.118273294675669
3.092,0.041449660398368,-0.119047897393825
3.094,0.0407595798442107,-0.119851858671958
3.096,0.0400438576074003,-0.120678689575094
3.098,0.0392892267139856,-0.121518494201897
3.1,0.0385247579851464,-0.122393955173316
3.102,0.0377240124133232,-0.12328124610708
3.104,0.0368786446868112,-0.124189010280592
3.106,0.036007999011891,-0.125112463815469
3.108,0.0350766432290803,-0.126032099537813
3.11,0.0341398586799295,-0.126983744184959
3.112,0.0331432622882531,-0.127933515453783
3.114,0.0321062090155584,-0.128897412908964
3.116,0.0310229347317158,-0.129854625631707
3.118,0.0299131075948076,-0.13082835193327
3.12,0.0287453088801886,-0.131789463842144
3.122,0.0275332762698488,-0.132751572841856
3.124,0.0262762778118793,-0.133709469989503
3.126,0.0249666498902858,-0.134663829509457
3.128,0.0236152242549227,-0.135597890817273
3.13,0.0222195601617671,-0.136519471840622
3.132,0.0207742330133201,-0.137432129268102
3.134,0.019283586739284,-0.138319734266731
3.136,0.017753083657521,-0.139182216209617
3.138,0.0161661541351748,-0.140030590807332
3.14,0.0145470416100765,-0.140848017850134
3.142,0.0128765722923442,-0.14162453998981
3.144,0.0111595374463022,-0.142382121457205
3.146,0.00940940475254882,-0.143093993515471
3.148,0.00762332035036578,-0.143779337240098
3.15,0.00579016418028789,-0.144411084028622
3.152,0.00393653962893698,-0.145027463161115
3.154,0.00203828753217696,-0.14557657441337
3.156,9.96152954207997E-05,-0.146090433772885
3.158,-0.00186535479976567,-0.146556926596539
3.16,-0.0038547877248068,-0.146967576280072
3.162,-0.005869549062004,-0.147328716632263
3.164,-0.0079127757402148,-0.14764344226596
3.166,-0.0099711272491991,-0.14790304294377
3.168,-0.0120531593947878,-0.148096699932574
3.17,-0.0141475550457379,-0.148242433335821
3.172,-0.016249010091365,-0.148332956819584
3.174,-0.018376024323902,-0.148360177628355
3.176,-0.0205042529655904,-0.148339285490713
3.178,-0.0226301164715646,-0.148243614894705
3.18,-0.0247668745543719,-0.148094525763031
3.182,-0.0269186621353407,-0.147888713858046
3.184,-0.0290473247786394,-0.147610583686555
3.186,-0.0311498640660488,-0.147288006784373
3.188,-0.0332674650305233,-0.14690835639075
3.19,-0.0353721923284359,-0.146463764352557
3.192,-0.0374633475466117,-0.145959433498312
3.194,-0.0395281839730576,-0.145410600151998
3.196,-0.0415814498894375,-0.144791650826725
3.198,-0.0435998081702961,-0.144124471868217
3.2,-0.0456056896649762,-0.143393337928068
3.202,-0.0475786058863491,-0.142626028036932
3.204,-0.049521040489184,-0.141794712464445
3.206,-0.0514260612443099,-0.140929193597038
3.208,-0.0533087827084999,-0.140005940564586
3.21,-0.0551489476640784,-0.13904426426789
3.212,-0.0569483608272741,-0.138033275968009
3.214,-0.0587072421662763,-0.136990915959442
3.216,-0.0604234839830783,-0.135902473206167
3.218,-0.0620986018119802,-0.134779194679524
3.22,-0.0637309489358896,-0.133629596936005
3.222,-0.0653174204513105,-0.132433606595815
3.224,-0.0668535927061017,-0.131233948132418
3.226,-0.0683374060869182,-0.12998010783785
3.228,-0.0697843576164161,-0.128724103574954
3.23,-0.0711725070002065,-0.127439480552507
3.232,-0.0725134899134913,-0.126140412523375
3.234,-0.0738014023374804,-0.124813497620733
3.236,-0.075047532685483,-0.123495327842459
3.238,-0.0762371977788185,-0.122141521056569
3.24,-0.0773809869723694,-0.120805462783458
3.242,-0.0784732671699061,-0.119449616155793
3.244,-0.0795228005391684,-0.118100815089981
3.246,-0.080517001096613,-0.116750976132128
3.248,-0.0814613806119803,-0.115410394100137
3.25,-0.0823638310524992,-0.114064642055781
3.252,-0.0832293815569234,-0.112738363753633
3.254,-0.0840302529192231,-0.111402833574938
3.256,-0.0847984045230309,-0.110096926625383
3.258,-0.0855255289878637,-0.108789694111805
3.26,-0.086213926025013,-0.107514179490794
3.262,-0.0868718363882309,-0.106232768790253
3.264,-0.0874791368331025,-0.105001107351867
3.266,-0.0880576604481733,-0.103779902393483
3.268,-0.0886122571188425,-0.102576096763469
3.27,-0.0891237442089247,-0.101401914207985
3.272,-0.08961909195303,-0.100248594567156
3.274,-0.0900793539355963,-0.099126677470265
3.276,-0.0905169082297412,-0.098031653861829
3.278,-0.0909296572617944,-0.096966941290619
3.28,-0.0913334874775796,-0.095946808778684
3.282,-0.0917149946204739,-0.094933489040279
3.284,-0.0920839485461423,-0.093965338490745
3.286,-0.0924427576472687,-0.093016881275387
3.288,-0.0927742265606109,-0.092096395938274
3.29,-0.0931246879430762,-0.091221137771023
3.292,-0.0934527760419712,-0.090369308381529
3.294,-0.0937802602744589,-0.089548234472683
3.296,-0.094100663360602,-0.088751602571055
3.298,-0.0944466231790166,-0.087993012235541
3.3,-0.0947695088894852,-0.087251649485977
3.302,-0.095109237028401,-0.0865457450817829
3.304,-0.095461128641971,-0.0858701427204987
3.306,-0.095814110244186,-0.0852154551463946
3.308,-0.096185590902481,-0.0845783695170116
3.31,-0.096566599672183,-0.083972992353678
3.312,-0.096964286590738,-0.0833843142051005
3.314,-0.097388632986602,-0.0828186869138205
3.316,-0.097829259989956,-0.0822720538097823
3.318,-0.098267178512156,-0.0817374943338324
3.32,-0.098759065073918,-0.0812145156832342
3.322,-0.099258113441244,-0.0807141645861902
3.324,-0.099768545734161,-0.0802205914953709
3.326,-0.100324198945144,-0.0797338749904426
3.328,-0.100894940105334,-0.0792521807355907
3.33,-0.101486689944514,-0.0787821347341052
3.332,-0.102110212509803,-0.0783057271408989
3.334,-0.102758100699151,-0.0778228075381291
3.336,-0.103424870564604,-0.0773359418767856
3.338,-0.104139933085247,-0.0768789721342834
3.34,-0.104862897050002,-0.0763856854359442
3.342,-0.105620453890126,-0.0759032432836365
3.344,-0.106401995341499,-0.0753935330236825
3.346,-0.107205450546659,-0.0748868441905703
3.348,-0.108036599006631,-0.0743505638437129
3.35,-0.108900345022474,-0.073802891940455
3.352,-0.109780211696631,-0.0732380957818617
3.354,-0.110682502864032,-0.0726498271374176
3.356,-0.111612691032974,-0.0720364919268962
3.358,-0.112558145805741,-0.0714053454103293
3.36,-0.113527224039048,-0.0707444655859887
3.362,-0.114504332540194,-0.0700611362504171
3.364,-0.115506259024034,-0.0693484451545198
3.366,-0.116516592752697,-0.0685922100296916
3.368,-0.117557511188099,-0.0678341088750128
3.37,-0.118589460273204,-0.0669988714534807
3.372,-0.119641377224098,-0.0661602071643162
3.374,-0.120695606680788,-0.0652811639933304
3.376,-0.121766962138842,-0.0643559286303154
3.378,-0.122834358650772,-0.0634009073095588
3.38,-0.12390341767518,-0.0624006331893595
3.382,-0.124972633463734,-0.0613794497076676
3.384,-0.126038373458887,-0.0603023586317444
3.386,-0.127108751578414,-0.059189253123935
3.388,-0.128165807296689,-0.0580361826084745
3.39,-0.129212951694798,-0.0568454435213831
3.392,-0.130247857514399,-0.0556097823404763
3.394,-0.131278347211202,-0.0543440177453839
3.396,-0.132291807969327,-0.0530325205577036
3.398,-0.133291439933831,-0.0516721920011993
3.4,-0.134262689475788,-0.0502932271421265
3.402,-0.135217573776073,-0.0488738105596012
3.404,-0.136143008556757,-0.0474062633560835
3.406,-0.137053882131559,-0.0459245307979242
3.408,-0.137940831180336,-0.04438369165605
3.41,-0.138780838552074,-0.0428082784906889
3.412,-0.139610964636713,-0.0412086719462155
3.414,-0.140402568394788,-0.0395748120610991
3.416,-0.14115635553985,-0.0379134179629436
3.418,-0.141864929344692,-0.0362112457956081
3.42,-0.142555794545408,-0.0344973872914765
3.422,-0.143199273910225,-0.0327483994857805
3.424,-0.143807490457167,-0.030976596448063
3.426,-0.144371795914508,-0.0291788920977225
3.428,-0.144877684092079,-0.0273624066846846
3.43,-0.145369446301331,-0.0255357874931962
3.432,-0.145800112598248,-0.0236840557236924
3.434,-0.146185981561069,-0.0218060853168036
3.436,-0.146527512713843,-0.0199390155774868
3.438,-0.146830513061747,-0.0180383948142454
3.44,-0.147086253565315,-0.0161454599975102
3.442,-0.147288831395395,-0.0142331809840755
3.444,-0.147442589951002,-0.0123265656647369
3.446,-0.147559481936934,-0.0104159675169866
3.448,-0.147626486070294,-0.0085045684412652
3.45,-0.147645069431751,-0.00658188978874775
3.452,-0.147617891126694,-0.00466902755592222
3.454,-0.147542204556179,-0.00276282690694643
3.456,-0.147409900497762,-0.00086461572298083
3.458,-0.147232995016086,0.00101791054367506
3.46,-0.147033290402375,0.00290184113930837
3.462,-0.14675928369874,0.00475587659147019
3.464,-0.146465568055315,0.00660496981371692
3.466,-0.14612814042224,0.00844816387154004
3.468,-0.145739728342509,0.0102492893722047
3.47,-0.14532317491362,0.0120626462764226
3.472,-0.144854751300117,0.0138282133618729
3.474,-0.14435268686093,0.0155746300796166
3.476,-0.143810235042626,0.0173082786533116
3.478,-0.143243029512446,0.0190140984943468
3.48,-0.142630317034248,0.0206783311807556
3.482,-0.141968016387277,0.0223254959770513
3.484,-0.141309500942791,0.0239371582318373
3.486,-0.140612882498562,0.0255191808163406
3.488,-0.139881244737227,0.0270749004537411
3.49,-0.139127791098493,0.0285905326013574
3.492,-0.138337571756232,0.0300802420586897
3.494,-0.137537931104395,0.0315323219722793
3.496,-0.136714736671865,0.032951579334463
3.498,-0.135867691341101,0.0343327028508831
3.5,-0.135012718042695,0.0356787972279319
3.502,-0.134136020364824,0.0370009268279651
3.504,-0.133252903467603,0.0382792062433738
3.506,-0.132344221139321,0.0395170962925141
3.508,-0.131426278281133,0.0407283176114342
3.51,-0.130511765123148,0.0418938547044722
3.512,-0.129573343337218,0.0430212705496368
3.514,-0.128646005563046,0.0441231051559
3.516,-0.127717782437291,0.0451971109832318
3.518,-0.126781802863324,0.0462328892005331
3.52,-0.125849498840516,0.0472394273253474
3.522,-0.124913225662488,0.0481967471024514
3.524,-0.12398401864227,0.0491342175592149
3.526,-0.123050768323351,0.0500311897088455
3.528,-0.122128510948635,0.0509090969284167
3.53,-0.121225026991279,0.0517389987337345
3.532,-0.120311999725471,0.0525538544560371
3.534,-0.119417159536063,0.0533507008294984
3.536,-0.118533573183135,0.0541008927935535
3.538,-0.117655220027494,0.054838922266104
3.54,-0.11680055039702,0.0555492105634222
3.542,-0.115954274650001,0.0562444822500213
3.544,-0.11513547631431,0.0569013800412127
3.546,-0.11431351569155,0.0575524889665896
3.548,-0.113503808004099,0.0581840204632344
3.55,-0.112719385531067,0.0587882037778438
3.552,-0.111969457661199,0.0593890883565516
3.554,-0.111221172583678,0.0599747271596826
3.556,-0.110496015729874,0.0605262273802487
3.558,-0.109787363947016,0.0610957249272887
3.56,-0.109089736118794,0.0616396562760024
3.562,-0.108428153345887,0.0621794272248256
3.564,-0.107763813397437,0.0627097863765101
3.566,-0.107137208150482,0.0632329904848854
3.568,-0.10653476851327,0.0637609580562709
3.57,-0.105924517129569,0.0642765195572099
3.572,-0.105347168684901,0.0647879637153531
3.574,-0.104786435534728,0.0653058448695179
3.576,-0.104239653357573,0.0658326596731303
3.578,-0.103706285476098,0.066353290800669
3.58,-0.103199184343155,0.0668796897969463
3.582,-0.102698740626755,0.0674133025901691
3.584,-0.102223303753027,0.067953343181838
3.586,-0.101758150554117,0.0684923493314247
3.588,-0.101298875550043,0.0690585944718896
3.59,-0.100864211412549,0.0696172231919944
3.592,-0.100437087177871,0.0702032505404159
3.594,-0.100013416338522,0.0707780175566786
3.596,-0.099602803293021,0.0713858270158876
3.598,-0.099194714258576,0.0719937992343024
3.6,-0.098806881928798,0.0726375464646428
3.602,-0.098413515059316,0.073266189991311
3.604,-0.098017262496454,0.0739169987683087
3.606,-0.097634499863802,0.0745906327060682
3.608,-0.097253519311851,0.0752742694760054
3.61,-0.0968689528955481,0.0759765428939266
3.612,-0.0964853939928813,0.0766971219712414
3.614,-0.09610540638843,0.0774477913359679
3.616,-0.0957093475229138,0.0781912796015591
3.618,-0.0953190219245556,0.078964678905539
3.62,-0.0949240785064032,0.0797543214819458
3.622,-0.0945163566758115,0.0805575752655597
3.624,-0.0940920567486408,0.0813816493769854
3.626,-0.0936627415971196,0.0822171173215147
3.628,-0.0932304109776849,0.0830733430448085
3.63,-0.0927797976477032,0.0839435633053693
3.632,-0.0923209875225401,0.0848107159358583
3.634,-0.0918344351176142,0.0857308028982071
3.636,-0.0913314787730088,0.0866410139835139
3.638,-0.090811145600026,0.0875837058978041
3.64,-0.0903029226898427,0.0885186977785675
3.642,-0.0897389160841157,0.0894604431051043
3.644,-0.0891625398436463,0.0904186306116958
3.646,-0.0885694850700528,0.0913893015916065
3.648,-0.0879585146804769,0.0923663955328645
3.65,-0.0872941042603152,0.0933691912928599
3.652,-0.0866309759539752,0.094353119193808
3.654,-0.0859536663446551,0.095347897330948
3.656,-0.0852355098541943,0.096357142998621
3.658,-0.0844961656479053,0.097364064348148
3.66,-0.0837277263954804,0.098360741811507
3.662,-0.0829288420969445,0.099381679042842
3.664,-0.0821032474086043,0.100389026030797
3.666,-0.0812502844710947,0.101397290969651
3.668,-0.0803628143364271,0.102399832472292
3.67,-0.0794618138831147,0.103391796594007
3.672,-0.0784980763563519,0.104381749367068
3.674,-0.0775507292231932,0.105366196082769
3.676,-0.0765504101838499,0.106344940925903
3.678,-0.0755314415630144,0.107306989076149
3.68,-0.0744725173022285,0.108264263744718
3.682,-0.0733912547783316,0.109205685498647
3.684,-0.0722684573709687,0.110136928259662
3.686,-0.0711456226071483,0.111040094961165
3.688,-0.069974342483882,0.111926217764555
3.69,-0.0687574485888625,0.112796363017286
3.692,-0.0675509492092549,0.113655291216221
3.694,-0.066317782988515,0.114495960763341
3.696,-0.0650284107563013,0.115315645897246
3.698,-0.0637521752984635,0.116098110279544
3.7,-0.062428103939104,0.11685793746103
3.702,-0.0611089419407052,0.117596954223723
3.704,-0.0597353419333483,0.118305433111724
3.706,-0.0583400048680189,0.118992093319918
3.708,-0.0569477764639834,0.119641655048536
3.71,-0.0555360627222514,0.1202588101375
3.712,-0.0540999394331272,0.120855177472676
3.714,-0.052657469735879,0.121421199445918
3.716,-0.0511902060074147,0.121944656165981
3.718,-0.0497115431961621,0.122442658383269
3.72,-0.0482239391199527,0.122912627405434
3.722,-0.0467188747200388,0.123345100794807
3.724,-0.045202915898209,0.123732085941697
3.726,-0.0436889792689882,0.124088284335529
3.728,-0.0421704337199552,0.124422204156823
3.73,-0.0406389643811279,0.124708380500062
3.732,-0.0391033720868063,0.124958272818342
3.734,-0.0375700762818625,0.125182274528959
3.736,-0.0360327457716223,0.125367984751801
3.738,-0.0345008512784857,0.125512154068591
3.74,-0.0329744634092767,0.125629617085037
3.742,-0.0314369288165766,0.12570304908579
3.744,-0.029912802036405,0.1257353472443
3.746,-0.0283942355538577,0.125727052437493
3.748,-0.0268884405829832,0.12570903740337
3.75,-0.025398968191317,0.125649143298433
3.752,-0.0239087098954924,0.125552772698967
3.754,-0.0224311498319863,0.125419245700228
3.756,-0.0209634786970003,0.125259983431486
3.758,-0.0195186178684503,0.125060759242918
3.76,-0.0180835629820652,0.124836799735421
3.762,-0.0166739959106571,0.124589052789226
3.764,-0.0152741404664565,0.124299486491489
3.766,-0.0138998686156317,0.123994349885677
3.768,-0.0125293010678991,0.123652328559851
3.77,-0.0112082465112739,0.123284760473864
3.772,-0.0098927064599708,0.122907299034422
3.774,-0.0085987590474071,0.122486437714994
3.776,-0.0073378303363638,0.122045398621683
3.778,-0.0060922952112697,0.121601892856911
3.78,-0.0048740919966254,0.121123417981047
3.782,-0.0036901166235656,0.120616479330885
3.784,-0.0025231867165603,0.120111657375062
3.786,-0.00139018143224622,0.11958835929331
3.788,-0.00027970546941815,0.119034390455673
3.79,0.000805013555854491,0.118486949574065
3.792,0.00185720825495933,0.117914260577854
3.794,0.00288051114433767,0.117322890996727
3.796,0.00387695912991871,0.116744651021283
3.798,0.00484949311343312,0.116150845576606
3.8,0.00579154047055323,0.115545365503077
3.802,0.00669663977090921,0.114934995723191
3.804,0.00759048498093597,0.114330506757454
3.806,0.00843605251857551,0.113705794564585
3.808,0.00927045546585254,0.113094351440074
3.81,0.0100757344842498,0.112481602822413
3.812,0.0108551356259829,0.111862705393143
3.814,0.0116089583440902,0.111260166173862
3.816,0.0123371335543718,0.110647368115147
3.818,0.0130390534361842,0.110054926346396
3.82,0.0137113909290711,0.109458162243597
3.822,0.0143611913442572,0.108862932764044
3.824,0.0149830643759409,0.108284024125941
3.826,0.0155931669374711,0.107714168570983
3.828,0.0161969047143591,0.107154357820835
3.83,0.0167642145181134,0.106606207999572
3.832,0.0172991194599344,0.10606916618303
3.834,0.017844851571221,0.105547391678142
3.836,0.0183654798859614,0.105033190872143
3.838,0.0188567899299229,0.104538226363797
3.84,0.0193460117616799,0.104057672014522
3.842,0.0198145516215272,0.103593449456449
3.844,0.0202714943561687,0.103155899597506
3.846,0.020719427967273,0.102729896463342
3.848,0.021170722420273,0.102299960137313
3.85,0.0215976863904855,0.101899169907336
3.852,0.022027406982232,0.10151910422577
3.854,0.0224486186397963,0.101149766123213
3.856,0.0228620755194614,0.100802850949251
3.858,0.0232970784659444,0.100488286623237
3.86,0.023680931394777,0.100170021270943
3.862,0.0240914478914504,0.09987380094226
3.864,0.0244957783200784,0.099594482931821
3.866,0.0249089977062071,0.099343355721613
3.868,0.0253171365665446,0.099087862996543
3.87,0.0257500024415121,0.098861732981022
3.872,0.0261620645936653,0.098641672884482
3.874,0.0265876981809071,0.098441881472894
3.876,0.0270379305115539,0.098261174015267
3.878,0.0274738341372417,0.09808430171613
3.88,0.0279268445046352,0.097922934436995
3.882,0.0283972839810098,0.097782888300816
3.884,0.0288683934226259,0.097640911743439
3.886,0.0293589984589743,0.097514358172021
3.888,0.0298920442568174,0.097393296550479
3.89,0.0303982840900879,0.097276133496916
3.892,0.0309102401036088,0.097179465685054
3.894,0.0314702221196607,0.097091468642631
3.896,0.0320132266013541,0.09699721151288
3.898,0.0325970969518694,0.0969092858059227
3.9,0.0331911635585106,0.096824291894221
3.902,0.0338004262415812,0.0967388699300452
3.904,0.0344377597101329,0.0966411248579138
