"Freq [GHz]","re(S(Antenna1_1_p1,Antenna1_1_p1)) []","im(S(Antenna1_1_p1,Antenna1_1_p1)) []"
3,0.125806963722387,-0.099105363157587
3.002,0.124560884713,-0.102370967679128
3.004,0.123172677681926,-0.105613526638213
3.006,0.121654520385517,-0.108807471911833
3.008,0.119991314170052,-0.111958821166078
3.01,0.118192271323275,-0.115047001872891
3.012,0.116259991505997,-0.118082671937245
3.014,0.114198229783707,-0.12103940576384
3.016,0.112005572038189,-0.123920234493087
3.018,0.109703782079242,-0.126718218416679
3.02,0.107273797166394,-0.129419086802505
3.022,0.10473998218066,-0.132030958869112
3.024,0.102088581626381,-0.134533618589568
3.026,0.0993401719131175,-0.136919754124792
3.028,0.0964963149775956,-0.139212444726353
3.03,0.0935685541757071,-0.141367407808811
3.032,0.0905559856846373,-0.143399761271385
3.034,0.0874723524550112,-0.14533189073926
3.036,0.0843163613731525,-0.147117153284279
3.038,0.0810981634834368,-0.148750672315175
3.04,0.0778294491607017,-0.150262582647268
3.042,0.074521331035807,-0.151653283171676
3.044,0.07115819447324,-0.152875012274039
3.046,0.0677709429318701,-0.153959734932736
3.048,0.064354038250786,-0.154903557726616
3.05,0.0609327548692692,-0.155703065552254
3.052,0.057491481335858,-0.156366298790705
3.054,0.05406090217955,-0.156872756883839
3.056,0.0506201987951328,-0.157248993980182
3.058,0.0472195062136504,-0.157460031760212
3.06,0.0438196938989762,-0.15755023588134
3.062,0.0404623432875629,-0.157483258612313
3.064,0.0371297267392852,-0.157296152977263
3.066,0.0338749852164716,-0.156963028019194
3.068,0.0306347552580752,-0.156516422683156
3.07,0.0274704480839626,-0.1559075900889
3.072,0.0243696729594154,-0.155197324803082
3.074,0.0213627149597382,-0.154361660321131
3.076,0.0183971247150651,-0.153420203248602
3.078,0.0155531823753133,-0.152344916932142
3.08,0.0127552432952896,-0.151207318260073
3.082,0.0100759973900308,-0.14993479423249
3.084,0.007516968450247,-0.148584061780999
3.086,0.0050240267479667,-0.147145379528127
3.088,0.0026632739124046,-0.145627764206151
3.09,0.000441836185949902,-0.144038962715669
3.092,-0.001694232649632,-0.142376219113825
3.094,-0.0037390619967893,-0.140657067411958
3.096,-0.0056392830055997,-0.138886435725094
3.098,-0.0074167787970144,-0.137059456687897
3.1,-0.0090517343858536,-0.135229078003316
3.102,-0.0105394273436768,-0.13334599898908
3.104,-0.0119483996411888,-0.131450586904292
3.106,-0.013212520271109,-0.129535736770469
3.108,-0.0143774985499197,-0.127585898824813
3.11,-0.0153592269300705,-0.125683250189959
3.112,-0.0162639404317469,-0.123745696126783
3.114,-0.0170282918944416,-0.121847080821964
3.116,-0.0176634597582842,-0.119957338422707
3.118,-0.0181583550151924,-0.11813665573327
3.12,-0.0185703703098114,-0.116309825750144
3.122,-0.0188560411101512,-0.114532203844856
3.124,-0.0190135229481207,-0.112830928856503
3.126,-0.0190817859497142,-0.111168667113957
3.128,-0.0190424589850773,-0.109564302487773
3.13,-0.0188979232782329,-0.108036367191722
3.132,-0.0186533582466799,-0.106618180984102
3.134,-0.018333618310716,-0.105233938208731
3.136,-0.017925195962479,-0.103932274645617
3.138,-0.0174449176948252,-0.102735207501332
3.14,-0.0168851118299235,-0.101626612809134
3.142,-0.0162536111976558,-0.10063163155881
3.144,-0.0155690162936978,-0.099747298616205
3.146,-0.0148337563174512,-0.098918223022471
3.148,-0.0140537989496342,-0.098266390043098
3.15,-0.0132279314657121,-0.097662296566622
3.152,-0.012370276561063,-0.097214513263115
3.154,-0.011495210208823,-0.09686378042237
3.156,-0.0106134270045792,-0.096656158331885
3.158,-0.00970072992605567,-0.096522970804539
3.16,-0.0087889980838068,-0.096516861736072
3.162,-0.007905065561004,-0.096664579692263
3.164,-0.0070052637842148,-0.09688842750596
3.166,-0.0061259695621991,-0.09722903113377
3.168,-0.0052884854477878,-0.097699150412574
3.17,-0.0044830496207379,-0.098279565225821
3.172,-0.003702393388365,-0.098973377939584
3.174,-0.002985845300902,-0.099763179728355
3.176,-0.0023497190505904,-0.100686297220713
3.178,-0.0017165632355646,-0.101670823614705
3.18,-0.0011870411033719,-0.102769678053031
3.182,-0.000762920004340702,-0.103978328538046
3.184,-0.000380815114639402,-0.105252938746555
3.186,-5.13886090488004E-05,-0.106600504064373
3.188,0.0001425833864767,-0.10805834559075
3.19,0.000247813092564095,-0.109577629272557
3.192,0.000228099094388305,-0.111165637188312
3.194,0.000152998199942404,-0.112816995561998
3.196,-4.52410114374982E-05,-0.114520492386725
3.198,-0.0003718270702961,-0.116266426488217
3.2,-0.0008168600279762,-0.118058454318068
3.202,-0.0013889946373491,-0.119892353846932
3.204,-0.002041752113184,-0.121751193027445
3.206,-0.0028447878423099,-0.123633111404038
3.208,-0.0037840419334999,-0.125517927016586
3.21,-0.0048674931670784,-0.12741712209789
3.212,-0.0060427270142741,-0.129309758661009
3.214,-0.0073524065762763,-0.131206856643442
3.216,-0.0087905174030783,-0.133081181908167
3.218,-0.0103568846619802,-0.134923719010524
3.22,-0.0120516877958896,-0.136746050907005
3.222,-0.0138629594913105,-0.138520228636815
3.224,-0.0158127094761017,-0.140268145381418
3.226,-0.0178666126469182,-0.14195257391985
3.228,-0.0200657758464161,-0.143566666293954
3.23,-0.0223534453602065,-0.145128136282507
3.232,-0.0247598828734913,-0.146605729962175
3.234,-0.0272828614874804,-0.147999692558403
3.236,-0.029903015165483,-0.149325542346159
3.238,-0.0326280994488185,-0.150543978480569
3.24,-0.0354521964723694,-0.151679382677458
3.242,-0.0383632186399061,-0.152690029393793
3.244,-0.0413557770791684,-0.153609784247981
3.246,-0.044430847176613,-0.154400040740128
3.248,-0.0475839052219803,-0.155092507452137
3.25,-0.0507972182424992,-0.155640740657781
3.252,-0.0540825870069234,-0.156072824652633
3.254,-0.0574041755692231,-0.156367006893938
3.256,-0.0607769286320309,-0.156525142030383
3.258,-0.0641971651198637,-0.156549726221805
3.26,-0.067643828022013,-0.156436504068794
3.262,-0.0711168109942309,-0.156166621082253
3.264,-0.0746083495601025,-0.155775293572867
3.266,-0.0781067481051733,-0.155233776890483
3.268,-0.0816167059777425,-0.154543247973469
3.27,-0.0851068621699247,-0.153703206777985
3.272,-0.08859579384103,-0.152728459307156
3.274,-0.0920634586665963,-0.151595895460265
3.276,-0.0955015286227412,-0.150326475041829
3.278,-0.0988892270577944,-0.148905779120619
3.28,-0.10227197514858,-0.147366048978684
3.282,-0.105558739463474,-0.145668500980279
3.284,-0.108825480961142,-0.143850209890745
3.286,-0.112005121149069,-0.141884053755387
3.288,-0.115090544242811,-0.139790144088274
3.29,-0.118148615824976,-0.137576657451023
3.292,-0.121085924743971,-0.135244189081529
3.294,-0.123950506592459,-0.132788476692683
3.296,-0.126695008675602,-0.130221330451055
3.298,-0.129377624899017,-0.127548123305541
3.3,-0.131901720326485,-0.124765916265977
3.302,-0.134341047347401,-0.121897985251783
3.304,-0.136657243003971,-0.118939547880499
3.306,-0.138844252618186,-0.115884595806395
3.308,-0.140901282658481,-0.112769661339012
3.31,-0.142835108826183,-0.109584824231678
3.312,-0.144642319421738,-0.1063215356601
3.314,-0.146316664870602,-0.10300778194082
3.316,-0.147830589548956,-0.0996488593037823
3.318,-0.149199967819156,-0.0962541388408324
3.32,-0.150461859884918,-0.0927995282092342
3.322,-0.151543461376244,-0.0893440201311902
3.324,-0.152480014524161,-0.0858778305228709
3.326,-0.153288887785144,-0.0823731692934426
3.328,-0.153946895005334,-0.0788800108335907
3.33,-0.154442152534514,-0.0753943543781052
3.332,-0.154804518979803,-0.0719125609918989
3.334,-0.155018861989151,-0.0684453061831291
3.336,-0.155081003184604,-0.0650211858497856
3.338,-0.155028150905247,-0.0616221825082834
3.34,-0.154824603720002,-0.0582535074131442
3.342,-0.154487823870126,-0.0549576166496365
3.344,-0.154012994401499,-0.0517059182524825
3.346,-0.153417925406659,-0.0485248395245703
3.348,-0.152698976996631,-0.0453911303557129
3.35,-0.151853438962474,-0.042354485311455
3.352,-0.150888025856631,-0.0393978238818617
3.354,-0.149814306604032,-0.0365220879304176
3.356,-0.148644854832974,-0.0337451046528962
3.358,-0.147370470155741,-0.0310528119663293
3.36,-0.146004378289048,-0.0284781813179887
3.362,-0.144549420364194,-0.0260078572244171
3.364,-0.143016342157034,-0.0236537352305198
3.366,-0.141400412867697,-0.0214063380486916
3.368,-0.139742781020099,-0.0192966105280128
3.37,-0.137985570021204,-0.0172685391534807
3.372,-0.136201212755098,-0.0154006515053162
3.374,-0.134367124195788,-0.0136444719783304
3.376,-0.132490922500842,-0.0120156885713154
3.378,-0.130580754370772,-0.0105172772765588
3.38,-0.1286365183304,-0.0091560758893595
3.382,-0.126707357379734,-0.0079321173076676
3.384,-0.124750206096887,-0.0068347648617444
3.386,-0.122782882302414,-0.005863033353935
3.388,-0.120843072758689,-0.0050255695184745
3.39,-0.118906843308798,-0.0043176911613831
3.392,-0.116979076209399,-0.0037344968904763
3.394,-0.115100332325402,-0.0032879361753839
3.396,-0.113249795027427,-0.0029578310077036
3.398,-0.111446653396031,-0.0027438729711993
3.4,-0.109683952407788,-0.0026630722121265
3.402,-0.107979353781073,-0.0026830185996012
3.404,-0.106340451181757,-0.0028195659660835
3.406,-0.104773049298559,-0.0030636661379242
3.408,-0.103287423398336,-0.00339581420605
3.41,-0.101874498991074,-0.0038414467866889
3.412,-0.100555928024713,-0.0043686748522155
3.414,-0.099321945389788,-0.0049851145920991
3.416,-0.09817949776385,-0.0056819571039436
3.418,-0.097130619205692,-0.0064556386446081
3.42,-0.096203736879408,-0.0072942023814765
3.422,-0.095371643318225,-0.0081997430237805
3.424,-0.094657683468167,-0.009155209734063
3.426,-0.094065338281508,-0.0101461140897225
3.428,-0.093567124010079,-0.0111944738776846
3.43,-0.093213629358331,-0.0122659474681962
3.432,-0.092967638046248,-0.0133777778336924
3.434,-0.092841587022069,-0.0144811464148036
3.436,-0.092841422314843,-0.0156337391621068
3.438,-0.092976440746747,-0.0167451220052454
3.44,-0.093221966255315,-0.0178954083075102
3.442,-0.093595507715395,-0.0190182561090755
3.444,-0.094088448151002,-0.0201128781467369
3.446,-0.094712766986934,-0.0211837590419866
3.448,-0.095464947430294,-0.0222291328608652
3.45,-0.096307694581751,-0.0232220484839477
3.452,-0.097287569556694,-0.0241843321954222
3.454,-0.098367808206179,-0.0250700027383464
3.456,-0.099560376187762,-0.0258967083979808
3.458,-0.100869993316086,-0.0266977411753249
3.46,-0.102257174013375,-0.0273594445106916
3.462,-0.10375949798974,-0.0279712365175298
3.464,-0.105347778693315,-0.0284952423262831
3.466,-0.10703456284024,-0.02891408067846
3.468,-0.108805368424509,-0.0292631550907953
3.47,-0.11062525838762,-0.0294781487695774
3.472,-0.112537002958117,-0.0296083654651271
3.474,-0.11451117547093,-0.0296171934963834
3.476,-0.116548811126626,-0.0295105942856884
3.478,-0.118628877920446,-0.0292674912936532
3.48,-0.120758052331248,-0.0289152389142444
3.482,-0.122919763610277,-0.0284245076499487
3.484,-0.125115332049791,-0.0278288019771627
3.486,-0.127333543522562,-0.0270966804916594
3.488,-0.129573905960227,-0.0262061032242589
3.49,-0.131809394125493,-0.0251950453766426
3.492,-0.134045732561732,-0.0240506339373103
3.494,-0.136282671676395,-0.0227700112777207
3.496,-0.138501384661865,-0.021360805748537
3.498,-0.140695637291101,-0.0198089824961169
3.5,-0.142878132049695,-0.0181062761090681
3.502,-0.144985232406824,-0.0163129330950349
3.504,-0.147075502834503,-0.0143422918176262
3.506,-0.149089117875821,-0.0122708339834859
3.508,-0.151043034638933,-0.0100534211295658
3.51,-0.152960670363048,-0.0077209777105278
3.512,-0.154777074115218,-0.0052917305763632
3.514,-0.156513435047046,-0.0027274604401
3.516,-0.158175302921291,-3.0716825768197E-05
3.518,-0.159722841128324,0.00276552104353309
3.52,-0.161179020492516,0.0056802776773474
3.522,-0.162511078478488,0.0086479507194514
3.524,-0.16375497221727,0.0117311462692149
3.526,-0.164877133562351,0.0148981570828455
3.528,-0.165862009865635,0.0181598678644167
3.53,-0.166734021743279,0.0214526708467345
3.532,-0.167473388721471,0.0248728327120371
3.534,-0.168040478202063,0.0283191870124984
3.536,-0.168505365958135,0.0318153303305535
3.538,-0.168822452379494,0.035380946879104
3.54,-0.16899087705802,0.0389553097714222
3.542,-0.168996602563001,0.0425835952720213
3.544,-0.16886867608631,0.0462259277832127
3.546,-0.16859930363755,0.0498800116535896
3.548,-0.168165100669099,0.0535681328302344
3.55,-0.167560746081067,0.0572168250358438
3.552,-0.166838937076199,0.0608736653695516
3.554,-0.165933603904678,0.0645086200326826
3.556,-0.164900587738874,0.0681265953712487
3.558,-0.163712767648016,0.0717139844162887
3.56,-0.162345414822794,0.0752749757790024
3.562,-0.160873924159887,0.0787448840807256
3.564,-0.159227370266437,0.0821955900017101
3.566,-0.157459443964482,0.0855555139956854
3.568,-0.15554349304527,0.0888597604072709
3.57,-0.153495237153569,0.0920964098292099
3.572,-0.151311824431901,0.0952193354793531
3.574,-0.148994654734728,0.0982749499675179
3.576,-0.146568465942573,0.10121644968213
3.578,-0.144022063926098,0.104048408026669
3.58,-0.141363584950155,0.106781607735946
3.582,-0.138596644667755,0.109397405062169
3.584,-0.135740336784027,0.111889136720838
3.586,-0.132790914490117,0.114244247696425
3.588,-0.129740757727043,0.11649086403789
3.59,-0.126631539989549,0.118584255083994
3.592,-0.123454503379871,0.120552720758416
3.594,-0.120205967791522,0.122350542294679
3.596,-0.116895677593021,0.124032494840888
3.598,-0.113550029399576,0.125542643894302
3.6,-0.110149319249798,0.126917038565643
3.602,-0.106729631174316,0.128136113313311
3.604,-0.103276509669454,0.129199798137309
3.606,-0.099801755487802,0.130104750893068
3.608,-0.096343042372851,0.130831538495005
3.61,-0.0928549703795481,0.131427327929927
3.612,-0.0893954507078813,0.131882692300241
3.614,-0.08594489075643,0.132160261756968
3.616,-0.0825220035339138,0.132288844242559
3.618,-0.0791291984487556,0.132263561913539
3.62,-0.0757742724225832,0.132100448132946
3.622,-0.0724769593288115,0.13177425504256
3.624,-0.0692293351761408,0.131333407954985
3.626,-0.0660611108621196,0.130740477315515
3.628,-0.0629534889766849,0.130008211423809
3.63,-0.0599240289557032,0.129148114865369
3.632,-0.0569697225145401,0.128132289012858
3.634,-0.0541069154316142,0.127048058677207
3.636,-0.0513653562120088,0.125808901968514
3.638,-0.048700851851026,0.124479174106804
3.64,-0.0461750681478427,0.123037839892568
3.642,-0.0437436779491157,0.121494467867104
3.644,-0.0414265929926463,0.119877293562696
3.646,-0.0392333858610528,0.118160393492606
3.648,-0.0371974526254769,0.116371780780864
3.65,-0.0352463699393152,0.11451440481186
3.652,-0.0334644954919752,0.112571445099808
3.654,-0.0318156988926551,0.110605643238948
3.656,-0.0303126463841943,0.108599249781621
3.658,-0.0289282504069053,0.106525444241148
3.66,-0.0277300808224804,0.104432008649507
3.662,-0.0266302820179445,0.102326355173642
3.664,-0.0257100625396043,0.100218965545797
3.666,-0.0249278512670947,0.098073967048651
3.668,-0.0242724518474271,0.095958144373292
3.67,-0.0237928350991147,0.093845033457007
3.672,-0.0234229525463519,0.091743371953068
3.674,-0.0232258225431932,0.089680159351169
3.676,-0.0231366681278499,0.087644385151703
3.678,-0.0232208110670144,0.085660204160789
3.68,-0.0234088812102285,0.083742346497218
3.682,-0.0237312078043316,0.081875924779147
3.684,-0.0241852253579687,0.080062193290662
3.686,-0.0247900974061483,0.078347536348165
3.688,-0.025476214164882,0.076682676876555
3.69,-0.0262733217258625,0.075099118425286
3.692,-0.0272021768812549,0.073632452594221
3.694,-0.028204818448515,0.072271983019341
3.696,-0.0293205467353013,0.070999237688246
3.698,-0.0305193253144635,0.069847867475544
3.7,-0.031797798219104,0.06881716794803
3.702,-0.0331783222177052,0.067914362279723
3.704,-0.0346051851693483,0.067112814476724
3.706,-0.0361086528090189,0.066467230871918
3.708,-0.0376264846329834,0.065910866859536
3.71,-0.0392117966842514,0.0655081588395
3.712,-0.0408369405661272,0.065245592961676
3.714,-0.042494855958879,0.065145539749918
3.716,-0.0441621387134147,0.065144898675981
3.718,-0.0458479091439621,0.065309464323269
3.72,-0.0475271585649527,0.065610695310434
3.722,-0.0492215421080388,0.066058081514807
3.724,-0.050876713455209,0.066642994205697
3.726,-0.0525291009559882,0.067383555897529
3.728,-0.0541515048319552,0.068237900642823
3.73,-0.0557144923731279,0.069272152015062
3.732,-0.0572495821735063,0.070415605111342
3.734,-0.0587141115266625,0.071679834894959
3.736,-0.0601372202124823,0.073105670097801
3.738,-0.0614790864939857,0.074633460972591
3.74,-0.0627532122242767,0.076292005645037
3.742,-0.0639323602335766,0.07806641884579
3.744,-0.065019762996405,0.0799622246723
3.746,-0.0660243593688577,0.081942195470493
3.748,-0.0669085146059832,0.08405326439637
3.75,-0.067684033709317,0.086235666857433
3.752,-0.0683493293744924,0.088544581273967
3.754,-0.0688899959189863,0.090916640450228
3.756,-0.0692938717000003,0.093355063125486
3.758,-0.0695841523324503,0.095875244254918
3.76,-0.0697168581070652,0.098452321390421
3.762,-0.0697055117086571,0.101096996851226
3.764,-0.0695599001944565,0.103781213224489
3.766,-0.0692736276726317,0.106502038135677
3.768,-0.0688211118608991,0.109255847461851
3.77,-0.0682339837552739,0.112024300304864
3.772,-0.0675225232089708,0.114818262046422
3.774,-0.0666080474614071,0.117607074772894
3.776,-0.0655599691873638,0.120399690206683
3.778,-0.0643373647362697,0.123185095774911
3.78,-0.0629840474316254,0.125924234415047
3.782,-0.0614746214805656,0.128639500543885
3.784,-0.0598090105835603,0.131341911267062
3.786,-0.0579921629942462,0.13397506646731
3.788,-0.0560306000494181,0.136557637055673
3.79,-0.0539257838291455,0.139078240707565
3.792,-0.0516978155970407,0.141538722841754
3.794,-0.0492895334706623,0.143881461079247
3.796,-0.0467656784920813,0.146179395622083
3.798,-0.0441129377685669,0.148360822192006
3.8,-0.0413454474334468,0.150441329449077
3.802,-0.0384592759670908,0.152409331780191
3.804,-0.035440164148064,0.154280191927454
3.806,-0.0323343298744245,0.155993742946585
3.808,-0.0291075496151475,0.157616486425074
3.81,-0.0257973007817502,0.159093740840413
3.812,-0.022407705050017,0.160405679308143
3.814,-0.0189178089319098,0.161622791709862
3.816,-0.0153616323976282,0.162677716771147
3.818,-0.0117532665778158,0.163524720639396
3.82,-0.00808634613592888,0.164248259821597
3.822,-0.00437792449074283,0.164819244372044
3.824,-0.00063516218505906,0.165232662809941
3.826,0.0031556912334711,0.165457647966983
3.828,0.0069662098543591,0.165563513544835
3.83,0.0107831178711134,0.165450979392572
3.832,0.0145879145439344,0.16520399232403
3.834,0.018424727671221,0.164763988275142
3.836,0.0222278329169614,0.164161377491143
3.838,0.0259897199069229,0.163404773283797
3.84,0.0297593954146799,0.162459862458522
3.842,0.0334428553165272,0.161357431621449
3.844,0.0370871142131687,0.160094615686506
3.846,0.040677890967273,0.158680682822342
3.848,0.044193909998873,0.157103115519313
3.85,0.0476390146005855,0.155360403316336
3.852,0.051006687952659,0.15347703641777
3.854,0.0542817322478963,0.151456532480213
3.856,0.0574578127963614,0.149286096439251
3.858,0.0605186693499444,0.146991072546237
3.86,0.063484602096777,0.144582771314943
3.862,0.0663122657454504,0.14204478776826
3.864,0.0690119098390784,0.139392857664821
3.866,0.0716019640492071,0.136606583035613
3.868,0.0740225370395446,0.133741763780543
3.87,0.0762934164295121,0.130767549405022
3.872,0.0784587323176653,0.127724859186482
3.874,0.0804362360849071,0.124580879440894
3.876,0.0822862952375539,0.121394261909267
3.878,0.0839350747802417,0.11812507438413
3.88,0.0854150499886352,0.114811136085995
3.882,0.0867666831320098,0.111465223910816
3.884,0.0879543267756259,0.108086571840439
3.886,0.0889721191329743,0.104662457690021
3.888,0.0898025177278174,0.101239471937479
3.89,0.0904674273960879,0.097811044484916
3.892,0.0909860830776088,0.094366604193054
3.894,0.0912899646076607,0.090949806194631
3.896,0.0914490753983541,0.08755233795488
3.898,0.0914450124498694,0.0841616001099227
3.9,0.0912720179415106,0.080838631033221
3.902,0.0909381477725812,0.0775587891180452
3.904,0.0904321954531329,0.0743286073829138
