"Freq [GHz]","re(S(Antenna1_1_p1,Antenna1_1_p1)) []","im(S(Antenna1_1_p1,Antenna1_1_p1)) []"
3,0.0880030913959872,-0.093325366877977
3.002,0.0871352341523999,-0.0944110630585378
3.004,0.0862510587291265,-0.09548651166298
3.006,0.0853498863017175,-0.0965525650778725
3.008,0.0844338963354517,-0.0976091610281277
3.01,0.0835024690711745,-0.0986547760437913
3.012,0.0825529765980965,-0.0996879319834454
3.014,0.0815907693204069,-0.10071162187844
3.016,0.0806112634916895,-0.101721892983087
3.018,0.0796182986437424,-0.102720653885979
3.02,0.0786091229787935,-0.103705164585205
3.022,0.0775864775849598,-0.104677735259312
3.024,0.0765490626423809,-0.105635901575168
3.026,0.0754990941499175,-0.106580844519092
3.028,0.0744358791476956,-0.107512964218653
3.03,0.0733599875962071,-0.108429945538411
3.032,0.0722714074877373,-0.109331997363085
3.034,0.0711705747605112,-0.11021907328416
3.036,0.0700585644608525,-0.111092798975479
3.038,0.0689350515317468,-0.111949143924175
3.04,0.0678012060769147,-0.112792498533368
3.042,0.066656776112337,-0.113619321621476
3.044,0.06550286320854,-0.114431038996539
3.046,0.0643388178238701,-0.115227164608536
3.048,0.063166125859086,-0.116007309664116
3.05,0.0619846610380692,-0.116772549219754
3.052,0.060795500723158,-0.117522309313505
3.054,0.05959831212445,-0.118256598262139
3.056,0.0583930267301328,-0.118974505684282
3.058,0.0571812301185504,-0.119678091109512
3.06,0.0559624135288762,-0.12036567873084
3.062,0.0547370454237629,-0.121038111057013
3.064,0.0535055306582852,-0.121696085891163
3.066,0.0522676753684716,-0.122337961723494
3.068,0.0510252578161752,-0.122965824453056
3.07,0.0497776956784626,-0.12357957399882
3.072,0.0485245190726154,-0.124178311594342
3.074,0.0472662331248382,-0.124762122525601
3.076,0.0460032970630651,-0.125332242527942
3.078,0.0447359279600133,-0.125888951064682
3.08,0.0434643210655896,-0.126431367530353
3.082,0.0421874516124308,-0.12695848091069
3.084,0.040907071215147,-0.127474526697399
3.086,0.0396228409488667,-0.127974853934127
3.088,0.0383342029707046,-0.128463393011851
3.09,0.0370416727767499,-0.128939018348669
3.092,0.035745036256268,-0.129401698803525
3.094,0.0344450250451107,-0.129850863676158
3.096,0.0331401035454003,-0.130287252884794
3.098,0.0318325426883856,-0.130710794086597
3.1,0.0305190003196464,-0.131122317464716
3.102,0.0292037414203232,-0.13152074024808
3.104,0.0278818732831112,-0.131906775585492
3.106,0.026557060917311,-0.132280552909969
3.108,0.0252284204804903,-0.132641069143613
3.11,0.0238956138775935,-0.132989655635859
3.112,0.0225577483740131,-0.133325113694083
3.114,0.0212165064251584,-0.133648666817964
3.116,0.0198699651984558,-0.133958979393207
3.118,0.0185199474670076,-0.13425621793667
3.12,0.0171650951195886,-0.134541201512744
3.122,0.0158056913940488,-0.134812152712756
3.124,0.0144421821848793,-0.135070523679403
3.126,0.0130731896585858,-0.135314698471857
3.128,0.0117010122317227,-0.135546511639773
3.13,0.0103240900508671,-0.135763813196422
3.132,0.00894257507792008,-0.135967462598502
3.134,0.007556890568384,-0.136156661050731
3.136,0.00616669154112099,-0.136331939694317
3.138,0.00477222232287483,-0.136492598306332
3.14,0.0033736288181765,-0.136638312496334
3.142,0.00197157221194423,-0.13676860447526
3.144,0.000565271862802216,-0.136884360215945
3.146,-0.00084396527595118,-0.136984352675441
3.148,-0.00225728125563422,-0.137068222279288
3.15,-0.00367375106121211,-0.137136753095982
3.152,-0.00509336081496302,-0.137188450064625
3.154,-0.00651569072872304,-0.13722461774067
3.156,-0.0079407323155792,-0.137244579567485
3.158,-0.00936763625536567,-0.137246706416239
3.16,-0.0107966971060068,-0.137232026521772
3.162,-0.012227456742104,-0.137200859802363
3.164,-0.0136595374547148,-0.13715184589076
3.166,-0.0150924014869991,-0.13708558348747
3.168,-0.0165261357990878,-0.137001963997174
3.17,-0.0179601771668379,-0.136900881442521
3.172,-0.019395027754265,-0.136781947958384
3.174,-0.020828337509302,-0.136644952274055
3.176,-0.0222605682298904,-0.136490349150213
3.178,-0.0236923309107446,-0.136317897308605
3.18,-0.0251222272002919,-0.136127514793431
3.182,-0.0265500130761307,-0.135919017342846
3.184,-0.0279758990015134,-0.135693304295955
3.186,-0.0293988969681388,-0.135448809283973
3.188,-0.0308191206349933,-0.13518705304305
3.19,-0.0322350675973259,-0.134907996853757
3.192,-0.0336472533728117,-0.134611306076912
3.194,-0.0350552601282576,-0.134296762095698
3.196,-0.0364589168987375,-0.133965445242625
3.198,-0.0378574568066961,-0.133617109794417
3.2,-0.0392506486581762,-0.133251501559168
3.202,-0.0406376905275491,-0.132869168567932
3.204,-0.042019180806584,-0.132469903014845
3.206,-0.0433943020815099,-0.132055115072938
3.208,-0.0447632801091999,-0.131623492769086
3.21,-0.0461251506955784,-0.13117653132219
3.212,-0.0474801282982741,-0.130713376746009
3.214,-0.0488275555062763,-0.130235550853142
3.216,-0.0501675202465783,-0.129742223336317
3.218,-0.0514999905578802,-0.129234373086644
3.22,-0.0528244971418896,-0.128711929662115
3.222,-0.0541405361928105,-0.128174818528505
3.224,-0.0554484700065017,-0.127624991559848
3.226,-0.0567484248167182,-0.12705981073474
3.228,-0.0580393923329161,-0.126481917949194
3.23,-0.0593224936327065,-0.125891244123507
3.232,-0.0605964684846913,-0.125286742464375
3.234,-0.0618620005580804,-0.124669980954003
3.236,-0.063118456842383,-0.124041268605859
3.238,-0.0643654390548185,-0.123399360783369
3.24,-0.0656048435244694,-0.122746895614758
3.242,-0.0668345551041061,-0.122081846247693
3.244,-0.0680559263284684,-0.121405818231281
3.246,-0.069268585213413,-0.120718575657228
3.248,-0.0704716384779803,-0.120019992715737
3.25,-0.0716670317370992,-0.119310553841881
3.252,-0.0728525128266234,-0.118590172023333
3.254,-0.0740297665849731,-0.117859653494738
3.256,-0.0751981134442409,-0.117118516812283
3.258,-0.0763579917802237,-0.116367352196205
3.26,-0.0775093302918215,-0.115605572647494
3.262,-0.0786520547262009,-0.114834329791053
3.264,-0.0797865595797325,-0.114053081756167
3.266,-0.0809121828426433,-0.113261569388783
3.268,-0.0820296451823425,-0.112460366236869
3.27,-0.0831387265768247,-0.111649837942285
3.272,-0.08423948577203,-0.110829677876356
3.274,-0.0853321802687963,-0.109998523862265
3.276,-0.0864164157021412,-0.109158478711829
3.278,-0.0874917332456944,-0.108309516599919
3.28,-0.0885597158012796,-0.107450258485784
3.282,-0.0896195865425739,-0.106581124730579
3.284,-0.0906708906132423,-0.105702651593545
3.286,-0.0917142280840687,-0.104814172681087
3.288,-0.0927495022577109,-0.103916611257374
3.29,-0.0937763033185762,-0.103008786576423
3.292,-0.0947945592865712,-0.102091560469629
3.294,-0.0958049017458589,-0.101164155601373
3.296,-0.096806014095702,-0.100227072975095
3.298,-0.0977993116433166,-0.099280195517701
3.3,-0.0987834649348852,-0.098322889467858
3.302,-0.099758615149501,-0.0973560949666629
3.304,-0.100725239119671,-0.0963788029799187
3.306,-0.101683034341086,-0.0953918202640446
3.308,-0.102631624684681,-0.0943945892487116
3.31,-0.103570683296683,-0.093387153229178
3.312,-0.104500672716538,-0.0923699982548005
3.314,-0.105420828896702,-0.0913425430223205
3.316,-0.106331584208056,-0.0903049693817823
3.318,-0.107231174529256,-0.0892576275260324
3.32,-0.108121485236618,-0.0881995873903342
3.322,-0.109001360391244,-0.0871315739971902
3.324,-0.109870628621361,-0.0860541203899709
3.326,-0.110728998715744,-0.0849661127058426
3.328,-0.111576294238234,-0.0838682164498907
3.33,-0.112412832691914,-0.0827609474650052
3.332,-0.113237112870903,-0.0816432899984989
3.334,-0.114049961367771,-0.0805165043054291
3.336,-0.114850498202094,-0.0793796366420856
3.338,-0.115640012817387,-0.0782334318701834
3.34,-0.116416671464132,-0.0770783211710442
3.342,-0.117180948370596,-0.0759137049633365
3.344,-0.117932134782499,-0.0747403264984825
3.346,-0.118670363730829,-0.0735577395598703
3.348,-0.119395201013531,-0.0723669924027129
3.35,-0.120106475375174,-0.071167384315955
3.352,-0.120804024547131,-0.0699598123506617
3.354,-0.121488080058632,-0.0687439854091176
3.356,-0.122158244657574,-0.0675203849021962
3.358,-0.122813508406741,-0.0662891518102293
3.36,-0.123454994057948,-0.0650510100416887
3.362,-0.124080854445394,-0.0638064501242171
3.364,-0.124693019075734,-0.0625541121783198
3.366,-0.125290643155597,-0.0612946297050916
3.368,-0.125872692742999,-0.0600300374399128
3.37,-0.126439694906504,-0.0587590869707807
3.372,-0.126990965235598,-0.0574830740087162
3.374,-0.127527444678988,-0.0562003434451504
3.376,-0.128048761778942,-0.0549134073009854
3.378,-0.128554109100772,-0.0536221832398088
3.38,-0.12904460457328,-0.0523257171664735
3.382,-0.129518916206634,-0.0510256810219876
3.384,-0.129978386266187,-0.0497226100812844
3.386,-0.130421327140314,-0.048413940273145
3.388,-0.130849346721389,-0.0471034194752245
3.39,-0.131261578890998,-0.0457895121934831
3.392,-0.131658369128099,-0.0444735285000763
3.394,-0.132039842817802,-0.0431551956105839
3.396,-0.132405566565627,-0.0418343608265036
3.398,-0.132756659525431,-0.0405121653111993
3.4,-0.133091247612988,-0.0391886215080265
3.402,-0.133411776603273,-0.0378637303089012
3.404,-0.133716666386657,-0.0365381427849835
3.406,-0.134007630995959,-0.0352114708357242
3.408,-0.134282201266636,-0.03388475228295
3.41,-0.134543281732874,-0.0325579954930889
3.412,-0.134788493730213,-0.0312306927220155
3.414,-0.135019515854088,-0.0299038971220991
3.416,-0.13523632398616,-0.0285777783086436
3.418,-0.135438993507142,-0.0272523537534081
3.42,-0.135627837653558,-0.0259276609369765
3.422,-0.135803091624418,-0.0246038438083805
3.424,-0.135964058800297,-0.023281256456963
3.426,-0.136111694009308,-0.0219605145833225
3.428,-0.136247126532479,-0.0206399108060846
3.43,-0.136368199314931,-0.0193222795481962
3.432,-0.136476810508848,-0.0180045772904924
3.434,-0.136571545028069,-0.0166901728836036
3.436,-0.136654063888943,-0.0153773788881868
3.438,-0.136724657147247,-0.0140658583559454
3.44,-0.136782171777215,-0.0127568150951102
3.442,-0.136827480653095,-0.0114501669448755
3.444,-0.136861154736502,-0.0101444004969369
3.446,-0.136882568719734,-0.00884118667568661
3.448,-0.136892056573394,-0.0075398686920652
3.45,-0.136889747622051,-0.00624083559414775
3.452,-0.136875921310194,-0.00494475021722222
3.454,-0.136850558986579,-0.00365016805254643
3.456,-0.136813771164462,-0.00235766053204083
3.458,-0.136766489354086,-0.00106761586580494
3.46,-0.136706651873975,0.000220713627508374
3.462,-0.13663629035754,0.00150673946944219
3.464,-0.136554267446315,0.00279181041414692
3.466,-0.13646149882054,0.00407398772676004
3.468,-0.136357451158709,0.00535384828821474
3.47,-0.13624283917912,0.0066316913166226
3.472,-0.136116508023717,0.00790816151127292
3.474,-0.13597916196453,0.00918249258851661
3.476,-0.135831449245326,0.0104541722926116
3.478,-0.135671784737746,0.0117247900265468
3.48,-0.135500908033048,0.0129936507738556
3.482,-0.135319127666377,0.0142605502262513
3.484,-0.135125089171191,0.0155247723810373
3.486,-0.134921934862462,0.0167874432549406
3.488,-0.134705801740527,0.0180482433342411
3.49,-0.134478358193993,0.0193069261862574
3.492,-0.134238478101132,0.0205635453664897
3.494,-0.133988719008095,0.0218181371468793
3.496,-0.133727014292115,0.023070620458463
3.498,-0.133452267081451,0.0243206724625831
3.5,-0.133166185255625,0.0255682844046319
3.502,-0.132867912435804,0.0268134959423651
3.504,-0.132557637257563,0.0280560693666738
3.506,-0.132235707574861,0.0292961950205141
3.508,-0.131901095051763,0.0305335216768342
3.51,-0.131553710197498,0.0317676382878722
3.512,-0.131194074232118,0.0329985867096368
3.514,-0.130821365265046,0.0342261358928
3.516,-0.130436479930491,0.0354500167068318
3.518,-0.130038633913324,0.0366706873801331
3.52,-0.129627984237116,0.0378870287672474
3.522,-0.129204570848188,0.0390993052503514
3.524,-0.12876860231447,0.0403074256823149
3.526,-0.128319210649751,0.0415101635220455
3.528,-0.127856814665935,0.0427094251984167
3.53,-0.127381523514879,0.0439020504698345
3.532,-0.126893497443071,0.0450902720757371
3.534,-0.126392451076763,0.0462732630939984
3.536,-0.125878355920435,0.0474499359913435
3.538,-0.125351223457494,0.048620514087514
3.54,-0.12481150776642,0.0497844156434622
3.542,-0.124259164446601,0.0509419174740813
3.544,-0.12369441974791,0.0520927201722277
3.546,-0.12311615227005,0.0532358034189696
3.548,-0.122526191989799,0.0543713772094144
3.55,-0.121923521298367,0.0554993968273338
3.552,-0.121309747684099,0.0566192495447516
3.554,-0.120683004435278,0.0577309082513826
3.556,-0.120044134085474,0.0588345096880487
3.558,-0.119393521847516,0.0599292447715887
3.56,-0.118731699600794,0.0610150210535024
3.562,-0.118058822891887,0.0620915213738256
3.564,-0.117375616423037,0.0631585607641101
3.566,-0.116679948043782,0.0642161757603854
3.568,-0.11597429691367,0.0652641551771709
3.57,-0.115258487038269,0.0663021687519099
3.572,-0.114532806880201,0.0673299475384531
3.574,-0.113796211108228,0.0683476278277179
3.576,-0.113050661061743,0.0693548372825303
3.578,-0.112295754003248,0.070351700514369
3.58,-0.111531591967415,0.0713379816342463
3.582,-0.110758677267385,0.0723136378159691
3.584,-0.109977363559911,0.073278070395038
3.586,-0.109187145429947,0.0742325013529247
3.588,-0.108389590969433,0.0751756295649896
3.59,-0.107584317385529,0.0761076872888944
3.592,-0.106771265054971,0.0770288853092159
3.594,-0.105951352824822,0.0779398881291786
3.596,-0.105123488184521,0.0788390902336876
3.598,-0.104289713758176,0.0797285126241024
3.6,-0.103448569052698,0.0806053434890428
3.602,-0.102601883222616,0.081473002724111
3.604,-0.101748929948754,0.0823285670168087
3.606,-0.100889885551002,0.0831740501966682
3.608,-0.100025211842751,0.0840090549211054
3.61,-0.0991551034822481,0.0848334112064266
3.612,-0.0982797207432813,0.0856470950617414
3.614,-0.09739884354393,0.0864504853218679
3.616,-0.0965131718095138,0.0872439599807391
3.618,-0.0956224094370556,0.088027516255409
3.62,-0.0947273214979832,0.0887990639386258
3.622,-0.0938274493878115,0.0895615714398697
3.624,-0.0929230029035408,0.0903153729170144
3.626,-0.0920141010390196,0.0910573519964247
3.628,-0.0911011066089849,0.0917909969023285
3.63,-0.0901835139702032,0.0925146137307493
3.632,-0.0892618793463401,0.0932289787961283
3.634,-0.0883363207870142,0.0939342203696071
3.636,-0.0874062252366088,0.0946289680090139
3.638,-0.086471575209226,0.0953157520982041
3.64,-0.0855336554507427,0.0959917003409675
3.642,-0.0845911477295157,0.0966603891526043
3.644,-0.0836457516949463,0.0973177697094958
3.646,-0.0826942707044528,0.0979680079117065
3.648,-0.0817407066574769,0.0986080300147645
3.65,-0.0807805548475152,0.0992393869709599
3.652,-0.0798192547371752,0.099861780201708
3.654,-0.0788525367513451,0.100474857186148
3.656,-0.0778817230080643,0.101079366400121
3.658,-0.0769059334156953,0.101674415487648
3.66,-0.0759275196002004,0.102260816038107
3.662,-0.0749428086498045,0.102837335029042
3.664,-0.0739559927752483,0.103405374454097
3.666,-0.0729646084152547,0.103963899078151
3.668,-0.0719695984525171,0.104513975050992
3.67,-0.0709684380535247,0.105053924441607
3.672,-0.0699647620263219,0.105584266396768
3.674,-0.0689560456982732,0.106105822518669
3.676,-0.0679430797712499,0.106616246010403
3.678,-0.0669274206238144,0.107118398563689
3.68,-0.0659066954330285,0.107610838097018
3.682,-0.0648818995260316,0.108092924249147
3.684,-0.0638531693655687,0.108564995790362
3.686,-0.0628202756175483,0.109027270476865
3.688,-0.061784304792482,0.109478519307855
3.69,-0.0607438758753625,0.109920088625886
3.692,-0.0597005006275549,0.110350808224321
3.694,-0.058653012898115,0.110771265362601
3.696,-0.0576016686648013,0.111181564110036
3.698,-0.0565472348929635,0.111580151308004
3.7,-0.055489660015904,0.11196692871419
3.702,-0.0544285450061052,0.112343165302053
3.704,-0.0533663412205483,0.112708665437042
3.706,-0.0522996275015189,0.113062505367488
3.708,-0.0512310240489834,0.113405447394096
3.71,-0.0501594871250514,0.1137363923956
3.712,-0.0490858463425272,0.114056624864426
3.714,-0.048010159925879,0.114364320615468
3.716,-0.0469325225910147,0.114660727569781
3.718,-0.0458535709959621,0.114944954195469
3.72,-0.0447726507401527,0.115217959045034
3.722,-0.0436912326749388,0.115477872949307
3.724,-0.042607980161809,0.115726764764497
3.726,-0.0415235661495882,0.115964470478229
3.728,-0.0404394543249552,0.116188974502423
3.73,-0.0393536497094479,0.116402454880162
3.732,-0.0382688430821263,0.116603458514842
3.734,-0.0371841272559425,0.116793055893259
3.736,-0.0360985385831723,0.116970087592101
3.738,-0.0350137791907057,0.117135742728891
3.74,-0.0339296877592567,0.117289435419937
3.742,-0.0328466645658866,0.11743123863279
3.744,-0.0317647795058803,0.1175620882215
3.746,-0.0306844289708477,0.117680914200993
3.748,-0.0296041437500532,0.11778763479207
3.75,-0.028525564383257,0.117883092806733
3.752,-0.0274498145268724,0.117967598407067
3.754,-0.0263758783946763,0.118041108031428
3.756,-0.0253032741965203,0.118102630609386
3.758,-0.0242331217398803,0.118153155441618
3.76,-0.0231658153851252,0.118193077854321
3.762,-0.0221004167564771,0.118222204022926
3.764,-0.0210378729033565,0.118240155457489
3.766,-0.0199779214244317,0.118248674866377
3.768,-0.0189209575833991,0.118245190332051
3.77,-0.0178675451486739,0.118232084150634
3.772,-0.0168168647806708,0.118208674729092
3.774,-0.0157694409336071,0.118175009613144
3.776,-0.0147247802706638,0.118131342086663
3.778,-0.0136844295460697,0.118077806148241
3.78,-0.0126470673612254,0.118015208062647
3.782,-0.0116134894103656,0.117941751079685
3.784,-0.0105835816942603,0.117859067913611
3.786,-0.00955730401604622,0.117767370597264
3.788,-0.00853462310811815,0.117666028893053
3.79,-0.00751621314984551,0.117555592176225
3.792,-0.00650118349324067,0.117436012421674
3.794,-0.00548991212576233,0.117307503272347
3.796,-0.00448285227368129,0.117169981336313
3.798,-0.00347955279106688,0.117024023732166
3.8,-0.00248038320281677,0.116868418331877
3.802,-0.00148529816823079,0.116704907719101
3.804,-0.000494298231294033,0.116532744170384
3.806,0.000492814604305508,0.116351994133265
3.808,0.00147561369516254,0.116162726042804
3.81,0.00245392162423977,0.115965055420383
3.812,0.00342821826997295,0.115758993461703
3.814,0.00439886530751017,0.115544554031962
3.816,0.00536483296780176,0.115322150882327
3.818,0.00632639931956423,0.115091674074006
3.82,0.00728389209457112,0.114852466106177
3.822,0.00823678555235717,0.114605946429974
3.824,0.00918550667646394,0.114350664871511
3.826,0.0101296059855391,0.114088024295213
3.828,0.0110691840470241,0.113817341133825
3.83,0.0120043737859034,0.113538436502042
3.832,0.0129343670378444,0.11325185739458
3.834,0.013860902748451,0.112957182538192
3.836,0.0147822259436114,0.112655454949653
3.838,0.0156988282820829,0.112344996842627
3.84,0.0166106069552999,0.112027218883592
3.842,0.0175175437521972,0.111701792921199
3.844,0.0184192745482587,0.111368690868946
3.846,0.019316532306603,0.111027740703152
3.848,0.020208336968613,0.110679232772013
3.85,0.0210953118058955,0.110323077244446
3.852,0.021976601995789,0.10995973365352
3.854,0.0228526493668063,0.109589427269613
3.856,0.0237235956767014,0.109210481632901
3.858,0.0245893555771944,0.108824547169787
3.86,0.025449119749277,0.108431634362953
3.862,0.0263038822193404,0.10803130644432
3.864,0.0271521275305984,0.107623848269731
3.866,0.0279951354540671,0.107209063729493
3.868,0.0288325634033446,0.106787516657015
3.87,0.0296634031119421,0.106358582302595
3.872,0.0304883151939553,0.105922887296186
3.874,0.0313082470783471,0.105480450296645
3.876,0.0321206546482939,0.105031019313764
3.878,0.0329277548927217,0.10457478463189
3.88,0.0337282686160652,0.104112213355515
3.882,0.0345221523459298,0.103642854325006
3.884,0.0353097430179159,0.103167105857959
3.886,0.0360904124974043,0.102685337673351
3.888,0.0368648044693174,0.102196832279999
3.89,0.0376326535054779,0.101702608838566
3.892,0.0383939004624188,0.101201606273584
3.894,0.0391481666426107,0.100694864767081
3.896,0.0398958888779141,0.10018226959871
3.898,0.0406362479620094,0.0996639004718227
3.9,0.0413698553117506,0.099139686282351
3.902,0.0420965312866912,0.0986095708966252
