"Freq [GHz]","re(S(Antenna1_1_1,Antenna1_1_1)) []","im(S(Antenna1_1_1,Antenna1_1_1)) []"
3,-0.196196316919393,-0.165030703579326
3.0175,-0.204764758899113,-0.149250686769693
3.035,-0.209880699845577,-0.133119276914135
3.0525,-0.214152547668528,-0.120099188726154
3.07,-0.221593147396973,-0.105139700218774
3.0875,-0.224096703607216,-0.0869624726813111
3.105,-0.225723248980493,-0.0729166649796729
3.1225,-0.228551613903842,-0.0558018790739398
3.14,-0.227179181170817,-0.0385167918358418
3.1575,-0.224602400620542,-0.0225592248063299
3.175,-0.221594306715247,-0.0082154311413757
3.1925,-0.219254680659567,0.008828521051697
3.21,-0.210065482806143,0.0256666785818935
3.2275,-0.201828244913098,0.035922420079907
3.245,-0.196554254915488,0.0488422139275647
3.2625,-0.187415531535122,0.0618687439234738
3.28,-0.179641400762695,0.0737415158154707
3.2975,-0.166777178072446,0.0884325970740073
3.315,-0.151743090443238,0.0936364230117836
3.3325,-0.145241429394174,0.101364027335347
3.35,-0.13117769544653,0.114480304972648
3.3675,-0.113423443316088,0.120049142610942
3.385,-0.0980469577755257,0.123113670992813
3.4025,-0.0838631022166052,0.124046281346757
3.42,-0.0709893460211445,0.126409323793361
3.4375,-0.0555213208230872,0.126487223545651
3.455,-0.0435659533020284,0.125240191699313
3.4725,-0.029581222329579,0.126679830131226
3.49,-0.0130892179007215,0.124326932496546
3.5075,0.00227305296854871,0.119455518808848
3.525,0.0164148861630739,0.111803638937772
3.5425,0.0271564086971429,0.104993214361134
3.56,0.0423881836892276,0.0994292078996442
3.5775,0.0575300007579105,0.0839932623252556
3.595,0.0610031863079724,0.0682145367995434
3.6125,0.064087534789613,0.0623162360425833
3.63,0.0760520675202797,0.055288137060455
3.6475,0.0853963877962567,0.0391870629521825
3.665,0.0880716615695196,0.0259445076372499
3.6825,0.0942981412868762,0.0145034482002759
3.7,0.0999282284379312,-0.00156115438504572
3.7175,0.101572961898053,-0.0183402988433002
3.735,0.101143885909726,-0.0352938725031986
3.7525,0.0968654764729017,-0.0503833152034919
3.77,0.0947713376946299,-0.0638222371809587
3.7875,0.0883504864311248,-0.0802532540825199
3.805,0.0799156025610687,-0.0898079840212459
3.8225,0.0763626757510634,-0.099617537150711
3.84,0.0718112612903762,-0.112466648647784
3.8575,0.0651149640381956,-0.126360851071082
3.875,0.0544723079853063,-0.14001223530263
3.8925,0.0428119267870333,-0.1496849366883
3.91,0.0314862005262703,-0.162189469209277
3.9275,0.0130177371487426,-0.171264030831269
3.945,-0.0015995649926892,-0.173668551374373
3.9625,-0.0143556448040443,-0.177976904381447
3.98,-0.027013028763502,-0.18166173745505
3.9975,-0.0416466194485682,-0.186460268153147
4.015,-0.0572891004981807,-0.186816183898408
4.0325,-0.069908046684359,-0.186972132351456
4.05,-0.0830095369295466,-0.188539515537087
4.0675,-0.0987012460681226,-0.190263406237049
4.085,-0.117081354641618,-0.188626985410608
4.1025,-0.134228726427241,-0.182162475335202
4.12,-0.147915657217759,-0.174693528219821
4.1375,-0.161074604496726,-0.166875055302431
4.155,-0.171178001585065,-0.158426951067412
4.1725,-0.182428912407562,-0.153920385808485
4.19,-0.198053812847005,-0.14441508779046
4.2075,-0.206773941887315,-0.131001741389789
4.225,-0.214060970085167,-0.123442873356547
4.2425,-0.22580911630638,-0.114825270494886
4.26,-0.23677638920887,-0.10241697189155
4.2775,-0.246282962455481,-0.089214549265592
4.295,-0.255373499419024,-0.0723776097558935
4.3125,-0.256391536486881,-0.0546095911220176
4.33,-0.257297844768705,-0.0454489023713655
4.3475,-0.263959000665056,-0.032270834042722
4.365,-0.265376651833581,-0.0163105945670522
4.3825,-0.26611764607943,-0.00264916326399181
4.4,-0.265621559750727,0.0116530872286782
4.4175,-0.264278202202044,0.0241395591266563
4.435,-0.264115085165116,0.0362600421443901
4.4525,-0.265076450958435,0.0505939589959779
4.47,-0.262281435394239,0.0689506274636535
4.4875,-0.252909918902216,0.0838941451858658
4.505,-0.245603410199807,0.0931128577821633
4.5225,-0.240353629789515,0.104038682553054
4.54,-0.234188555530458,0.113588277181831
4.5575,-0.230755456075141,0.126378907532871
4.575,-0.218251949237566,0.14057133228168
4.5925,-0.208632080050067,0.143981796575228
4.61,-0.205384548623411,0.155716439865137
4.6275,-0.191388926803317,0.167738085974902
4.645,-0.180530676678872,0.171929290941599
4.6625,-0.172238108086147,0.180460326158165
4.68,-0.158790570477064,0.188805991274152
4.6975,-0.145137638412744,0.192336367304509
4.715,-0.133566500415839,0.194933064697153
4.7325,-0.123168802576118,0.196445123572432
4.75,-0.114612240961468,0.200089457965609
4.7675,-0.103582859457455,0.204718187070773
4.785,-0.092089408445277,0.208295254970892
4.8025,-0.0779694474311192,0.210942567940843
4.82,-0.0639667434822895,0.209738539967483
4.8375,-0.0517403594505009,0.20632747692125
4.855,-0.0433103102110797,0.202831204415508
4.8725,-0.0347977852211133,0.203088150398945
4.89,-0.0224196907061593,0.203351597643687
4.9075,-0.00831399618174051,0.19855059999614
4.925,9.04957909340139E-06,0.190955524660167
4.9425,0.00685803435443012,0.188206608087452
4.96,0.0165813853019632,0.185430879604209
4.9775,0.0273779815871577,0.182302779040144
4.995,0.0409103809168626,0.175484396949487
5.0125,0.0496833725051308,0.163543585089735
5.03,0.0536916874142055,0.155470897325859
5.0475,0.0603562370643528,0.149436120988656
5.065,0.0670498110075996,0.141996712326011
5.0825,0.0743842060737459,0.134306460408224
5.1,0.0806204484716856,0.123880685222745
5.1175,0.0839677675681929,0.114769166472713
5.135,0.0885908668621779,0.106750428517038
5.1525,0.0933311251773382,0.0980431067188158
5.17,0.0994696067053881,0.0877321094619518
5.1875,0.102051619226443,0.0736087699368456
5.205,0.100834627994554,0.062858097310402
5.2225,0.101168081978425,0.0534695695135642
5.24,0.101076063623479,0.0436118228716376
5.2575,0.100485060151232,0.034104921873098
5.275,0.100231809197563,0.0246472202069234
5.2925,0.0990213398895072,0.0140038575952887
5.31,0.0967149580048538,0.00434182692786511
5.3275,0.0945332669895827,-0.00573625625737303
5.345,0.0913991249684454,-0.0160071856064889
5.3625,0.0870906963224344,-0.0269281720010674
5.38,0.0807119986300566,-0.0368983279973153
5.3975,0.073524039076197,-0.04551964038898
5.415,0.0664226671097697,-0.0523068322797799
5.4325,0.0602814355375566,-0.0597834079611256
5.45,0.0516998027229112,-0.0666214441384465
5.4675,0.0450924684234184,-0.0706782492701215
5.485,0.0402752174809024,-0.0776374795426569
5.5025,0.0325699135581373,-0.0868315654630727
5.52,0.0203819225732837,-0.0942125071022703
5.5375,0.0092668144766005,-0.0965626130433017
5.555,0.000178967098456121,-0.100410153604856
5.5725,-0.0102177438504911,-0.103011519779936
5.59,-0.0194785706983677,-0.106935469360778
5.6075,-0.0335796814956019,-0.109863319871661
5.625,-0.046153946667742,-0.106404275143896
5.6425,-0.0530522787496086,-0.103831072183251
5.66,-0.0604311783628226,-0.106329725534048
5.6775,-0.0720841791847964,-0.108224601124808
5.695,-0.0843425716556867,-0.108166314308483
5.7125,-0.0979525032358132,-0.106239867707782
5.73,-0.110827110353,-0.101281137699091
5.7475,-0.121348280811565,-0.0945334405518344
5.765,-0.129177203504691,-0.0895427340132316
5.7825,-0.139980447001146,-0.0864627166993394
5.8,-0.152602894534322,-0.0791040224773716
5.8175,-0.162003945550006,-0.0690225099918683
5.835,-0.168175588264793,-0.0592768122626766
5.8525,-0.172743101814472,-0.0534141245662676
5.87,-0.183015936331807,-0.0490630743549935
5.8875,-0.194359577176814,-0.0379613113688878
5.905,-0.201157111337953,-0.0255927449757854
5.9225,-0.207125192790543,-0.0137569715003432
5.94,-0.211520227656736,-0.00137504685412643
5.9575,-0.21494332711922,0.00993801899532704
5.975,-0.219055329584146,0.0214530724254481
5.9925,-0.222029299879806,0.0346144061579522
6.01,-0.223254800219265,0.04701892799953
6.0275,-0.224678521049147,0.0595580086657622
6.045,-0.224527600665859,0.0723510399630283
6.0625,-0.224474938986567,0.0841715784601774
6.08,-0.224810793938794,0.0976684449447963
6.0975,-0.223290502246116,0.112965252384055
6.115,-0.218512240444495,0.127991559901457
6.1325,-0.212394351218825,0.140853243335443
6.15,-0.206202163510508,0.152894699534846
6.1675,-0.19916889005948,0.164255243893836
6.185,-0.192464597854381,0.174114072506477
6.2025,-0.187152788462651,0.185206216745513
6.22,-0.1793547906234,0.198284250419135
6.2375,-0.169077409130203,0.209718772036541
6.255,-0.158139334996575,0.220212424186906
6.2725,-0.145781123280957,0.228973451809342
6.29,-0.134882598235736,0.236544537030913
6.3075,-0.122230977624128,0.246110138488655
6.325,-0.106309893496799,0.252174162303327
6.3425,-0.0921190244518673,0.255140495695787
6.36,-0.0795646471723586,0.256817778791556
6.3775,-0.0698378490292109,0.259655343980889
6.395,-0.0586258815593478,0.266093258241489
6.4125,-0.0426670047939966,0.272373898112555
6.43,-0.0238844155478665,0.274214394223866
6.4475,-0.00656694852771783,0.271644829542856
6.465,0.00743061629135817,0.267841925455836
6.4825,0.0207518526736387,0.266179609100461
6.5,0.0370895205477054,0.263200823555988
6.5175,0.0519956707140139,0.255553988450494
6.535,0.0636523864331922,0.247842874875715
6.5525,0.0744781263408551,0.240920681179096
6.57,0.0846076290395904,0.235081412444472
6.5875,0.0969491181976483,0.230349875937847
6.605,0.111655266021225,0.222959172183186
6.6225,0.126045087833068,0.21165400570792
6.64,0.137530206330412,0.19729996841865
6.6575,0.145076182222874,0.182583553115874
6.675,0.150733597323175,0.170253699397489
6.6925,0.157823535666379,0.158151107637162
6.71,0.163571891313827,0.143993127258003
6.7275,0.166939025786092,0.130281980495239
6.745,0.169394626221845,0.1184252123347
6.7625,0.173952182641058,0.107217105806197
6.78,0.178684964782852,0.0929437120983089
6.7975,0.181264300351342,0.0778331325665611
6.815,0.183026584197619,0.0614641868898632
6.8325,0.181104366491557,0.0438994888595727
6.85,0.176353806367892,0.0286781979409874
6.8675,0.171091540612962,0.0151451116592466
6.885,0.165135412104163,0.00281414851576952
6.9025,0.159381663828284,-0.00794402207136018
6.92,0.154754516439951,-0.0191236157358151
6.9375,0.148374273868896,-0.0310674562318646
6.955,0.142152043309566,-0.0409857318474855
6.9725,0.1359075835444,-0.0529760572365988
6.99,0.126265696343978,-0.065010083906422
7.0075,0.115086601470724,-0.0745655739182591
7.025,0.10433782992486,-0.0833278639834676
7.0425,0.0908098109152222,-0.091625449220099
7.06,0.0772570610540219,-0.0950648131891834
7.0775,0.0666065045472321,-0.0980427487702555
7.095,0.0565532739160477,-0.100796803524919
7.1125,0.0479428840541339,-0.105016598592834
7.13,0.0365682160062505,-0.110955825650307
7.1475,0.0225595946271374,-0.114197058384321
7.165,0.0097072626858928,-0.114479579902977
7.1825,-0.00165523172307885,-0.115289697291091
7.2,-0.0148105264523512,-0.116177690805834
7.2175,-0.0288151653543441,-0.114538256789105
7.235,-0.0420743283444096,-0.110495019069165
7.2525,-0.0534832081288132,-0.10440412847959
7.27,-0.0611815128856158,-0.09773256855751
7.2875,-0.066737648927152,-0.0955627667014793
7.305,-0.0773409313691235,-0.095529079917451
7.3225,-0.0902709693822059,-0.0914235705486166
7.34,-0.102515167323785,-0.084215827132509
7.3575,-0.111664301941224,-0.0740757722782372
7.375,-0.117047284937135,-0.0664306172841326
7.3925,-0.125458971925409,-0.0613888401196223
7.41,-0.13494314149689,-0.0524672080477168
7.4275,-0.141282365188028,-0.0414263915278337
7.445,-0.144219254012904,-0.0313322956953081
7.4625,-0.146629986007268,-0.0245784951867478
7.48,-0.151217604624991,-0.018485928510114
7.4975,-0.157053546696468,-0.0118527823488065
7.515,-0.164176276525696,-0.00254031862538121
7.5325,-0.168660378513218,0.00923988062182449
7.55,-0.17120550649984,0.0207344828136137
7.5675,-0.172096906596679,0.0321998404556073
7.585,-0.171543674216726,0.0425004197294763
7.6025,-0.170927720009736,0.0515639547540889
7.62,-0.170436485310827,0.060564051785096
7.6375,-0.169650955475596,0.0691235342669339
7.655,-0.169244379982672,0.0779070101156468
7.6725,-0.168124853525761,0.0871701536818262
7.69,-0.166425922563832,0.0961662597531602
7.7075,-0.164636301492688,0.104994900188582
7.725,-0.163175140447449,0.114315208653303
7.7425,-0.160812013382015,0.12598182006044
7.76,-0.153755316735011,0.137861766545573
7.7775,-0.144317666096475,0.145042884566005
7.795,-0.137577933088067,0.148257013844515
7.8125,-0.135047632654972,0.152648939748179
7.83,-0.131933522418324,0.161013697150131
7.8475,-0.126095854899767,0.170132802252705
7.865,-0.117301266026722,0.177341258048318
7.8825,-0.110481216235619,0.181095930740682
7.9,-0.105446467698017,0.187781404019729
7.9175,-0.0973351403545164,0.194954275385263
7.935,-0.0882341631387891,0.20118200918896
7.9525,-0.0768163490014035,0.205842734627395
7.97,-0.0661124640046506,0.206474647750411
7.9875,-0.0587105101606356,0.206472285048742
8.005,-0.0527769931730984,0.208420413606593
8.0225,-0.0451974836519963,0.212571123796101
8.04,-0.0347927973938569,0.214992611884456
8.0575,-0.025343523864325,0.215577975607127
8.075,-0.0156086938830794,0.216338743310281
8.0925,-0.00563896155813494,0.215571566904187
8.11,0.00362331289961111,0.214737050073258
8.1275,0.0145218984874547,0.212934733106494
8.145,0.0235605989509109,0.207976579658409
8.1625,0.0303921430838925,0.204799141767173
8.18,0.038510070413997,0.201511877977539
8.1975,0.0456435650681831,0.197941804887219
8.215,0.0538493862327723,0.194646747614569
8.2325,0.0622900280695329,0.189867262616672
8.25,0.0702860388585975,0.183912717600957
8.2675,0.077406989354122,0.177297725475193
8.285,0.085210801421197,0.169646525576677
8.3025,0.0903593083458252,0.15919432291933
8.32,0.0922449263154101,0.1513325663037
8.3375,0.0959668473124186,0.144868150783882
8.355,0.0992048888233348,0.137432436966257
8.3725,0.10311411197592,0.130548093192812
8.39,0.106617208429987,0.121216551520229
8.4075,0.107925450728831,0.112922738712694
8.425,0.11074285920963,0.10464610504056
8.4425,0.112673263637399,0.0941389976197089
8.46,0.11240177773431,0.082485360496438
8.4775,0.108542478650534,0.0715110524572222
8.495,0.103811609514076,0.0638966359075666
8.5125,0.099957381242389,0.0571487972000646
8.53,0.0964328512289218,0.0517427074457402
8.5475,0.095173608877163,0.0452798399982136
8.565,0.0915082217603961,0.0365145645448779
8.5825,0.0866890248284908,0.0301267126219863
8.6,0.0828516452991182,0.0225735746640525
8.6175,0.0766724390368371,0.0148800119330484
8.635,0.0702007387332602,0.00752321065294631
8.6525,0.0608440470978316,-0.000238447714572289
8.67,0.0487796368714071,-0.00446267725069697
8.6875,0.0379933931076478,-0.00409670330132415
8.705,0.0315168750040111,-0.00268395114977421
8.7225,0.0258835797959694,-0.00453197591060672
8.74,0.0174876953449035,-0.00653939194746444
8.7575,0.00946846932865332,-0.00627070013728701
8.775,0.00231147772645882,-0.00693917134524666
8.7925,-0.00609761545047011,-0.00786086575128319
8.81,-0.016453819963114,-0.00844262195359727
8.8275,-0.0282513821487873,-0.00541359881456142
8.845,-0.0377450061024032,-0.000427601823165506
8.8625,-0.0471481958611449,0.00527503596819053
8.88,-0.0545295087779567,0.0130946910891194
8.8975,-0.059943296891229,0.019909363428442
8.915,-0.0650635646211093,0.026696310137068
8.9325,-0.0692990075396565,0.0325952958242138
8.95,-0.0747308060272445,0.0384406412596354
8.9675,-0.0796089403442438,0.0449610182448563
8.985,-0.0858431975529091,0.0514418996384962
9.0025,-0.0921042446640628,0.0610372713930538
9.02,-0.0962054780055603,0.0719181325686579
9.0375,-0.09855437022613,0.0834288138156258
9.055,-0.0987858345808753,0.0948189768466286
9.0725,-0.0977229072584466,0.104790842919882
9.09,-0.0971620107901052,0.114506928019121
9.1075,-0.0951393829482837,0.125002100812692
9.125,-0.0913895544804824,0.134195291966632
9.1425,-0.0880293336993455,0.140488289330345
9.16,-0.0882523597488088,0.148132218484844
9.1775,-0.0861726302249476,0.159844037365752
9.195,-0.0810951768576929,0.170591377981963
9.2125,-0.074490076618597,0.180936242675453
9.23,-0.0663886218764098,0.189250906711595
9.2475,-0.0586444467301708,0.196733508354431
9.265,-0.0500978171679223,0.203324845931119
9.2825,-0.0420338892187482,0.209482809063372
9.3,-0.0323220514436911,0.215301966751817
9.3175,-0.0232737031266704,0.218610280065499
9.335,-0.015630371099404,0.222880648266522
9.3525,-0.00696482716559628,0.227741296501461
9.37,0.00280890098490107,0.232878081882573
9.3875,0.0150463336735427,0.236736045055342
9.405,0.0268384920897782,0.237389783819011
9.4225,0.0371228081617726,0.238565824993597
9.44,0.0495175573545613,0.239097011255697
9.4575,0.060863287564874,0.236949570603729
9.475,0.0714106133801599,0.234924642740914
9.4925,0.0815630403654206,0.231682532058171
9.51,0.0904095116335132,0.228747589808766
9.5275,0.0997333042450993,0.226803898404259
9.545,0.111344174092481,0.224367014282008
9.5625,0.123338896944016,0.217984870145611
9.58,0.131533286995188,0.210726992085994
9.5975,0.139881589444003,0.20479442285514
9.615,0.148148178664562,0.197430468648498
9.6325,0.155766554412873,0.190272008108844
9.65,0.163918732051937,0.181402616996966
9.6675,0.169151894969214,0.171173170761389
9.685,0.172995722549482,0.163234672003686
9.7025,0.178542521807111,0.156000743974316
9.72,0.18528891260887,0.146902911155475
9.7375,0.190584893558401,0.134694578275267
9.755,0.192000454654508,0.122779265094863
9.7725,0.193479811897076,0.11292634887135
9.79,0.194814225083484,0.102123074775201
9.8075,0.195292012989181,0.0915109245511244
9.825,0.194575800498853,0.0801237184719727
9.8425,0.192422329643953,0.0705857818472821
9.86,0.191867215307278,0.0607306856129164
9.8775,0.189245248645753,0.0495591395379625
9.895,0.186151874546397,0.0397381613950346
9.9125,0.182927528173748,0.0284034221116217
9.93,0.176761766934159,0.0163945905486966
9.9475,0.167665863018583,0.00638506106531163
9.965,0.158727884507842,-0.000344826959504575
9.9825,0.151293403218553,-0.0073658630812786
10,0.141695036580836,-0.0149681785658527
