"Freq [GHz]","re(S(Antenna1_1_1,Antenna1_1_1)) []","im(S(Antenna1_1_1,Antenna1_1_1)) []"
3,-0.193500660292393,-0.161245642892126
3.0175,-0.200304946321113,-0.152374955917694
3.035,-0.211516970519577,-0.138431753646135
3.0525,-0.219105521470528,-0.119988819091154
3.07,-0.222162845149973,-0.102720053022774
3.0875,-0.224808314077216,-0.0864429790743111
3.105,-0.226087671782493,-0.0708029025576729
3.1225,-0.227374708458642,-0.0540211197239398
3.14,-0.224373637531517,-0.0378368681978418
3.1575,-0.223274681637542,-0.02475742319533
3.175,-0.221349102811117,-0.0085744249443757
3.1925,-0.218163235389567,0.006423136413697
3.21,-0.211984935534643,0.0235665187158935
3.2275,-0.204155765654898,0.034747805933907
3.245,-0.200852689700488,0.0505726587575647
3.2625,-0.187255809440122,0.0669180600424737
3.28,-0.176051569963695,0.0750858307204707
3.2975,-0.166285514111446,0.0871152195090073
3.315,-0.150928483250238,0.0965706345787836
3.3325,-0.139090580571174,0.0999567769753471
3.35,-0.13047107011453,0.107726545753248
3.3675,-0.118273686512088,0.115884341972012
3.385,-0.103660552105526,0.125066669527613
3.4025,-0.0843036376136052,0.127315265570957
3.42,-0.0719594122671445,0.127423025968061
3.4375,-0.0566544493730872,0.129915442827451
3.455,-0.0411987140280284,0.130239808017013
3.4725,-0.021885658987579,0.127499378929226
3.49,-0.00914369504972149,0.117546763278646
3.5075,-0.000976738936451295,0.114352824531848
3.525,0.0133219223890739,0.112375881526772
3.5425,0.0283722752921429,0.103628036740134
3.56,0.0372736591032276,0.0945625593926442
3.5775,0.0482175171999105,0.0888716262222556
3.595,0.0614851309949724,0.0800872061365434
3.6125,0.074698135799613,0.0670784915705833
3.63,0.0830442135092797,0.049742117218455
3.6475,0.0860212520454567,0.0340813236881825
3.665,0.0868998690935196,0.0222647279182499
3.6825,0.0927494637280762,0.0126732355802759
3.7,0.0976792685439312,-0.00494913612504572
3.7175,0.0950100929670535,-0.0184985246053002
3.735,0.0971207323157256,-0.0297536198491986
3.7525,0.0985355768309017,-0.0441127716074919
3.77,0.09923049177263,-0.0616195576039587
3.7875,0.0921898200981248,-0.0800217658365199
3.805,0.0837776753050687,-0.0921301316642459
3.8225,0.0777031515010634,-0.102949344622711
3.84,0.0728603430903762,-0.117086562324784
3.8575,0.0601111180881956,-0.132182289619082
3.875,0.0469967336943063,-0.13820732416313
3.8925,0.0403861857670333,-0.1444869434693
3.91,0.0329269625862703,-0.158178278952277
3.9275,0.0147785782777426,-0.169887789718269
3.945,1.31562031079925E-06,-0.171642496602373
3.9625,-0.0101053101900443,-0.177027365884447
3.98,-0.022683161066502,-0.18543234285805
3.9975,-0.0432114860475682,-0.192083955942147
4.015,-0.0608406446734807,-0.187400072096408
4.0325,-0.071187236070359,-0.187153354668456
4.05,-0.0853300537965466,-0.188548568217086
4.0675,-0.101369809149123,-0.189024836797049
4.085,-0.118856651715618,-0.184024290490608
4.1025,-0.130518544581241,-0.177637217046202
4.12,-0.142300126692859,-0.175153535959821
4.1375,-0.158587852074726,-0.171328280870431
4.155,-0.172804168827065,-0.161591887439412
4.1725,-0.184213747132562,-0.154635399390485
4.19,-0.198360040904005,-0.14478538760246
4.2075,-0.208989269783315,-0.133588390153789
4.225,-0.219051815833167,-0.120741846728547
4.2425,-0.22468993455238,-0.110488487789886
4.26,-0.23592376245887,-0.10073115185755
4.2775,-0.242798113355481,-0.085983397002592
4.295,-0.249397558979024,-0.0752851265060935
4.3125,-0.257658679556881,-0.0612284695111176
4.33,-0.262095858758705,-0.0443777404513655
4.3475,-0.261358003406056,-0.030510648682722
4.365,-0.265532201363581,-0.0201484685500522
4.3825,-0.26956559455843,-0.00360730023999181
4.4,-0.269639240390727,0.0134962047306782
4.4175,-0.264634408920044,0.0297622856876563
4.435,-0.260209283660116,0.0393457386963901
4.4525,-0.259659044997435,0.0501325937319779
4.47,-0.260181726078239,0.0635533073196535
4.4875,-0.255416206108216,0.0811003800658658
4.505,-0.247535868014307,0.0920088947421633
4.5225,-0.243216108376515,0.103862056243054
4.54,-0.236971155904758,0.116291289857831
4.5575,-0.228364310765841,0.130045107612871
4.575,-0.217103526283566,0.13815057073168
4.5925,-0.210526027173067,0.146895283976228
4.61,-0.200803598611411,0.156506635979137
4.6275,-0.191375786656317,0.165501487056902
4.645,-0.178617401609872,0.172589144316599
4.6625,-0.169493907511147,0.175634363438165
4.68,-0.164298599365064,0.182606869247152
4.6975,-0.153423069731744,0.196544972045509
4.715,-0.132385120415839,0.201821281436153
4.7325,-0.119812074106118,0.198573434160832
4.75,-0.111879807171468,0.199337163949609
4.7675,-0.104015167868455,0.205559278120773
4.785,-0.086534210874277,0.209956532200492
4.8025,-0.0743825554011192,0.203865220543443
4.82,-0.0683917744822895,0.203911971552483
4.8375,-0.0589449125415009,0.20684676247925
4.855,-0.0448684475930797,0.209257868893508
4.8725,-0.0305211617501133,0.204225194458945
4.89,-0.0232541365161593,0.200052192460687
4.9075,-0.0130922692737405,0.20164439741714
4.925,0.0041667773880934,0.198090064902167
4.9425,0.0146447706636301,0.185494187487452
4.96,0.0174802337924632,0.179611695673209
4.9775,0.0250227343960577,0.178152233986144
4.995,0.0364827070609626,0.174548677264487
5.0125,0.0468899196566308,0.165259937519735
5.03,0.0521678971202055,0.157914230256859
5.0475,0.0604975862383529,0.152403186877656
5.065,0.0692956671615996,0.144355920652011
5.0825,0.0772418505257459,0.133743156209224
5.1,0.0813011796046856,0.123059608923745
5.1175,0.0857291414481929,0.114238928137713
5.135,0.0899723757391779,0.104418038534038
5.1525,0.0929511694833382,0.0938886979308158
5.17,0.0938829511823881,0.0853133229209518
5.1875,0.0979613956074432,0.0776620479374856
5.205,0.101336657042554,0.066569134016002
5.2225,0.102561244739425,0.0556790078206642
5.24,0.103294803654479,0.0454681018771276
5.2575,0.104569312880232,0.033787844967098
5.275,0.101646730137563,0.0211673947898234
5.2925,0.0985577049345072,0.0122966994142887
5.31,0.0962839105718538,0.00224450024386511
5.3275,0.0928071429755827,-0.00756593635637303
5.345,0.0877679833294455,-0.0171819862874889
5.3625,0.0829909472934344,-0.0237093875080674
5.38,0.0810716910330566,-0.0319157735853152
5.3975,0.077092737588697,-0.04281190169998
5.415,0.0695396223457697,-0.0533203150187799
5.4325,0.0611781817075566,-0.0601179373961256
5.45,0.0549849002891112,-0.0671300332974465
5.4675,0.0475915293128184,-0.0755125641401214
5.485,0.0368401266117024,-0.0839742082636569
5.5025,0.0245891460271373,-0.0862335951850727
5.52,0.0187740500782837,-0.0884319145242703
5.5375,0.0108016333406005,-0.0945334636653017
5.555,0.000710154510456122,-0.0994050688258556
5.5725,-0.0102924100954911,-0.101193934650936
5.59,-0.0167335233953677,-0.103660950542778
5.6075,-0.0279344364826019,-0.110326594956661
5.625,-0.042160732727742,-0.111862641788896
5.6425,-0.0558151506866086,-0.110498359496251
5.66,-0.0657891685808226,-0.106939394241048
5.6775,-0.0745678437647964,-0.106829752067808
5.695,-0.0864902138056867,-0.106944073641483
5.7125,-0.100435462726813,-0.102925829472182
5.73,-0.108769561488,-0.0955508961400912
5.7475,-0.115254130141565,-0.0941078676369344
5.765,-0.126879163294691,-0.0933645346902316
5.7825,-0.141116193429145,-0.0884802493573394
5.8,-0.152361050667322,-0.0790091068713716
5.8175,-0.160607139538006,-0.0714373496048683
5.835,-0.170638105519793,-0.0635628852596766
5.8525,-0.179578083470472,-0.0531130888022676
5.87,-0.185468362903807,-0.0420754021669935
5.8875,-0.190023846187814,-0.0338601439308878
5.905,-0.197270025612953,-0.0263781878957854
5.9225,-0.206091991178443,-0.0158473700203432
5.94,-0.211397783775136,-0.00146646756412643
5.9575,-0.21260071652802,0.00879604871532704
5.975,-0.219044808697146,0.0173828065354481
5.9925,-0.225827598782806,0.0320655271579522
6.01,-0.227397220363265,0.04872785053453
6.0275,-0.225729517647147,0.0626185610767622
6.045,-0.224514976296859,0.0751214017210283
6.0625,-0.222532605829567,0.0868657431871774
6.08,-0.221539833458794,0.0987749004687963
6.0975,-0.219323547317116,0.111053502124055
6.115,-0.218262189264495,0.123778709413457
6.1325,-0.214091784127825,0.139004094740443
6.15,-0.207887416853508,0.151577493762846
6.1675,-0.20164168852848,0.163720791322836
6.185,-0.195794028712381,0.175373320205477
6.2025,-0.188331350322651,0.189460258531513
6.22,-0.1771363117634,0.201467393521835
6.2375,-0.165642420672203,0.210982009532541
6.255,-0.154766497977575,0.218669275772906
6.2725,-0.144302854799957,0.226479327708342
6.29,-0.134255750950736,0.233056263331913
6.3075,-0.125048579192128,0.242322286931655
6.325,-0.111215163746799,0.252061137343327
6.3425,-0.0951345996548673,0.258363480801787
6.36,-0.0797763573963586,0.260412023062556
6.3775,-0.068422641193211,0.262791451545889
6.395,-0.0551838636033478,0.267860693271489
6.4125,-0.0390872248569966,0.271640676372555
6.43,-0.0209078517518665,0.271358551523866
6.4475,-0.00679808932771783,0.266976733742856
6.465,0.00447417002595817,0.265500163655836
6.4825,0.0180465087461387,0.265503520500461
6.5,0.0337891885217054,0.263257397115988
6.5175,0.0482445668030139,0.258435706330494
6.535,0.0634172849511921,0.253395618784715
6.5525,0.0782658580978551,0.245062742915096
6.57,0.0908246491565904,0.235339845755472
6.5875,0.100740935857648,0.225513548058847
6.605,0.110713482749225,0.218278002036186
6.6225,0.123390816653068,0.20919373529392
6.64,0.134728754530412,0.19660139231265
6.6575,0.142239769742874,0.182652716781274
6.675,0.147355422437175,0.172184801596509
6.6925,0.156264511646379,0.162930866014162
6.71,0.166463476713827,0.148948067857603
6.7275,0.172411004956092,0.131494602987239
6.745,0.174111748619845,0.1159050302207
6.7625,0.175781200519058,0.102247072963197
6.78,0.177136977409852,0.0885313860463089
6.7975,0.177905939401342,0.0746276613795611
6.815,0.177222931810619,0.0609352418198632
6.8325,0.176749547488557,0.0482802421695727
6.85,0.176636614952892,0.0338646594909874
6.8675,0.173330066671962,0.0181293188592466
6.885,0.167765292762863,0.00518531856576952
6.9025,0.164314713741284,-0.00686224694136018
6.92,0.159907558829951,-0.0219707390558151
6.9375,0.151255453239996,-0.0374138125518646
6.955,0.138837388419566,-0.0485543901374855
6.9725,0.1282424164604,-0.0547273379765988
6.99,0.121093829233978,-0.061550811226422
7.0075,0.113286915830724,-0.0704760296142591
7.025,0.10344578505586,-0.0786203216694677
7.0425,0.0945488775612222,-0.0858341207600991
7.06,0.0839276630490219,-0.0948403877901834
7.0775,0.0709305447672322,-0.101108798439255
7.095,0.0585875128660477,-0.106142765576119
7.1125,0.0456687875641339,-0.110036743711934
7.13,0.0323758620862505,-0.113427168378607
7.1475,0.0176610278971373,-0.113804455510685
7.165,0.0059383970058928,-0.111490541152977
7.1825,-0.00322818500307885,-0.109971683250091
7.2,-0.0119817789633512,-0.111063899870834
7.2175,-0.0238145618453441,-0.112447929520105
7.235,-0.0364533687144095,-0.111713302483165
7.2525,-0.0494654622578132,-0.10927348092159
7.27,-0.0616643661706158,-0.10531926327451
7.2875,-0.073863468909152,-0.0995974730614793
7.305,-0.0828291820051235,-0.092713020917451
7.3225,-0.0924750877352059,-0.0881381222586166
7.34,-0.103171183464785,-0.080122875602509
7.3575,-0.110108781537224,-0.0706274965782372
7.375,-0.113980423217135,-0.0634169699541326
7.3925,-0.120047082923409,-0.0610793337696223
7.41,-0.13101803848789,-0.0563415906987168
7.4275,-0.141264354381028,-0.0461572642878337
7.445,-0.146056435963904,-0.0344375823753081
7.4625,-0.149609447240268,-0.0271730597067478
7.48,-0.156472750929991,-0.018899961672114
7.4975,-0.161683376246468,-0.00746988679880649
7.515,-0.163306811845697,0.00390970518061879
7.5325,-0.164223173218218,0.0118555284708245
7.55,-0.16769453156984,0.0206072495926137
7.5675,-0.168864379176679,0.0310884540556073
7.585,-0.168674543966726,0.0392319953255763
7.6025,-0.171127598539736,0.0460973936820889
7.62,-0.175177468035827,0.056993802536796
7.6375,-0.175065395922596,0.0705399618959339
7.655,-0.170898756182672,0.0822159576956468
7.6725,-0.166750482655761,0.0891842144418262
7.69,-0.166642924343832,0.0970125806361602
7.7075,-0.164521141401688,0.107746128850582
7.725,-0.159795486652449,0.117731818766303
7.7425,-0.154017551881015,0.12455601860044
7.76,-0.151532894670011,0.131017522082573
7.7775,-0.147590940292475,0.139609975711005
7.795,-0.143356504119067,0.147014940074515
7.8125,-0.138777977673112,0.155188948708179
7.83,-0.133907167420024,0.164147484490131
7.8475,-0.125511538315767,0.174131439895705
7.865,-0.115000392101222,0.179416714818318
7.8825,-0.107359958152619,0.182082180250682
7.9,-0.102613188825017,0.185937789499729
7.9175,-0.0967720148615164,0.192884224525263
7.935,-0.0878720063827891,0.19950899968896
7.9525,-0.0770083891414035,0.203093157198395
7.97,-0.0696806033556506,0.203840180401411
7.9875,-0.0630547060496356,0.208612401370742
8.005,-0.0534492632530984,0.211950163317593
8.0225,-0.0444918973319963,0.215357322568101
8.04,-0.0322947603838569,0.217377539223166
8.0575,-0.021367382954325,0.215558622501827
8.075,-0.0128547853030794,0.213034382208281
8.0925,-0.00650855170813494,0.211630940981187
8.11,0.000599809499611113,0.212871074280258
8.1275,0.0112377211374547,0.213851909034494
8.145,0.0226067370119109,0.210648628191409
8.1625,0.0311867091748925,0.206321627860173
8.18,0.039033667866997,0.202242177569539
8.1975,0.0463833326431831,0.199224232312219
8.215,0.0562368755137723,0.195314067414569
8.2325,0.0645964014495329,0.188304173636672
8.25,0.0712918013995975,0.181223078880957
8.2675,0.076529793945122,0.173710555984193
8.285,0.080818744208197,0.167121688956677
8.3025,0.0848642182528252,0.16205793253133
8.32,0.0920546076495101,0.1572431744027
8.3375,0.0993633450137186,0.147916270613882
8.355,0.103120376378335,0.137643642426257
8.3725,0.10540932536092,0.128409094952812
8.39,0.107595242522987,0.119745357468229
8.4075,0.109443647617831,0.110098251707694
8.425,0.10911667282263,0.10013583459656
8.4425,0.107354584866399,0.0923526470747089
8.46,0.10778146343731,0.085555305349438
8.4775,0.107616991210534,0.0760604604492222
8.495,0.105269628979076,0.0676302942580666
8.5125,0.103028708393389,0.0598004308620646
8.53,0.101443857342922,0.0523388586537402
8.5475,0.099501612747163,0.0414115253952136
8.565,0.0916222626903961,0.0312801491250779
8.5825,0.0838433546744908,0.0262546883701863
8.6,0.0787817172061182,0.0217522072350525
8.6175,0.0736815507868371,0.0150809319490484
8.635,0.0656149657982602,0.00933474817794631
8.6525,0.0583974814418316,0.00614535106642771
8.67,0.0527895722474071,0.00247810981330303
8.6875,0.0459669739036478,-0.00361162752132415
8.705,0.0352422245470111,-0.00689044583577421
8.7225,0.0266603458899694,-0.00793375227260672
8.74,0.0177364671719035,-0.00940975770746444
8.7575,0.00862429423865332,-0.010711816425287
8.775,-0.00331115633554118,-0.0101746578352467
8.7925,-0.0122943396294701,-0.00521087199528319
8.81,-0.018411647379514,-0.00249960454959727
8.8275,-0.0256228129667873,-0.00106319282956142
8.845,-0.0349660519224032,0.000954736506834494
8.8625,-0.0440830011851449,0.00644379482019053
8.88,-0.0503067178719567,0.0119867007411194
8.8975,-0.057150697728229,0.015855632894442
8.915,-0.0658446063231093,0.021489419471068
8.9325,-0.0731890563106565,0.0293334695492138
8.95,-0.0798571168042445,0.0380999076446354
8.9675,-0.0840018616612438,0.0482831322388563
8.985,-0.0868181152209091,0.0569004220019962
9.0025,-0.0890167673690628,0.0656813718796538
9.02,-0.0911929906615603,0.0726894734334579
9.0375,-0.09515893772613,0.0812949392170958
9.055,-0.0975754017608753,0.0917104447596286
9.0725,-0.0980817511684466,0.102745001120882
9.09,-0.0969384967861052,0.112135558590121
9.1075,-0.0974377245672837,0.121340323179692
9.125,-0.0969773821054824,0.133140340317632
9.1425,-0.0929212373733455,0.144635968046345
9.16,-0.0882562234188088,0.153993350790844
9.1775,-0.0829323414359476,0.164127992679752
9.195,-0.0754122697836929,0.171601141321963
9.2125,-0.070277925706197,0.177651252404453
9.23,-0.0655761597624098,0.184538064676595
9.2475,-0.0612494702671708,0.193318188698431
9.265,-0.0530801572269223,0.202901639681119
9.2825,-0.0441513852685482,0.210048976323372
9.3,-0.0338637429216911,0.216575473901817
9.3175,-0.0244738727696704,0.220348993739499
9.335,-0.015618719727404,0.225894954417522
9.3525,-0.00440913170659628,0.230039474344461
9.37,0.00621778503690107,0.232603574576573
9.3875,0.0169011544865427,0.234452447373342
9.405,0.0273423584367782,0.235272337124011
9.4225,0.0368090434637726,0.235581134507597
9.44,0.0462126368695613,0.236726555605697
9.4575,0.056602842252874,0.238246230060729
9.475,0.0699301318201599,0.239047057244014
9.4925,0.0834687416554206,0.234913407499171
9.51,0.0936840001675132,0.229723545010766
9.5275,0.102269871355099,0.224751823965259
9.545,0.110804624039481,0.222439975073008
9.5625,0.123242960644016,0.217798334711611
9.58,0.131897729398188,0.209486913789994
9.5975,0.138699589494003,0.20328548292814
9.615,0.146341896315562,0.197381242314498
9.6325,0.154191412424873,0.190735072390844
9.65,0.162030465637937,0.183658453369966
9.6675,0.170400003935214,0.175026875012389
9.685,0.177383266693082,0.164444561846686
9.7025,0.182267747045211,0.152760285164316
9.72,0.18433921378967,0.142143162847475
9.7375,0.186798937863401,0.133348892125267
9.755,0.189603743426508,0.124402199380863
9.7725,0.193207025183076,0.11459204313635
9.79,0.194772644236484,0.102914672366201
9.8075,0.194979962286181,0.0926056721311244
9.825,0.195080747038853,0.0823770251799727
9.8425,0.195867451638953,0.0718308348422821
9.86,0.194665963797278,0.0581995249979164
9.8775,0.189511499150753,0.0465237883199625
9.895,0.184553688391397,0.0367605429490346
9.9125,0.179385021305748,0.0273864963356217
9.93,0.173406597167159,0.0180720074826966
9.9475,0.166595595058583,0.00997377554171163
9.965,0.159907355677842,0.00239983220129542
9.9825,0.153521073168553,-0.0052570737512786
10,0.145212394765836,-0.0146949295928527
