"Freq [GHz]","re(S(Antenna1_1_1,Antenna1_1_1)) []","im(S(Antenna1_1_1,Antenna1_1_1)) []"
3,-0.194455963821393,-0.163873508077326
3.0175,-0.199596157396113,-0.153165485664694
3.035,-0.211714210658577,-0.141017520798135
3.0525,-0.220726025269828,-0.122469545749154
3.07,-0.226337377516973,-0.103919178566774
3.0875,-0.228946144868416,-0.0837250051553111
3.105,-0.226581468702493,-0.0654887135991729
3.1225,-0.223368911752642,-0.0515143414279398
3.14,-0.222832534418517,-0.0396185745778418
3.1575,-0.224402485839442,-0.02329937041033
3.175,-0.217463522043947,-0.0052098804253757
3.1925,-0.211390338389567,0.002299551673697
3.21,-0.214329205808643,0.0157160288968935
3.2275,-0.209045994312898,0.035072318391907
3.245,-0.201082543379488,0.0502174011915647
3.2625,-0.191105814741122,0.0661767008124738
3.28,-0.178112059517695,0.0782542406784707
3.2975,-0.166015056335446,0.0889660425480073
3.315,-0.152112420739238,0.0975663980917836
3.3325,-0.140057442313174,0.105289504494347
3.35,-0.12409683872953,0.112455538620248
3.3675,-0.110630902555088,0.113729927006012
3.385,-0.0994035410515257,0.117738425093613
3.4025,-0.0874143066976052,0.119825114689757
3.42,-0.0772512081671445,0.125060041394361
3.4375,-0.0608222575520872,0.130182993058451
3.455,-0.0441418958820284,0.130057182118013
3.4725,-0.029114048219579,0.129205399181226
3.49,-0.0126584781277215,0.128248444386546
3.5075,0.0065595794345487,0.123532892326848
3.525,0.0237607405710739,0.111870336162772
3.5425,0.0332023188261429,0.0985142786491344
3.56,0.0405447002092276,0.0898031643166442
3.5775,0.0484445544369105,0.0809408871092556
3.595,0.0566193580949724,0.0743044387115434
3.6125,0.067790894209613,0.0635704845835833
3.63,0.0728984123762797,0.051659464080455
3.6475,0.0800544981734567,0.0435220762121825
3.665,0.0890048147733196,0.0327647480372499
3.6825,0.100535062838876,0.0182689759402759
3.7,0.105618092441931,-0.00483297365604572
3.7175,0.101922537197053,-0.0222356169373002
3.735,0.100644301361726,-0.0372098677961986
3.7525,0.0960996371019017,-0.0523688322744919
3.77,0.09256484230663,-0.0644704360129587
3.7875,0.0884611531911248,-0.0798841300085199
3.805,0.0784496244960687,-0.0924173560682459
3.8225,0.0716538346280634,-0.098558708454711
3.84,0.0706437836503762,-0.107611948456784
3.8575,0.0680986019681956,-0.123777974351082
3.875,0.0560324697053063,-0.14083710710363
3.8925,0.0421250957570333,-0.1487530427413
3.91,0.0339097018462703,-0.159352927977277
3.9275,0.0179476877907426,-0.172710487585269
3.945,-0.000327357472689201,-0.178161410408373
3.9625,-0.0157403278490443,-0.181428002074447
3.98,-0.030267959974502,-0.18355942892705
3.9975,-0.0443140527705682,-0.185510670898147
4.015,-0.0581403858361807,-0.186166163595408
4.0325,-0.072133794933359,-0.187547668167456
4.05,-0.0877281930365466,-0.184990965318086
4.0675,-0.0969601569281226,-0.182370110712049
4.085,-0.110027121148618,-0.186136310020608
4.1025,-0.128359953644541,-0.184609543845202
4.12,-0.144906375167759,-0.179984199389821
4.1375,-0.162075939035726,-0.172899661340431
4.155,-0.176446374022065,-0.161822573989412
4.1725,-0.186682484189562,-0.151559528046485
4.19,-0.197314155791005,-0.14325977127546
4.2075,-0.209601445313315,-0.133619301162789
4.225,-0.220747046293167,-0.119728127490547
4.2425,-0.22570814154538,-0.105815021574886
4.26,-0.23047556179987,-0.0970011616517502
4.2775,-0.237769022152481,-0.088209863472592
4.295,-0.247031513297024,-0.0792748031950934
4.3125,-0.258430711516881,-0.0650973340870176
4.33,-0.263284571738705,-0.0473950494609655
4.3475,-0.265944627755056,-0.032616427498722
4.365,-0.268559637693581,-0.0174646909920522
4.3825,-0.27016756805843,-0.00181700317799181
4.4,-0.269165217630727,0.0151578199906782
4.4175,-0.265118788271044,0.0293209164476563
4.435,-0.262014756670116,0.0421291033153901
4.4525,-0.257676813583435,0.0541619082199779
4.47,-0.254678753718239,0.0650008774676535
4.4875,-0.250993125788615,0.0768726399818658
4.505,-0.247955964038207,0.0873135476591633
4.5225,-0.245528349769515,0.101123454735054
4.54,-0.239150883484458,0.115054470847831
4.5575,-0.232409896818841,0.128739872582871
4.575,-0.220855875701566,0.14236862977168
4.5925,-0.209124918156067,0.149611451286228
4.61,-0.201108589032411,0.158337894297137
4.6275,-0.189320015494317,0.167561890034902
4.645,-0.177903841959872,0.173495112583599
4.6625,-0.166301283001147,0.179040603179165
4.68,-0.155858959547064,0.181378848502152
4.6975,-0.149140452492744,0.185187076022509
4.715,-0.142032443079839,0.192361431057753
4.7325,-0.130872757587118,0.202774319626432
4.75,-0.112363878681468,0.207987144148609
4.7675,-0.0999610660064555,0.206048185776893
4.785,-0.089789843234277,0.208878332941552
4.8025,-0.0759897578711192,0.209768365703443
4.82,-0.0641325340322895,0.208554329406483
4.8375,-0.0521372834805009,0.20729752760325
4.855,-0.0404870283970797,0.203894523189508
4.8725,-0.0316240703881133,0.199604282731945
4.89,-0.0243894798441593,0.197898456585687
4.9075,-0.0144079459607405,0.19793647882614
4.925,-0.0025734251849066,0.195212379823167
4.9425,0.00782361004363012,0.191382507900452
4.96,0.0193507811372632,0.187192162757209
4.9775,0.0300550185320577,0.180135077517144
4.995,0.0389786158988626,0.173309494865487
5.0125,0.0482240019381308,0.165644791742735
5.03,0.0558635977859055,0.156720030834859
5.0475,0.0618019849873528,0.147818495199657
5.065,0.0664936954425996,0.140489343412011
5.0825,0.0733066569637459,0.133910399981224
5.1,0.0799187755976856,0.124292804955745
5.1175,0.0839603220351929,0.115116933886713
5.135,0.0885254155651779,0.106783389112038
5.1525,0.0932075769343382,0.0979789026368158
5.17,0.0988441409483881,0.0878844446478518
5.1875,0.101981733693443,0.0744850996778456
5.205,0.101127045419554,0.063226571607402
5.2225,0.101442731178425,0.0541912404396642
5.24,0.102377220119479,0.0442997038721276
5.2575,0.102721798311232,0.033013786184998
5.275,0.0998770691335632,0.0214488565146234
5.2925,0.0963338445305072,0.0135214207962887
5.31,0.0957257951888538,0.00555073831386511
5.3275,0.0946794246045827,-0.00493789248437303
5.345,0.0914933311674454,-0.0162811808204889
5.3625,0.0859023705004344,-0.0267139431870674
5.38,0.0801859093030566,-0.0349909284823153
5.3975,0.075124679859197,-0.04372475784898
5.415,0.0687830270887697,-0.0525358827347799
5.4325,0.0615297658425566,-0.0611899397221256
5.45,0.0523735285009112,-0.0682451255544465
5.4675,0.0446913765186184,-0.0730959405301214
5.485,0.0377209481039024,-0.0794577904126569
5.5025,0.0289776445781373,-0.0856309194420727
5.52,0.0199968718762837,-0.0906919895562703
5.5375,0.0107749878216005,-0.0954183305623017
5.555,0.00120278241445612,-0.0995724217308556
5.5725,-0.00861518959249108,-0.103570999685936
5.59,-0.0197416261263677,-0.107573157498778
5.6075,-0.0332638870726019,-0.109343101078661
5.625,-0.044883750307742,-0.106184045661896
5.6425,-0.0512373485656086,-0.105402046018251
5.66,-0.0608072348128226,-0.109317193493048
5.6775,-0.0748864276547964,-0.110314199738108
5.695,-0.0885755716526867,-0.106722319017082
5.7125,-0.0982216080958132,-0.101603042891782
5.73,-0.107377957408,-0.0997502569360912
5.7475,-0.119381241841565,-0.0965261253028344
5.765,-0.130458472225691,-0.0914605728852316
5.7825,-0.142108873716146,-0.0851933034003394
5.8,-0.151439615856322,-0.0762727756833716
5.8175,-0.158526267013006,-0.0691958967868683
5.835,-0.166555502936793,-0.0627409535376766
5.8525,-0.175407141139472,-0.0565477222672676
5.87,-0.186410116696807,-0.0476749973749935
5.8875,-0.194163820867814,-0.0354525202678878
5.905,-0.199842222815953,-0.0250508614757854
5.9225,-0.206121162000443,-0.0142344096603432
5.94,-0.211577736256936,-0.00298197725512643
5.9575,-0.21730961994802,0.00972810877532704
5.975,-0.219448060859146,0.0241230312964481
5.9925,-0.220171259913706,0.0349897741559522
6.01,-0.223041184719265,0.04677085183953
6.0275,-0.223833492697147,0.0594359649157622
6.045,-0.224860537273859,0.0718479444230283
6.0625,-0.223793865631567,0.0851768407461774
6.08,-0.222903675341794,0.0965504898077963
6.0975,-0.223253106576116,0.110453585460055
6.115,-0.220717984594495,0.126121045715457
6.1325,-0.215080495877825,0.141843251337443
6.15,-0.206237865516508,0.154569073928846
6.1675,-0.19951351988348,0.163745682877836
6.185,-0.195186386122381,0.175622844865477
6.2025,-0.186720127892651,0.190106098396513
6.22,-0.1745397509114,0.200778031382835
6.2375,-0.163868442764203,0.207942858783541
6.255,-0.155697656632575,0.214660278088706
6.2725,-0.148930004744957,0.224149814254342
6.29,-0.138477448195736,0.236449279048913
6.3075,-0.123702483382128,0.246060580295655
6.325,-0.109034080000799,0.251862841823327
6.3425,-0.0959288581418673,0.256937564001787
6.36,-0.0818669582973586,0.262497685407556
6.3775,-0.0662453611682109,0.266130619936889
6.395,-0.0512462467663478,0.267393929161489
6.4125,-0.0374942770339966,0.268375654512555
6.43,-0.0225528488447665,0.269201578683866
6.4475,-0.00787929557071783,0.267160167392856
6.465,0.00446632332325817,0.265362073575836
6.4825,0.0177822373223387,0.264498985500461
6.5,0.0320924238487054,0.262835468035988
6.5175,0.0474890809890139,0.259115851650494
6.535,0.0622168052911922,0.253541112924715
6.5525,0.0771386755628551,0.246926345025096
6.57,0.0912590957865904,0.237409292574472
6.5875,0.102391130606648,0.227326247413847
6.605,0.113539048931225,0.218363999629186
6.6225,0.125129335833068,0.20737224739992
6.64,0.134690600570412,0.19493331073865
6.6575,0.142557981692874,0.182124630992674
6.675,0.148380178583175,0.169796668833489
6.6925,0.153991099076379,0.159220100033162
6.71,0.161117518980827,0.148516246396003
6.7275,0.168716265866092,0.135820448551539
6.745,0.175269893309845,0.1206935693587
6.7625,0.178601559329058,0.103910499360197
6.78,0.178726664712852,0.0889123241793089
6.7975,0.179762412464342,0.0761646227895611
6.815,0.182167083937619,0.0609353168698632
6.8325,0.180700889668557,0.0429506717595727
6.85,0.174694028972892,0.0272161880109874
6.8675,0.167924397701662,0.0155628389692466
6.885,0.163408804996863,0.00595473660576952
6.9025,0.160812696157284,-0.00508958027136018
6.92,0.156731117037951,-0.0184772284058151
6.9375,0.150143716942896,-0.0310914732918646
6.955,0.143258240627566,-0.0423607318874855
6.9725,0.1356509505114,-0.0536847221765988
6.99,0.126612979027978,-0.065417498526422
7.0075,0.114903793992724,-0.0756909691582591
7.025,0.10284373140086,-0.0834737046634677
7.0425,0.0911302175852222,-0.089822335810099
7.06,0.0795493162440219,-0.0962969156771834
7.0775,0.0653248958672321,-0.100937631371255
7.095,0.0533589219260477,-0.100899624209119
7.1125,0.0459798146041339,-0.102451162554934
7.13,0.0374639465702505,-0.108106962253607
7.1475,0.0248348965371374,-0.113327992734921
7.165,0.0110415518058928,-0.115569546911977
7.1825,-0.00216865538307885,-0.115407685925091
7.2,-0.0134647406523512,-0.115132436242834
7.2175,-0.0266374924443441,-0.115606538477105
7.235,-0.0408130429244095,-0.113117923733165
7.2525,-0.0545836392588132,-0.10818605291059
7.27,-0.0653645248566158,-0.09998666484751
7.2875,-0.072049084912152,-0.0938392007114793
7.305,-0.0794530969991235,-0.090080293847451
7.3225,-0.0882137335953059,-0.0867492169586166
7.34,-0.0984097152772853,-0.081745488142509
7.3575,-0.107048711472224,-0.0749435442582372
7.375,-0.114719454307135,-0.0692890785541326
7.3925,-0.124582055189409,-0.0638848861896223
7.41,-0.13445779569489,-0.0552618094877168
7.4275,-0.142241505939028,-0.0452238763778337
7.445,-0.148430238670904,-0.0346129592153081
7.4625,-0.152985550373268,-0.0236307658767478
7.48,-0.154865794760991,-0.013026991943114
7.4975,-0.155981523086468,-0.00585061719880649
7.515,-0.160035673495697,0.00082206164861879
7.5325,-0.164282729078218,0.0097936215168245
7.55,-0.16693184829984,0.0194879244126137
7.5675,-0.168570397446679,0.0281358819903073
7.585,-0.171953889896726,0.0364189924744763
7.6025,-0.175190237799736,0.0481808967320889
7.62,-0.174599991450827,0.060148422618796
7.6375,-0.173570253135596,0.0705738841479338
7.655,-0.171537899422672,0.0811940103076468
7.6725,-0.168872349225761,0.0907920365968262
7.69,-0.165379406393832,0.10066108379216
7.7075,-0.160225976847688,0.108481005723582
7.725,-0.156963195416449,0.114261308713303
7.7425,-0.155453829798015,0.12123855497044
7.76,-0.153799294613011,0.130265369932573
7.7775,-0.149378119276475,0.140758386961005
7.795,-0.142525785491067,0.148358185544515
7.8125,-0.138146448498172,0.154453853398179
7.83,-0.133794542018024,0.163093188030131
7.8475,-0.127704117541767,0.172426098282705
7.865,-0.118274571991722,0.181606971906318
7.8825,-0.107193525631219,0.185984579012682
7.9,-0.0996896848790172,0.188419892649729
7.9175,-0.0931618009635164,0.192420716645263
7.935,-0.0858928076177891,0.19692056588096
7.9525,-0.0776021532794035,0.200707771258395
7.97,-0.0700976786256506,0.203101354021411
7.9875,-0.0636300940796356,0.206785685428742
8.005,-0.0553526900830984,0.211417578071593
8.0225,-0.0454617443319963,0.215046073493101
8.04,-0.0345872670838569,0.216747196219956
8.0575,-0.025152482244325,0.216952790799427
8.075,-0.0152904682730794,0.218968362434281
8.0925,-0.00194328068313494,0.218379208386187
8.11,0.00920668735261111,0.212919950358258
8.1275,0.0158656871624547,0.207156540367994
8.145,0.0202901428119109,0.204865303426409
8.1625,0.0280369384138925,0.204944702377173
8.18,0.037284244763997,0.201845352748539
8.1975,0.0448766703081831,0.198337508472219
8.215,0.0530073351777723,0.194595848204569
8.2325,0.0605904070425329,0.190378725846672
8.25,0.0689229812505975,0.185898300610957
8.2675,0.077207371610122,0.180044612315193
8.285,0.087069487408197,0.172955570216677
8.3025,0.0950540862608252,0.16009872000133
8.32,0.0954532645722101,0.1482415856617
8.3375,0.0961369276643186,0.141920538260882
8.355,0.0988521713941348,0.135098277816257
8.3725,0.10141419225592,0.128407664642812
8.39,0.104399372504987,0.120464782520229
8.4075,0.105777031387831,0.112791544132694
8.425,0.10814434843563,0.10516853932056
8.4425,0.109641289767399,0.0967016191877089
8.46,0.11187692179431,0.087663833400438
8.4775,0.111995022580534,0.0758495981632222
8.495,0.109218476489076,0.0652015667800666
8.5125,0.105441829853389,0.0549349481623646
8.53,0.0995088061529218,0.0460658807837402
8.5475,0.093627859891163,0.0390267587022136
8.565,0.0867241417573961,0.0328094802550779
8.5825,0.0808150075934908,0.0302370098045863
8.6,0.0792651574091182,0.0259997021077525
8.6175,0.0757197780868371,0.0179369362570484
8.635,0.0690508476432602,0.0100597658619463
8.6525,0.0597899437548316,0.00491479943542771
8.67,0.0537023819844071,0.00272145754230303
8.6875,0.0483116195096478,-0.00376181257132415
8.705,0.0383158548460111,-0.00953154792577421
8.7225,0.0264310574489694,-0.0136381428826067
8.74,0.0120655961719035,-0.0128479852074644
8.7575,0.00310519759365332,-0.00724449383328701
8.775,-0.00230074198384118,-0.00563734147424666
8.7925,-0.0103184626794701,-0.00513152608428319
8.81,-0.018950923857514,-0.00311307934659727
8.8275,-0.0271829963617873,0.000744677525438575
8.845,-0.0328527477424032,0.00433224038783449
8.8625,-0.0401609708171449,0.00563829466219053
8.88,-0.0493173892459567,0.00945798214611938
8.8975,-0.057535609634229,0.014401015794442
8.915,-0.0659903574291093,0.020719095307068
8.9325,-0.0733208809406565,0.0279788256862138
8.95,-0.0809959490642445,0.0365802179336354
8.9675,-0.0863230194912438,0.0473114286488563
8.985,-0.0900954391109091,0.0578725534553962
9.0025,-0.0908073584540628,0.0694743696100538
9.02,-0.0892093873295603,0.0763133048376579
9.0375,-0.09237403004913,0.0820750513929258
9.055,-0.0952819615898753,0.0916976501076286
9.0725,-0.0960263798034466,0.101473789011882
9.09,-0.0955796850901052,0.110666169216121
9.1075,-0.0962167619852837,0.118394615269692
9.125,-0.0985023223154824,0.129576105256632
9.1425,-0.0962286095973455,0.142689444036345
9.16,-0.0923326081948088,0.154693597490844
9.1775,-0.0851249837099476,0.166771821069752
9.195,-0.0766107936936929,0.174650762201963
9.2125,-0.069208791546897,0.181687447585453
9.23,-0.0621224286384098,0.186653632679595
9.2475,-0.0577695451134708,0.193287712510431
9.265,-0.0496274610599223,0.201603907653119
9.2825,-0.0411782839767482,0.205717435372372
9.3,-0.0358333247416911,0.210746899425817
9.3175,-0.0294460471891704,0.218535617192499
9.335,-0.019644241153004,0.227298310515522
9.3525,-0.00609796862759628,0.232920797223461
9.37,0.00575628914090107,0.234472019147573
9.3875,0.0162617702575427,0.237146796621342
9.405,0.0287538765427782,0.238664859114011
9.4225,0.0405333661577726,0.238074506687597
9.44,0.0518156278145613,0.235899163070697
9.4575,0.060061223924874,0.233152898169729
9.475,0.0687374308951599,0.233110680405014
9.4925,0.0788033475554206,0.231798972170171
9.51,0.0890759398505132,0.230506754184766
9.5275,0.0999316153270993,0.227091705394259
9.545,0.109169994419481,0.224546585367008
9.5625,0.122218337144016,0.221603656308311
9.58,0.134015697508188,0.213479256767994
9.5975,0.142862599765003,0.20495229884314
9.615,0.150335357679562,0.195988165061498
9.6325,0.156289301765873,0.188057096572844
9.65,0.163139444517937,0.180118362036966
9.6675,0.168692240562214,0.171037771311389
9.685,0.173913423210082,0.162385303663686
9.7025,0.177514874828211,0.152705268964316
9.72,0.18040017504127,0.146271300040475
9.7375,0.187498372934401,0.138861947215267
9.755,0.193542936969508,0.127098465087863
9.7725,0.196728557851276,0.11390566160335
9.79,0.196262457919484,0.101258581980201
9.8075,0.195908316297181,0.0918661997181244
9.825,0.197186402403853,0.0803023152959727
9.8425,0.194857353171953,0.0676724227882821
9.86,0.191372286987278,0.0569033815349164
9.8775,0.186681353119753,0.0467947285669625
9.895,0.182379167811397,0.0388007839060346
9.9125,0.178743879875748,0.0294498045686217
9.93,0.173137265327159,0.0209607337066966
9.9475,0.169228819288583,0.0128236731443116
9.965,0.163671281093842,0.00224328123829543
9.9825,0.155706348195553,-0.0077278653512786
10,0.145115028017836,-0.0170590088988527
