"Freq [GHz]","re(S(Tx_p1,Tx_p1)) []","im(S(Tx_p1,Tx_p1)) []"
1,0.1759176879,-0.5806810842
1.01,0.1593140691,-0.5854597478
1.02,0.1424563324,-0.5897915138
1.03,0.1253604776,-0.5936602245
1.04,0.1080432106,-0.5970506087
1.05,0.09052189968,-0.5999482931
1.06,0.07281453318,-0.6023398122
1.07,0.05493967669,-0.6042126181
1.08,0.03691643122,-0.6055550895
1.09,0.01876439147,-0.6063565386
1.1,0.000503604574,-0.6066072182
1.11,-0.01784547087,-0.6062983275
1.12,-0.03626200542,-0.6054220163
1.13,-0.05472483908,-0.603971389
1.14,-0.07321252117,-0.6019405077
1.15,-0.09170335,-0.5993243928
1.16,-0.110175412,-0.596119025
1.17,-0.1286066207,-0.5923213436
1.18,-0.1469747553,-0.5879292462
1.19,-0.1652574985,-0.5829415856
1.2,-0.1834324748,-0.5773581667
1.21,-0.2014772871,-0.5711797417
1.22,-0.2193695545,-0.5644080047
1.23,-0.2370869482,-0.5570455854
1.24,-0.2546072277,-0.549096041
1.25,-0.2719082764,-0.540563848
1.26,-0.2889681367,-0.5314543924
1.27,-0.3057650448,-0.5217739589
1.28,-0.3222774642,-0.5115297194
1.29,-0.3384841197,-0.5007297204
1.3,-0.3543640301,-0.4893828691
1.31,-0.3698965405,-0.4774989187
1.32,-0.3850613539,-0.4650884531
1.33,-0.3998385625,-0.4521628698
1.34,-0.4142086777,-0.4387343629
1.35,-0.42815266,-0.4248159042
1.36,-0.4416519477,-0.4104212236
1.37,-0.454688485,-0.3955647894
1.38,-0.4672447496,-0.3802617866
1.39,-0.479303779,-0.3645280949
1.4,-0.4908491962,-0.3483802659
1.41,-0.5018652346,-0.3318354991
1.42,-0.5123367619,-0.3149116176
1.43,-0.522249303,-0.2976270428
1.44,-0.531589062,-0.2800007678
1.45,-0.5403429435,-0.2620523312
1.46,-0.5484985725,-0.2438017893
1.47,-0.5560443134,-0.2252696881
1.48,-0.5629692879,-0.2064770341
1.49,-0.5692633922,-0.1874452656
1.5,-0.5749173124,-0.1681962221
1.51,-0.5799225397,-0.148752114
1.52,-0.5842713835,-0.1291354919
1.53,-0.5879569838,-0.1093692149
1.54,-0.590973323,-0.0894764187
1.55,-0.593315235,-0.06948048377
1.56,-0.594978415,-0.04940500245
1.57,-0.5959594262,-0.02927374632
1.58,-0.5962557069,-0.009110633068
1.59,-0.5958655751,0.01106030673
1.6,-0.5947882328,0.03121496303
1.61,-0.5930237683,0.05132917986
1.62,-0.5905731577,0.07137878885
1.63,-0.5874382649,0.09133964287
1.64,-0.5836218405,0.1111876496
1.65,-0.5791275194,0.1308988048
1.66,-0.573959817,0.1504492261
1.67,-0.5681241242,0.1698151856
1.68,-0.5616267013,0.1889731434
1.69,-0.5544746704,0.2078997796
1.7,-0.5466760069,0.2265720274
1.71,-0.5382395295,0.2449671043
1.72,-0.5291748888,0.2630625444
1.73,-0.5194925554,0.2808362288
1.74,-0.5092038063,0.2982664168
1.75,-0.4983207102,0.3153317755
1.76,-0.4868561116,0.3320114094
1.77,-0.4748236143,0.3482848892
1.78,-0.4622375632,0.3641322799
1.79,-0.4491130254,0.3795341681
1.8,-0.4354657703,0.3944716889
1.81,-0.4213122484,0.4089265513
1.82,-0.4066695694,0.4228810635
1.83,-0.3915554797,0.4363181568
1.84,-0.3759883383,0.4492214088
1.85,-0.3599870921,0.461575066
1.86,-0.3435712512,0.4733640644
1.87,-0.326760862,0.4845740505
1.88,-0.3095764807,0.4951914
1.89,-0.2920391459,0.5052032359
1.9,-0.2741703499,0.5145974464
1.91,-0.2559920106,0.5233626998
1.92,-0.2375264417,0.5314884602
1.93,-0.2187963231,0.5389650008
1.94,-0.1998246705,0.5457834167
1.95,-0.1806348047,0.551935636
1.96,-0.161250321,0.5574144304
1.97,-0.141695057,0.5622134239
1.98,-0.1219930619,0.566327101
1.99,-0.1021685641,0.5697508128
2,-0.0822459391,0.5724807828
2.01,-0.0622496779,0.5745141111
2.02,-0.04220435434,0.5758487772
2.03,-0.02213459299,0.5764836418
2.04,-0.002065036969,0.5764184475
2.05,0.01797968427,0.5756538182
2.06,0.03797498697,0.5741912572
2.07,0.05789636497,0.5720331441
2.08,0.07771942142,0.5691827308
2.09,0.09741990024,0.5656441362
2.1,0.1169737173,0.5614223395
2.11,0.1363569913,0.5565231729
2.12,0.1555460742,0.5509533127
2.13,0.1745175814,0.5447202697
2.14,0.1932484213,0.5378323779
2.15,0.2117158246,0.5302987831
2.16,0.2298973728,0.5221294299
2.17,0.2477710263,0.5133350472
2.18,0.2653151521,0.503927134
2.19,0.2825085505,0.4939179432
2.2,0.2993304815,0.4833204646
2.21,0.3157606903,0.4721484078
2.22,0.3317794321,0.4604161829
2.23,0.3473674965,0.4481388818
2.24,0.3625062304,0.4353322574
2.25,0.3771775611,0.4220127033
2.26,0.3913640178,0.4081972312
2.27,0.4050487524,0.3939034495
2.28,0.4182155602,0.3791495392
2.29,0.4308488982,0.3639542309
2.3,0.4429339043,0.34833678
2.31,0.4544564143,0.3323169418
2.32,0.4654029785,0.3159149462
2.33,0.475760877,0.2991514714
2.34,0.485518135,0.2820476179
2.35,0.4946635357,0.2646248808
2.36,0.5031866334,0.2469051232
2.37,0.511077765,0.228910548
2.38,0.5183280612,0.2106636702
2.39,0.5249294553,0.1921872882
2.4,0.5308746929,0.1735044553
2.41,0.5361573389,0.1546384509
2.42,0.5407717844,0.1356127515
2.43,0.5447132525,0.116451001
2.44,0.5479778029,0.09717698194
2.45,0.5505623352,0.0778145856
2.46,0.552464592,0.05838778256
2.47,0.5536831601,0.03892059314
2.48,0.5542174714,0.01943705781
2.49,0.5540678021,-3.879236495E-05
2.5,0.5532352713,-0.0194829652
2.51,0.5517218389,-0.0388715368
2.52,0.5495303018,-0.05818068079
2.53,0.5466642893,-0.07738669741
2.54,0.543128258,-0.09646604243
2.55,0.5389274851,-0.1153953558
2.56,0.5340680611,-0.1341514901
2.57,0.5285568815,-0.1527115385
2.58,0.5224016372,-0.1710528629
2.59,0.5156108046,-0.189153121
2.6,0.508193634,-0.2069902937
2.61,0.5001601379,-0.2245427115
2.62,0.4915210777,-0.2417890808
2.63,0.4822879498,-0.2587085098
2.64,0.4724729711,-0.2752805335
2.65,0.4620890629,-0.2914851386
2.66,0.451149835,-0.3073027878
2.67,0.439669568,-0.3227144429
2.68,0.4276631953,-0.3377015882
2.69,0.4151462845,-0.3522462529
2.7,0.4021350171,-0.3663310325
2.71,0.3886461692,-0.3799391099
2.72,0.3746970892,-0.3930542755
2.73,0.360305677,-0.4056609474
2.74,0.3454903612,-0.4177441892
2.75,0.3302700758,-0.4292897288
2.76,0.3146642368,-0.4402839752
2.77,0.2986927179,-0.450714035
2.78,0.2823758254,-0.4605677279
2.79,0.2657342731,-0.4698336012
2.8,0.2487891561,-0.4785009436
2.81,0.2315619247,-0.4865597984
2.82,0.2140743574,-0.4940009748
2.83,0.1963485339,-0.5008160594
2.84,0.1784068071,-0.5069974259
2.85,0.1602717756,-0.5125382444
2.86,0.1419662548,-0.5174324893
2.87,0.1235132492,-0.5216749462
2.88,0.1049359227,-0.5252612183
2.89,0.08625757023,-0.5281877314
2.9,0.06750158833,-0.5304517377
2.91,0.04869144574,-0.5320513186
2.92,0.02985065406,-0.5329853873
2.93,0.01100273829,-0.533253689
2.94,-0.007828792776,-0.5328568011
2.95,-0.026620476,-0.5317961318
2.96,-0.0453489234,-0.5300739182
2.97,-0.0639908515,-0.5276932222
2.98,-0.08252311057,-0.5246579269
2.99,-0.1009227137,-0.5209727309
3,-0.1191668659,-0.5166431417
3.01,-0.1372329922,-0.5116754682
3.02,-0.1550987667,-0.5060768124
3.03,-0.1727421401,-0.4998550598
3.04,-0.1901413675,-0.4930188685
3.05,-0.2072750359,-0.485577658
3.06,-0.2241220909,-0.4775415967
3.07,-0.2406618632,-0.468921588
3.08,-0.2568740941,-0.4597292564
3.09,-0.2727389615,-0.4499769317
3.1,-0.2882371043,-0.4396776327
3.11,-0.3033496465,-0.4288450505
3.12,-0.3180582212,-0.4174935298
3.13,-0.3323449927,-0.4056380505
3.14,-0.3461926796,-0.393294208
3.15,-0.3595845753,-0.3804781921
3.16,-0.3725045696,-0.3672067668
3.17,-0.3849371675,-0.3534972472
3.18,-0.3968675095,-0.3393674776
3.19,-0.4082813885,-0.3248358078
3.2,-0.4191652683,-0.3099210691
3.21,-0.4295062993,-0.29464255
3.22,-0.4392923343,-0.2790199705
3.23,-0.4485119431,-0.2630734568
3.24,-0.457154426,-0.246823515
3.25,-0.4652098267,-0.2302910044
3.26,-0.4726689438,-0.2134971103
3.27,-0.4795233415,-0.1964633167
3.28,-0.4857653595,-0.1792113782
3.29,-0.4913881211,-0.1617632922
3.3,-0.4963855412,-0.1441412702
3.31,-0.500752333,-0.1263677091
3.32,-0.504484013,-0.1084651626
3.33,-0.5075769059,-0.09045631203
3.34,-0.5100281474,-0.07236393727
3.35,-0.5118356874,-0.05421088755
3.36,-0.5129982903,-0.03602005224
3.37,-0.5135155359,-0.01781433162
3.38,-0.513387818,0.0003833922689
3.39,-0.5126163429,0.01855028472
3.4,-0.5112031261,0.03666358733
3.41,-0.5091509884,0.05470064674
3.42,-0.506463551,0.07263894332
3.43,-0.503145229,0.09045611943
3.44,-0.4992012248,0.1081300075
3.45,-0.4946375197,0.125638658
3.46,-0.489460865,0.1429603664
3.47,-0.4836787717,0.1600737007
3.48,-0.4772994997,0.1769575277
3.49,-0.4703320462,0.1935910392
3.5,-0.462786132,0.2099537781
3.51,-0.4546721888,0.2260256627
3.52,-0.4460013438,0.2417870121
3.53,-0.4367854046,0.2572185699
3.54,-0.427036843,0.2723015277
3.55,-0.4167687778,0.2870175478
3.56,-0.4059949569,0.3013487853
3.57,-0.3947297389,0.3152779098
3.58,-0.3829880736,0.3287881259
3.59,-0.3707854822,0.3418631933
3.6,-0.3581380364,0.3544874459
3.61,-0.3450623374,0.3666458105
3.62,-0.3315754937,0.3783238245
3.63,-0.3176950988,0.3895076525
3.64,-0.3034392081,0.4001841023
3.65,-0.2888263154,0.4103406406
3.66,-0.2738753289,0.4199654068
3.67,-0.2586055468,0.4290472265
3.68,-0.2430366322,0.4375756243
3.69,-0.2271885881,0.4455408353
3.7,-0.2110817315,0.4529338159
3.71,-0.1947366677,0.4597462533
3.72,-0.1781742642,0.4659705752
3.73,-0.1614156237,0.4715999566
3.74,-0.1444820577,0.4766283279
3.75,-0.12739506,0.4810503802
3.76,-0.110176279,0.484861571
3.77,-0.09284749081,0.4880581279
3.78,-0.0754305721,0.4906370521
3.79,-0.05794747269,0.4925961204
3.8,-0.04042018819,0.4939338869
3.81,-0.02287073272,0.4946496831
3.82,-0.005321111592,0.4947436172
3.83,0.0122067059,0.4942165729
3.84,0.02969081359,0.4930702066
3.85,0.04710939542,0.4913069443
3.86,0.06444075226,0.4889299769
3.87,0.08166332852,0.4859432553
3.88,0.09875573858,0.482351484
3.89,0.1156967928,0.4781601144
3.9,0.1324655237,0.4733753362
3.91,0.1490412109,0.4680040693
3.92,0.1654034071,0.4620539534
3.93,0.1815319621,0.455533338
3.94,0.1974070477,0.4484512709
3.95,0.2130091819,0.4408174856
3.96,0.2283192517,0.4326423887
3.97,0.2433185369,0.4239370459
3.98,0.2579887321,0.4147131674
3.99,0.2723119692,0.4049830925
4,0.2862708385,0.3947597736
4.01,0.2998484098,0.3840567593
4.02,0.3130282525,0.3728881767
4.03,0.3257944554,0.3612687136
4.04,0.3381316458,0.3492135992
4.05,0.3500250074,0.3367385849
4.06,0.3614602984,0.3238599239
4.07,0.3724238683,0.3105943508
4.08,0.3829026738,0.2969590599
4.09,0.3928842949,0.2829716839
4.1,0.4023569487,0.2686502709
4.11,0.4113095041,0.2540132622
4.12,0.4197314943,0.2390794687
4.13,0.4276131293,0.2238680469
4.14,0.4349453075,0.2083984754
4.15,0.4417196258,0.1926905298
4.16,0.4479283898,0.1767642579
4.17,0.4535646224,0.1606399548
4.18,0.4586220718,0.1443381371
4.19,0.4630952184,0.1278795173
4.2,0.4669792814,0.1112849776
4.21,0.4702702234,0.09457554409
4.22,0.4729647554,0.07777235995
4.23,0.4750603397,0.06089665921
4.24,0.4765551924,0.0439697401
4.25,0.4774482852,0.02701293831
4.26,0.4777393458,0.01004760034
4.27,0.4774288575,-0.006904943251
4.28,0.476518058,-0.02382340456
4.29,0.4750089371,-0.04068656496
4.3,0.4729042334,-0.05747330165
4.31,0.4702074305,-0.07416261406
4.32,0.4669227515,-0.09073365016
4.33,0.4630551536,-0.1071657325
4.34,0.4586103205,-0.123438384
4.35,0.4535946551,-0.1395313536
4.36,0.4480152705,-0.1554246416
4.37,0.4418799806,-0.1710985244
4.38,0.4351972893,-0.1865335795
4.39,0.4279763793,-0.2017107094
4.4,0.4202270999,-0.2166111653
4.41,0.4119599539,-0.2312165709
4.42,0.4031860835,-0.245508945
4.43,0.3939172558,-0.2594707236
4.44,0.3841658472,-0.2730847823
4.45,0.373944827,-0.286334457
4.46,0.3632677407,-0.2992035649
4.47,0.352148692,-0.3116764241
4.48,0.3406023242,-0.3237378737
4.49,0.3286438012,-0.3353732916
4.5,0.316288788,-0.3465686131
4.51,0.3035534295,-0.3573103479
4.52,0.2904543304,-0.3675855967
4.53,0.2770085326,-0.3773820668
4.54,0.2632334939,-0.3866880872
4.55,0.2491470648,-0.3954926226
4.56,0.2347674655,-0.4037852866
4.57,0.2201132621,-0.4115563546
4.58,0.2052033428,-0.4187967746
4.59,0.1900568933,-0.4254981786
4.6,0.174693372,-0.4316528921
4.61,0.159132485,-0.437253943
4.62,0.1433941603,-0.4422950694
4.63,0.1274985226,-0.446770727
4.64,0.1114658671,-0.450676095
4.65,0.09531663334,-0.4540070812
4.66,0.07907137929,-0.4567603263
4.67,0.0627507546,-0.4589332071
4.68,0.04637547439,-0.4605238389
4.69,0.02996629265,-0.4615310768
4.7,0.01354397578,-0.4619545159
4.71,-0.002870723935,-0.4617944909
4.72,-0.0192570947,-0.4610520746
4.73,-0.03559449157,-0.459729075
4.74,-0.05186236264,-0.4578280327
4.75,-0.06804027507,-0.4553522155
4.76,-0.08410794092,-0.4523056138
4.77,-0.1000452428,-0.4486929342
4.78,-0.115832259,-0.4445195922
4.79,-0.1314492889,-0.4397917041
4.8,-0.1468768772,-0.4345160785
4.81,-0.1620958387,-0.4287002059
4.82,-0.1770872819,-0.4223522484
4.83,-0.1918326327,-0.4154810282
4.84,-0.2063136573,-0.4080960151
4.85,-0.2205124851,-0.4002073131
4.86,-0.2344116302,-0.3918256473
4.87,-0.2479940135,-0.3829623482
4.88,-0.2612429832,-0.3736293369
4.89,-0.2741423354,-0.3638391088
4.9,-0.2866763338,-0.3536047166
4.91,-0.2988297287,-0.342939753
4.92,-0.3105877756,-0.3318583322
4.93,-0.3219362526,-0.3203750712
4.94,-0.3328614779,-0.3085050707
4.95,-0.3433503257,-0.2962638947
4.96,-0.3533902421,-0.2836675503
4.97,-0.3629692597,-0.2707324663
4.98,-0.3720760116,-0.2574754721
4.99,-0.3806997448,-0.2439137755
5,-0.3888303325,-0.2300649404
5.01,-0.3964582856,-0.2159468638
5.02,-0.4035747639,-0.2015777528
5.03,-0.4101715855,-0.1869761014
5.04,-0.4162412362,-0.172160666
5.05,-0.4217768778,-0.1571504419
5.06,-0.426772355,-0.141964639
5.07,-0.4312222025,-0.1266226566
5.08,-0.4351216499,-0.1111440598
5.09,-0.4384666273,-0.09554855341
5.1,-0.4412537682,-0.07985595803
5.11,-0.4434804132,-0.06408618435
5.12,-0.4451446114,-0.04825920828
5.13,-0.4462451222,-0.03239504577
5.14,-0.4467814153,-0.01651372765
5.15,-0.44675367,-0.000635274588
5.16,-0.4461627738,0.01522032799
5.17,-0.4450103204,0.03103315479
5.18,-0.4432986058,0.04678336547
5.19,-0.441030625,0.06245122929
5.2,-0.4382100662,0.07801714954
5.21,-0.434841306,0.09346168783
5.22,-0.430929402,0.108765588
5.23,-0.4264800857,0.1239098
5.24,-0.4214997542,0.1388755032
5.25,-0.415995461,0.1536441294
5.26,-0.4099749066,0.1681973858
5.27,-0.4034464273,0.1825172771
5.28,-0.396418984,0.1965861279
5.29,-0.3889021503,0.2103866036
5.3,-0.3809060994,0.2239017321
5.31,-0.3724415905,0.2371149238
5.32,-0.3635199548,0.2500099923
5.33,-0.3541530799,0.2625711734
5.34,-0.3443533951,0.2747831446
5.35,-0.3341338544,0.286631043
5.36,-0.3235079198,0.2981004838
5.37,-0.312489544,0.3091775771
5.38,-0.3010931523,0.3198489446
5.39,-0.2893336238,0.3301017355
5.4,-0.2772262724,0.3399236421
5.41,-0.2647868271,0.3493029141
5.42,-0.252031412,0.3582283726
5.43,-0.2389765254,0.3666894233
5.44,-0.225639019,0.374676069
5.45,-0.2120360765,0.3821789213
5.46,-0.1981851914,0.3891892115
5.47,-0.1841041453,0.3956988008
5.48,-0.1698109849,0.4017001896
5.49,-0.1553239996,0.4071865266
5.5,-0.1406616979,0.4121516157
5.51,-0.1258427844,0.4165899239
5.52,-0.1108861363,0.4204965867
5.53,-0.09581077913,0.4238674139
5.54,-0.08063586326,0.4266988941
5.55,-0.06538063959,0.4289881979
5.56,-0.05006443542,0.4307331811
5.57,-0.03470663017,0.4319323867
5.58,-0.01932663105,0.4325850455
5.59,-0.003943848713,0.4326910769
5.6,0.01142232706,0.4322510879
5.61,0.02675255166,0.4312663719
5.62,0.04202754987,0.4297389061
5.63,0.05722814002,0.4276713485
5.64,0.0723352579,0.4250670338
5.65,0.0873299807,0.4219299685
5.66,0.1021935506,0.4182648254
5.67,0.116907398,0.4140769367
5.68,0.1314531653,0.4093722869
5.69,0.145812729,0.4041575045
5.7,0.159968223,0.3984398531
5.71,0.1739020602,0.3922272215
5.72,0.1875969552,0.3855281132
5.73,0.201035945,0.3783516351
5.74,0.2142024105,0.3707074853
5.75,0.2270800974,0.3626059403
5.76,0.2396531357,0.3540578416
5.77,0.25190606,0.3450745811
5.78,0.2638238283,0.3356680864
5.79,0.2753918407,0.325850805
5.8,0.2865959575,0.3156356882
5.81,0.2974225166,0.305036174
5.82,0.3078583502,0.2940661697
5.83,0.3178908011,0.2827400336
5.84,0.3275077384,0.2710725566
5.85,0.336697572,0.2590789426
5.86,0.3454492667,0.2467747891
5.87,0.353752356,0.2341760667
5.88,0.3615969545,0.2212990987
5.89,0.3689737699,0.2081605396
5.9,0.3758741142,0.194777354
5.91,0.3822899139,0.1811667941
5.92,0.3882137196,0.1673463779
5.93,0.393638715,0.1533338666
5.94,0.3985587246,0.1391472414
5.95,0.402968221,0.1248046803
5.96,0.4068623307,0.1103245354
5.97,0.4102368402,0.09572530826
5.98,0.4130882,0.08102562712
5.99,0.4154135286,0.06624422238
6,0.4172106153,0.05139990285
