"Freq [GHz]","re(S(Tx_p1,Tx_p1)) []","im(S(Tx_p1,Tx_p1)) []"
1,-0.006318862423,-0.006280446884
1.01,-0.006600218124,-0.005990766385
1.02,-0.006868783661,-0.005687422769
1.03,-0.007123828401,-0.005370997022
1.04,-0.007364651392,-0.005042110667
1.05,-0.0075905835,-0.004701424074
1.06,-0.007800989445,-0.004349634667
1.07,-0.007995269738,-0.003987475029
1.08,-0.008172862521,-0.00361571092
1.09,-0.008333245291,-0.003235139204
1.1,-0.008475936518,-0.002846585699
1.11,-0.008600497144,-0.002450902943
1.12,-0.008706531961,-0.002048967897
1.13,-0.008793690869,-0.00164167958
1.14,-0.00886167001,-0.001229956646
1.15,-0.008910212766,-0.0008147349115
1.16,-0.008939110633,-0.0003969648313
1.17,-0.008948203962,2.239105614E-05
1.18,-0.008937382559,0.0004423607215
1.19,-0.008906586154,0.0008619652598
1.2,-0.008855804737,0.001280221525
1.21,-0.008785078745,0.001696144775
1.22,-0.008694499121,0.002108751322
1.23,-0.008584207233,0.002517061181
1.24,-0.008454394651,0.002920100704
1.25,-0.008305302793,0.003316905204
1.26,-0.008137222433,0.003706521553
1.27,-0.007950493075,0.004088010747
1.28,-0.007745502192,0.004460450437
1.29,-0.007522684343,0.004822937413
1.3,-0.007282520152,0.005174590045
1.31,-0.00702553517,0.005514550656
1.32,-0.006752298614,0.005841987841
1.33,-0.006463421981,0.006156098714
1.34,-0.006159557561,0.006456111076
1.35,-0.005841396827,0.006741285509
1.36,-0.005509668725,0.007010917379
1.37,-0.005165137865,0.007264338748
1.38,-0.004808602609,0.007500920191
1.39,-0.004440893072,0.00772007251
1.4,-0.00406286904,0.007921248341
1.41,-0.003675417803,0.008103943658
1.42,-0.003279451913,0.008267699152
1.43,-0.00287590688,0.008412101497
1.44,-0.002465738799,0.008536784505
1.45,-0.002049921925,0.008641430138
1.46,-0.001629446198,0.008725769409
1.47,-0.001205314725,0.008789583148
1.48,-0.0007785412246,0.00883270264
1.49,-0.0003501474454,0.008855010124
1.5,7.883944057E-05,0.008856439169
1.51,0.0005073894588,0.008836974906
1.52,0.0009344724621,0.008796654129
1.53,0.001359060762,0.00873556526
1.54,0.001780131753,0.008653848184
1.55,0.002196670528,0.008551693937
1.56,0.002607672474,0.008429344273
1.57,0.003012145834,0.008287091092
1.58,0.003409114249,0.00812527574
1.59,0.003797619251,0.007944288178
1.6,0.004176722712,0.007744566022
1.61,0.004545509242,0.007526593467
1.62,0.004903088531,0.007290900083
1.63,0.005248597615,0.007038059492
1.64,0.005581203085,0.006768687937
1.65,0.005900103212,0.006483442735
1.66,0.006204529992,0.006183020627
1.67,0.006493751099,0.005868156023
1.68,0.006767071753,0.005539619151
1.69,0.007023836487,0.005198214114
1.7,0.007263430811,0.004844776862
1.71,0.007485282771,0.004480173076
1.72,0.0076888644,0.004105295979
1.73,0.00787369305,0.003721064081
1.74,0.008039332612,0.003328418852
1.75,0.008185394615,0.002928322337
1.76,0.008311539196,0.00252175473
1.77,0.008417475953,0.002109711885
1.78,0.008502964667,0.001693202801
1.79,0.008567815889,0.001273247069
1.8,0.008611891405,0.0008508722957
1.81,0.008635104566,0.0004271115032
1.82,0.008637420479,3.000521127E-06
1.83,0.008618856079,-0.000420424629
1.84,0.00857948005,-0.0008421303479
1.85,0.00851941263,-0.001261088065
1.86,0.008438825274,-0.001676276829
1.87,0.008337940187,-0.00208668588
1.88,0.008217029731,-0.002491317188
1.89,0.008076415699,-0.002889187964
1.9,0.007916468471,-0.003279333122
1.91,0.007737606034,-0.003660807701
1.92,0.007540292892,-0.004032689229
1.93,0.007325038855,-0.004394080026
1.94,0.00709239771,-0.004744109445
1.95,0.006842965782,-0.005081936041
1.96,0.006577380393,-0.005406749661
1.97,0.006296318208,-0.00571777345
1.98,0.006000493495,-0.006014265777
1.99,0.005690656275,-0.006295522063
2,0.0053675904,-0.006560876509
2.01,0.005032111531,-0.006809703735
2.02,0.004685065053,-0.0070414203
2.03,0.004327323899,-0.007255486119
2.04,0.003959786323,-0.007451405773
2.05,0.003583373602,-0.007628729691
2.06,0.003199027683,-0.007787055224
2.07,0.002807708786,-0.007926027594
2.08,0.002410392955,-0.008045340718
2.09,0.002008069582,-0.008144737908
2.1,0.001601738889,-0.008224012444
2.11,0.001192409403,-0.008283008022
2.12,0.0007810953925,-0.008321619064
2.13,0.0003688143123,-0.008339790908
2.14,-4.341576719E-05,-0.008337519862
2.15,-0.0004545787234,-0.008314853131
2.16,-0.0008636629374,-0.00827188861
2.17,-0.001269663833,-0.008208774556
2.18,-0.001671586395,-0.008125709121
2.19,-0.002068447655,-0.008022939774
2.2,-0.00245927915,-0.007900762582
2.21,-0.002843129329,-0.007759521379
2.22,-0.003219065922,-0.007599606814
2.23,-0.003586178248,-0.007421455275
2.24,-0.00394357947,-0.00722554771
2.25,-0.004290408778,-0.007012408323
2.26,-0.004625833513,-0.006782603173
2.27,-0.004949051197,-0.006536738665
2.28,-0.005259291503,-0.006275459945
2.29,-0.005555818124,-0.005999449189
2.3,-0.005837930557,-0.005709423816
2.31,-0.006104965793,-0.005406134606
2.32,-0.006356299908,-0.005090363737
2.33,-0.006591349549,-0.004762922748
2.34,-0.006809573316,-0.004424650434
2.35,-0.007010473031,-0.004076410676
2.36,-0.0071935949,-0.003719090201
2.37,-0.007358530554,-0.003353596308
2.38,-0.007504917976,-0.002980854532
2.39,-0.007632442304,-0.002601806268
2.4,-0.007740836515,-0.002217406372
2.41,-0.007829881988,-0.001828620715
2.42,-0.007899408938,-0.001436423733
2.43,-0.007949296728,-0.001041795948
2.44,-0.007979474051,-0.0006457214827
2.45,-0.007989918994,-0.0002491855778
2.46,-0.007980658968,0.000146827896
2.47,-0.007951770519,0.0005413389109
2.48,-0.007903379011,0.000933373741
2.49,-0.007835658185,0.001321967399
2.5,-0.0077488296,0.001706166043
2.51,-0.007643161954,0.002085029354
2.52,-0.007518970278,0.002457632863
2.53,-0.007376615027,0.002823070245
2.54,-0.007216501052,0.003180455548
2.55,-0.007039076457,0.003528925373
2.56,-0.006844831359,0.00386764099
2.57,-0.006634296539,0.004195790379
2.58,-0.00640804199,0.004512590207
2.59,-0.006166675379,0.00481728772
2.6,-0.005910840408,0.005109162554
2.61,-0.005641215093,0.005387528461
2.62,-0.00535850996,0.005651734941
2.63,-0.005063466161,0.005901168777
2.64,-0.004756853524,0.006135255476
2.65,-0.004439468523,0.006353460604
2.66,-0.004112132205,0.006555291015
2.67,-0.003775688041,0.006740295975
2.68,-0.003430999739,0.006908068171
2.69,-0.00307894901,0.007058244608
2.7,-0.002720433288,0.007190507394
2.71,-0.002356363428,0.007304584403
2.72,-0.001987661367,0.007400249822
2.73,-0.001615257768,0.007477324583
2.74,-0.00124008965,0.007535676666
2.75,-0.0008630980084,0.007575221291
2.76,-0.0004852254296,0.007595920982
2.77,-0.0001074137137,0.007597785515
2.78,0.0002693984967,0.007580871745
2.79,0.0006442780707,0.007545283316
2.8,0.001016299723,0.007491170247
2.81,0.001384548319,0.007418728411
2.82,0.001748121149,0.00732819889
2.83,0.002106130161,0.007219867223
2.84,0.002457704149,0.007094062543
2.85,0.002801990897,0.006951156603
2.86,0.003138159258,0.006791562701
2.87,0.003465401183,0.006615734501
2.88,0.003782933676,0.006424164755
2.89,0.004090000685,0.006217383934
2.9,0.004385874915,0.005995958758
2.91,0.004669859564,0.005760490653
2.92,0.004941289973,0.005511614114
2.93,0.005199535192,0.005249994995
2.94,0.005443999452,0.004976328721
2.95,0.005674123546,0.004691338439
2.96,0.00588938611,0.004395773096
2.97,0.006089304805,0.004090405464
2.98,0.006273437392,0.003776030107
2.99,0.006441382709,0.003453461308
3,0.006592781533,0.003123530943
3.01,0.006727317337,0.002787086325
3.02,0.006844716933,0.002444988015
3.03,0.006944751007,0.002098107605
3.04,0.007027234533,0.001747325483
3.05,0.007092027086,0.001393528585
3.06,0.007139033024,0.001037608136
3.07,0.007168201573,0.0006804573874
3.08,0.007179526782,0.0003229693648
3.09,0.007173047381,-3.396538509E-05
3.1,0.007148846507,-0.0003894610264
3.11,0.007107051339,-0.0007426386479
3.12,0.007047832606,-0.00109262845
3.13,0.006971403993,-0.001438571903
3.14,0.006878021444,-0.001779623864
3.15,0.006767982355,-0.002114954655
3.16,0.006641624666,-0.002443752098
3.17,0.006499325855,-0.002765223484
3.18,0.006341501835,-0.003078597504
3.19,0.006168605759,-0.003383126102
3.2,0.005981126733,-0.003678086273
3.21,0.005779588444,-0.003962781781
3.22,0.005564547709,-0.004236544813
3.23,0.005336592938,-0.004498737543
3.24,0.005096342528,-0.004748753626
3.25,0.004844443193,-0.004986019595
3.26,0.004581568216,-0.005209996174
3.27,0.004308415651,-0.005420179504
3.28,0.004025706463,-0.005616102265
3.29,0.003734182626,-0.005797334705
3.3,0.003434605165,-0.005963485574
3.31,0.003127752165,-0.00611420295
3.32,0.002814416741,-0.006249174964
3.33,0.002495404981,-0.006368130422
3.34,0.002171533863,-0.006470839323
3.35,0.001843629154,-0.006557113264
3.36,0.001512523295,-0.006626805744
3.37,0.001179053276,-0.006679812361
3.38,0.0008440585109,-0.006716070892
3.39,0.0005083787173,-0.006735561284
3.4,0.0001728517973,-0.006738305516
3.41,-0.0001616882615,-0.006724367374
3.42,-0.0004944134688,-0.00669385211
3.43,-0.0008245038903,-0.006646906004
3.44,-0.001151149677,-0.006583715815
3.45,-0.00147355306,-0.006504508145
3.46,-0.001790930306,-0.006409548692
3.47,-0.002102513631,-0.006299141416
3.48,-0.00240755306,-0.006173627606
3.49,-0.002705318241,-0.006033384862
3.5,-0.002995100195,-0.005878825985
3.51,-0.003276213005,-0.005710397784
3.52,-0.003547995446,-0.005528579803
3.53,-0.003809812535,-0.005333882971
3.54,-0.004061057015,-0.005126848175
3.55,-0.00430115076,-0.004908044771
3.56,-0.004529546098,-0.004678069022
3.57,-0.004745727058,-0.004437542476
3.58,-0.00494921052,-0.004187110293
3.59,-0.005139547287,-0.003927439513
3.6,-0.00531632306,-0.00365921728
3.61,-0.005479159324,-0.003383149024
3.62,-0.005627714138,-0.003099956601
3.63,-0.005761682825,-0.002810376404
3.64,-0.005880798573,-0.002515157442
3.65,-0.005984832929,-0.002215059403
3.66,-0.006073596201,-0.001910850687
3.67,-0.006146937752,-0.001603306441
3.68,-0.0062047462,-0.00129320657
3.69,-0.006246949518,-0.0009813337619
3.7,-0.006273515028,-0.0006684714977
3.71,-0.006284449303,-0.0003554020832
3.72,-0.006279797963,-4.290468462E-05
3.73,-0.006259645379,0.0002682466154
3.74,-0.006224114278,0.0005772847408
3.75,-0.006173365253,0.0008834515178
3.76,-0.006107596176,0.001185999539
3.77,-0.006027041528,0.001484193993
3.78,-0.005931971631,0.001777314448
3.79,-0.005822691798,0.002064656599
3.8,-0.005699541397,0.00234553396
3.81,-0.005562892833,0.002619279501
3.82,-0.005413150452,0.002885247234
3.83,-0.00525074937,0.003142813737
3.84,-0.005076154228,0.003391379605
3.85,-0.004889857882,0.003630370846
3.86,-0.004692380024,0.003859240196
3.87,-0.004484265744,0.004077468367
3.88,-0.004266084034,0.00428456521
3.89,-0.004038426242,0.004480070807
3.9,-0.00380190447,0.004663556475
3.91,-0.003557149939,0.004834625689
3.92,-0.003304811299,0.004992914919
3.93,-0.00304555292,0.005138094378
3.94,-0.002780053135,0.005269868682
3.95,-0.00250900247,0.00538797742
3.96,-0.002233101845,0.005492195629
3.97,-0.00195306076,0.005582334185
3.98,-0.001669595469,0.005658240092
3.99,-0.001383427145,0.005719796684
4,-0.00109528004,0.005766923733
4.01,-0.0008058796545,0.005799577463
4.02,-0.000515950902,0.005817750476
4.03,-0.0002262162945,0.005821471577
4.04,6.260586301E-05,0.005810805521
4.05,0.0003498032547,0.005785852659
4.06,0.0006346713132,0.005746748503
4.07,0.0009165149496,0.005693663202
4.08,0.00119465025,0.005626800933
4.09,0.001468406137,0.005546399211
4.1,0.001737125985,0.005452728113
4.11,0.002000169197,0.005346089431
4.12,0.002256912729,0.005226815744
4.13,0.00250675256,0.005095269422
4.14,0.002749105111,0.004951841551
4.15,0.002983408599,0.004796950803
4.16,0.003209124334,0.004631042236
4.17,0.00342573795,0.004454586028
4.18,0.00363276056,0.004268076168
4.19,0.003829729852,0.004072029083
4.2,0.004016211107,0.003866982217
4.21,0.004191798136,0.003653492572
4.22,0.004356114148,0.003432135196
4.23,0.004508812537,0.003203501644
4.24,0.004649577584,0.002968198402
4.25,0.004778125083,0.002726845277
4.26,0.004894202879,0.002480073771
4.27,0.004997591325,0.00222852543
4.28,0.005088103654,0.001972850172
4.29,0.005165586265,0.001713704614
4.3,0.00522991892,0.001451750381
4.31,0.005281014865,0.001187652421
4.32,0.005318820858,0.0009220773107
4.33,0.005343317109,0.0006556915752
4.34,0.00535451715,0.0003891600146
4.35,0.005352467603,0.0001231440434
4.36,0.005337247882,-0.0001416999512
4.37,0.005308969802,-0.000404722229
4.38,0.005267777116,-0.0006652812906
4.39,0.005213844969,-0.0009227454408
4.4,0.00514737928,-0.001176494319
4.41,0.005068616043,-0.001425920391
4.42,0.004977820565,-0.0016704304
4.43,0.004875286629,-0.001909446777
4.44,0.004761335589,-0.002142408993
4.45,0.004636315402,-0.002368774874
4.46,0.004500599601,-0.00258802185
4.47,0.004354586205,-0.002799648155
4.48,0.004198696576,-0.003003173961
4.49,0.004033374223,-0.003198142458
4.5,0.003859083558,-0.00338412086
4.51,0.003676308605,-0.003560701351
4.52,0.00348555167,-0.003727501958
4.53,0.003287331966,-0.00388416736
4.54,0.003082184214,-0.004030369613
4.55,0.002870657204,-0.004165808816
4.56,0.002653312333,-0.004290213691
4.57,0.00243072212,-0.004403342089
4.58,0.002203468701,-0.004504981425
4.59,0.001972142309,-0.004594949029
4.6,0.001737339745,-0.004673092424
4.61,0.001499662836,-0.00473928952
4.62,0.001259716897,-0.004793448739
4.63,0.001018109191,-0.004835509051
4.64,0.000775447389,-0.004865439944
4.65,0.0005323380446,-0.004883241307
4.66,0.0002893850798,-0.004888943244
4.67,4.718828413E-05,-0.004882605808
4.68,-0.0001936581636,-0.004864318664
4.69,-0.0004325671515,-0.004834200679
4.7,-0.0006689600634,-0.004792399437
4.71,-0.0009022681766,-0.004739090691
4.72,-0.001131934026,-0.00467447774
4.73,-0.001357412734,-0.004598790747
4.74,-0.001578173291,-0.004512285988
4.75,-0.001793699807,-0.004415245045
4.76,-0.002003492702,-0.004307973932
4.77,-0.002207069859,-0.004190802175
4.78,-0.002403967717,-0.004064081834
4.79,-0.002593742317,-0.00392818647
4.8,-0.002775970287,-0.00378351007
4.81,-0.002950249768,-0.003630465927
4.82,-0.003116201285,-0.003469485477
4.83,-0.003273468549,-0.003301017097
4.84,-0.003421719199,-0.003125524869
4.85,-0.003560645478,-0.002943487314
4.86,-0.003689964842,-0.002755396094
4.87,-0.003809420501,-0.002561754696
4.88,-0.003918781891,-0.002363077086
4.89,-0.004017845078,-0.002159886353
4.9,-0.004106433088,-0.001952713338
4.91,-0.004184396173,-0.001742095247
4.92,-0.004251612003,-0.001528574263
4.93,-0.004307985784,-0.001312696154
4.94,-0.00435345031,-0.001095008882
4.95,-0.004387965945,-0.0008760612092
4.96,-0.004411520533,-0.0006564013228
4.97,-0.00442412924,-0.0004365754621
4.98,-0.00442583433,-0.0002171265637
4.99,-0.00441670487,1.407076641E-06
5,-0.004396836371,0.0002184931206
5.01,-0.004366350371,0.0004336064799
5.02,-0.00432539394,0.0006462305813
5.03,-0.004274139141,0.0008558586017
5.04,-0.004212782423,0.001061994669
5.05,-0.004141543951,0.001264155029
5.06,-0.004060666897,0.001461869169
5.07,-0.003970416661,0.001654680905
5.08,-0.00387108005,0.001842149422
5.09,-0.00376296441,0.002023850266
5.1,-0.003646396708,0.002199376296
5.11,-0.003521722572,0.002368338573
5.12,-0.003389305292,0.002530367208
5.13,-0.003249524786,0.002685112148
5.14,-0.003102776522,0.002832243908
5.15,-0.002949470422,0.002971454252
5.16,-0.002790029728,0.003102456802
5.17,-0.002624889845,0.003224987602
5.18,-0.002454497162,0.003338805611
5.19,-0.002279307856,0.003443693136
5.2,-0.002099786678,0.003539456211
5.21,-0.001916405723,0.0036259249
5.22,-0.001729643202,0.003702953547
5.23,-0.001539982193,0.00377042096
5.24,-0.001347909398,0.00382823053
5.25,-0.001153913903,0.003876310291
5.26,-0.0009584859317,0.00391461291
5.27,-0.0007621156123,0.003943115624
5.28,-0.0005652917547,0.003961820112
5.29,-0.0003685006365,0.003970752298
5.3,-0.0001722248072,0.00396996211
5.31,2.305808918E-05,0.003959523169
5.32,0.000216876471,0.00393953242
5.33,0.0004087659502,0.003910109715
5.34,0.000598270438,0.003871397336
5.35,0.0007849432194,0.003823559463
5.36,0.0009683479974,0.003766781597
5.37,0.001148059901,0.00370126993
5.38,0.001323666457,0.003627250666
5.39,0.001494768525,0.003544969303
5.4,0.001660981185,0.003454689866
5.41,0.001821934591,0.0033566941
5.42,0.001977274773,0.003251280631
5.43,0.002126664393,0.003138764082
5.44,0.002269783458,0.003019474163
5.45,0.002406329977,0.002893754724
5.46,0.002536020572,0.002761962791
5.47,0.002658591034,0.00262446756
5.48,0.002773796827,0.002481649384
5.49,0.002881413542,0.002333898733
5.5,0.002981237291,0.002181615135
5.51,0.003073085046,0.002025206109
5.52,0.003156794928,0.001865086084
5.53,0.003232226439,0.001701675306
5.54,0.003299260628,0.001535398743
5.55,0.003357800221,0.001366684991
5.56,0.003407769673,0.001195965172
5.57,0.003449115185,0.001023671839
5.58,0.00348180465,0.000850237887
5.59,0.003505827554,0.0006760954736
5.6,0.003521194822,0.0005016749461
5.61,0.00352793861,0.0003274037868
5.62,0.003526112043,0.0001537055723
5.63,0.00351578891,-1.900104796E-05
5.64,0.003497063299,-0.0001903033516
5.65,0.003470049197,-0.00035979552
5.66,0.003434880026,-0.0005270795893
5.67,0.003391708156,-0.0006917663725
5.68,0.003340704353,-0.0008534763525
5.69,0.003282057201,-0.001011840542
5.7,0.003215972477,-0.001166501311
5.71,0.00314267249,-0.001317113175
5.72,0.003062395383,-0.001463343551
5.73,0.002975394405,-0.001604873466
5.74,0.002881937148,-0.001741398237
5.75,0.002782304753,-0.001872628097
5.76,0.002676791097,-0.001998288786
5.77,0.002565701947,-0.002118122091
5.78,0.002449354095,-0.002231886349
5.79,0.002328074473,-0.002339356896
5.8,0.002202199254,-0.002440326474
5.81,0.002072072929,-0.002534605589
5.82,0.001938047382,-0.00262202282
5.83,0.001800480947,-0.002702425083
5.84,0.001659737462,-0.002775677842
5.85,0.001516185317,-0.002841665276
5.86,0.0013701965,-0.002900290393
5.87,0.001222145638,-0.0029514751
5.88,0.001072409047,-0.002995160223
5.89,0.0009213637845,-0.003031305477
5.9,0.0007693867061,-0.003059889394
5.91,0.000616853536,-0.003080909197
5.92,0.0004641379458,-0.00309438064
5.93,0.0003116106487,-0.003100337788
5.94,0.0001596385096,-0.003098832767
5.95,8.583673028E-06,-0.003089935461
5.96,-0.0001411972881,-0.003073733176
5.97,-0.0002893542024,-0.003050330255
5.98,-0.0004355441049,-0.003019847658
5.99,-0.0005794320171,-0.002982422508
6,-0.0007206916981,-0.002938207596
