"Freq [GHz]","re(S(Tx_p1,Tx_p1)) []","im(S(Tx_p1,Tx_p1)) []"
1,-0.006777642204,-0.001776321332
1.01,-0.006828195345,-0.001436213443
1.02,-0.006861787111,-0.001095175928
1.03,-0.006878448412,-0.0007540793161
1.04,-0.006878257138,-0.0004137861634
1.05,-0.006861337082,-7.514848626E-05
1.06,-0.006827856732,0.0002609946948
1.07,-0.006778027951,0.0005938196888
1.08,-0.006712104542,0.0009225203429
1.09,-0.006630380718,0.001246310122
1.1,-0.006533189492,0.001564424057
1.11,-0.00642090098,0.001876120563
1.12,-0.006293920645,0.002180683119
1.13,-0.006152687484,0.002477421816
1.14,-0.005997672163,0.002765674775
1.15,-0.005829375126,0.003044809424
1.16,-0.00564832466,0.003314223656
1.17,-0.005455074959,0.003573346844
1.18,-0.005250204161,0.003821640747
1.19,-0.005034312388,0.004058600276
1.2,-0.00480801979,0.004283754157
1.21,-0.0045719646,0.00449666547
1.22,-0.004326801199,0.004696932078
1.23,-0.004073198212,0.004884186956
1.24,-0.003811836626,0.005058098414
1.25,-0.003543407939,0.005218370227
1.26,-0.00326861235,0.00536474167
1.27,-0.00298815698,0.005496987479
1.28,-0.002702754145,0.005614917718
1.29,-0.002413119667,0.00571837758
1.3,-0.002119971233,0.005807247116
1.31,-0.001824026803,0.005881440901
1.32,-0.001526003069,0.00594090764
1.33,-0.001226613958,0.005985629716
1.34,-0.0009265691946,0.006015622694
1.35,-0.0006265729024,0.006030934775
1.36,-0.0003273222643,0.00603164621
1.37,-2.950622681E-05,0.006017868676
1.38,0.0002661957465,0.005989744615
1.39,0.0005591148748,0.005947446551
1.4,0.000848594215,0.005891176364
1.41,0.001133989772,0.005821164552
1.42,0.001414671569,0.005737669466
1.43,0.001690024671,0.005640976514
1.44,0.001959450182,0.005531397364
1.45,0.002222366188,0.005409269106
1.46,0.002478208681,0.005274953417
1.47,0.002726432438,0.005128835696
1.48,0.002966511872,0.004971324185
1.49,0.003197941853,0.004802849077
1.5,0.003420238492,0.004623861605
1.51,0.003632939909,0.004434833116
1.52,0.00383560696,0.004236254121
1.53,0.004027823942,0.004028633342
1.54,0.004209199275,0.003812496723
1.55,0.004379366146,0.003588386433
1.56,0.00453798314,0.003356859848
1.57,0.004684734828,0.003118488503
1.58,0.004819332343,0.002873857037
1.59,0.004941513912,0.0026235621
1.6,0.00505104537,0.002368211244
1.61,0.005147720633,0.002108421792
1.62,0.005231362142,0.001844819673
1.63,0.005301821276,0.00157803824
1.64,0.005358978719,0.00130871706
1.65,0.005402744793,0.001037500674
1.66,0.005433059752,0.0007650373352
1.67,0.005449894026,0.0004919777233
1.68,0.005453248419,0.00021897363
1.69,0.005443154263,-5.332337645E-05
1.7,0.005419673514,-0.00032426331
1.71,0.005382898794,-0.0005931991463
1.72,0.005332953376,-0.0008594882215
1.73,0.005269991108,-0.001122493647
1.74,0.005194196277,-0.001381585742
1.75,0.005105783397,-0.001636143472
1.76,0.005004996941,-0.001885555899
1.77,0.004892110993,-0.002129223642
1.78,0.004767428832,-0.002366560327
1.79,0.004631282439,-0.002596994049
1.8,0.004484031926,-0.002819968812
1.81,0.004326064894,-0.003034945972
1.82,0.004157795701,-0.003241405655
1.83,0.003979664661,-0.00343884816
1.84,0.003792137155,-0.003626795329
1.85,0.003595702667,-0.003804791896
1.86,0.003390873737,-0.003972406791
1.87,0.003178184836,-0.004129234405
1.88,0.002958191162,-0.004274895813
1.89,0.002731467361,-0.004409039936
1.9,0.002498606177,-0.004531344652
1.91,0.002260217016,-0.004641517841
1.92,0.00201692446,-0.004739298356
1.93,0.001769366703,-0.004824456935
1.94,0.001518193925,-0.004896797016
1.95,0.001264066612,-0.00495615548
1.96,0.001007653821,-0.005002403305
1.97,0.0007496313933,-0.005035446121
1.98,0.0004906801304,-0.005055224677
1.99,0.0002314839244,-0.005061715198
2,-2.727213825E-05,-0.005054929649
2.01,-0.0002849037014,-0.005034915882
2.02,-0.0005407290824,-0.005001757682
2.03,-0.0007940712289,-0.004955574697
2.04,-0.00104425968,-0.004896522258
2.05,-0.001290632529,-0.00482479108
2.06,-0.001532538373,-0.004740606854
2.07,-0.001769338252,-0.00464422972
2.08,-0.002000407562,-0.004535953627
2.09,-0.002225137937,-0.004416105576
2.1,-0.002442939096,-0.004285044755
2.11,-0.002653240641,-0.004143161561
2.12,-0.002855493803,-0.003990876508
2.13,-0.003049173132,-0.003828639042
2.14,-0.003233778119,-0.00365692624
2.15,-0.003408834739,-0.003476241419
2.16,-0.003573896923,-0.003287112652
2.17,-0.003728547936,-0.003090091185
2.18,-0.003872401669,-0.002885749782
2.19,-0.004005103831,-0.002674680986
2.2,-0.004126333036,-0.002457495307
2.21,-0.004235801789,-0.002234819346
2.22,-0.004333257351,-0.00200729386
2.23,-0.004418482496,-0.001775571776
2.24,-0.004491296148,-0.001540316157
2.25,-0.004551553889,-0.001302198138
2.26,-0.004599148353,-0.001061894823
2.27,-0.004634009489,-0.0008200871742
2.28,-0.004656104689,-0.0005774578712
2.29,-0.004665438807,-0.000334689182
2.3,-0.004662054028,-9.246082679E-05
2.31,-0.004646029624,0.000148552143
2.32,-0.004617481576,0.0003876814464
2.33,-0.004576562073,0.0006242676469
2.34,-0.00452345889,0.0008576621911
2.35,-0.004458394638,0.001087229403
2.36,-0.004381625902,0.001312348427
2.37,-0.004293442265,0.001532415115
2.38,-0.00419416522,0.001746843843
2.39,-0.004084146975,0.001955069261
2.4,-0.003963769163,0.002156547957
2.41,-0.003833441451,0.002350760045
2.42,-0.003693600065,0.002537210653
2.43,-0.00354470623,0.002715431322
2.44,-0.003387244529,0.002884981301
2.45,-0.003221721204,0.003045448735
2.46,-0.003048662383,0.003196451751
2.47,-0.002868612256,0.003337639422
2.48,-0.002682131208,0.003468692623
2.49,-0.002489793903,0.003589324767
2.5,-0.002292187342,0.003699282421
2.51,-0.002089908898,0.0037983458
2.52,-0.001883564327,0.003886329145
2.53,-0.00167376578,0.003963080971
2.54,-0.001461129801,0.004028484202
2.55,-0.001246275351,0.00408245618
2.56,-0.001029821823,0.004124948558
2.57,-0.0008123871004,0.004155947071
2.58,-0.0005945856316,0.004175471201
2.59,-0.0003770265437,0.004183573721
2.6,-0.0001603118014,0.004180340134
2.61,5.496558705E-05,0.004165888009
2.62,0.0002682233065,0.004140366212
2.63,0.0004788914116,0.004103954046
2.64,0.000686413935,0.004056860291
2.65,0.0008902504246,0.003999322169
2.66,0.001089877403,0.003931604216
2.67,0.001284789748,0.003853997091
2.68,0.001474501982,0.003766816306
2.69,0.001658549484,0.003670400895
2.7,0.001836489598,0.003565112035
2.71,0.002007902657,0.003451331599
2.72,0.002172392903,0.003329460688
2.73,0.002329589321,0.003199918102
2.74,0.002479146361,0.003063138799
2.75,0.00262074457,0.002919572322
2.76,0.002754091123,0.002769681207
2.77,0.002878920252,0.002613939383
2.78,0.002994993579,0.002452830567
2.79,0.003102100352,0.002286846661
2.8,0.003200057584,0.002116486152
2.81,0.003288710099,0.001942252534
2.82,0.003367930484,0.001764652738
2.83,0.003437618958,0.001584195597
2.84,0.003497703147,0.001401390336
2.85,0.003548137781,0.001216745092
2.86,0.003588904312,0.001030765481
2.87,0.003620010455,0.0008439532035
2.88,0.003641489657,0.0006568046983
2.89,0.003653400499,0.0004698098459
2.9,0.003655826035,0.0002834507275
2.91,0.003648873074,9.82004393E-05
2.92,0.003632671403,-8.547803323E-05
2.93,0.00360737297,-0.0002671328799
2.94,0.00357315101,-0.0004463244674
2.95,0.003530199142,-0.0006226262756
2.96,0.003478730423,-0.0007956257694
2.97,0.00341897638,-0.000964925203
2.98,0.003351186003,-0.001130142358
2.99,0.003275624734,-0.001290911214
3,0.003192573423,-0.001446882556
3.01,0.00310232728,-0.001597724507
3.02,0.00300519482,-0.001743123009
3.03,0.002901496801,-0.001882782227
3.04,0.002791565156,-0.002016424896
3.05,0.002675741942,-0.002143792608
3.06,0.002554378284,-0.00226464604
3.07,0.002427833332,-0.002378765117
3.08,0.002296473235,-0.002485949132
3.09,0.002160670126,-0.002586016802
3.1,0.002020801126,-0.002678806282
3.11,0.001877247374,-0.002764175122
3.12,0.001730393071,-0.002842000193
3.13,0.001580624556,-0.002912177551
3.14,0.001428329403,-0.00297462228
3.15,0.001273895549,-0.003029268282
3.16,0.001117710447,-0.003076068049
3.17,0.0009601602479,-0.003114992384
3.18,0.0008016290183,-0.003146030108
3.19,0.0006424979797,-0.003169187737
3.2,0.0004831447838,-0.003184489129
3.21,0.0003239428159,-0.003191975114
3.22,0.0001652605283,-0.003191703107
3.23,7.460803745E-06,-0.003183746699
3.24,-0.0001490996521,-0.003168195234
3.25,-0.0003040708898,-0.003145153375
3.26,-0.0004571102679,-0.003114740657
3.27,-0.0006078829772,-0.003077091027
3.28,-0.0007560625397,-0.003032352386
3.29,-0.0009013312825,-0.002980686108
3.3,-0.001043380788,-0.002922266567
3.31,-0.001181912321,-0.002857280653
3.32,-0.001316637236,-0.002785927283
3.33,-0.001447277359,-0.002708416908
3.34,-0.001573565356,-0.002624971023
3.35,-0.00169524508,-0.002535821664
3.36,-0.001812071903,-0.002441210913
3.37,-0.001923813022,-0.00234139039
3.38,-0.002030247767,-0.002236620753
3.39,-0.002131167876,-0.002127171183
3.4,-0.002226377767,-0.002013318877
3.41,-0.002315694791,-0.001895348533
3.42,-0.002398949476,-0.001773551828
3.43,-0.002475985754,-0.001648226894
3.44,-0.002546661177,-0.001519677794
3.45,-0.002610847121,-0.001388213981
3.46,-0.002668428975,-0.001254149764
3.47,-0.002719306318,-0.001117803754
3.48,-0.002763393084,-0.0009794983165
3.49,-0.002800617712,-0.0008395590025
3.5,-0.002830923282,-0.0006983139819
3.51,-0.002854267633,-0.0005560934621
3.52,-0.00287062347,-0.0004132290997
3.53,-0.002879978448,-0.0002700534027
3.54,-0.002882335248,-0.0001268991224
3.55,-0.002877711618,1.59013631E-05
3.56,-0.002866140412,0.0001580166758
3.57,-0.002847669591,0.0002991170735
3.58,-0.002822362214,0.0004388750945
3.59,-0.002790296396,0.0005769662104
3.6,-0.002751565245,0.0007130694874
3.61,-0.002706276771,0.0008468682534
3.62,-0.002654553765,0.0009780507722
3.63,-0.002596533651,0.001106310921
3.64,-0.002532368305,0.001231348875
3.65,-0.002462223844,0.001352871787
3.66,-0.00238628038,0.001470594476
3.67,-0.00230473174,0.001584240108
3.68,-0.002217785148,0.001693540879
3.69,-0.00212566088,0.001798238687
3.7,-0.002028591868,0.001898085798
3.71,-0.001926823283,0.001992845512
3.72,-0.001820612063,0.002082292798
3.73,-0.001710226418,0.002166214934
3.74,-0.001595945288,0.002244412118
3.75,-0.001478057766,0.002316698064
3.76,-0.001356862484,0.002382900571
3.77,-0.00123266696,0.002442862076
3.78,-0.001105786911,0.002496440172
3.79,-0.0009765455322,0.002543508094
3.8,-0.0008452727355,0.002583955182
3.81,-0.0007123043639,0.002617687295
3.82,-0.0005779813692,0.0026446272
3.83,-0.0004426489639,0.002664714909
3.84,-0.0003066557439,0.002677907979
3.85,-0.0001703527882,0.002684181767
3.86,-3.409273556E-05,0.002683529633
3.87,0.0001017711581,0.002675963098
3.88,0.0002368859788,0.002661511946
3.89,0.0003709001277,0.002640224279
3.9,0.0005034643042,0.002612166509
3.91,0.0006342324967,0.002577423302
3.92,0.0007628629765,0.002536097462
3.93,0.0008890192923,0.002488309753
3.94,0.001012371261,0.002434198671
3.95,0.001132595951,0.002373920152
3.96,0.001249378656,0.002307647221
3.97,0.001362413851,0.002235569583
3.98,0.00147140613,0.00215789316
3.99,0.001576071129,0.002074839565
4,0.001676136407,0.001986645524
4.01,0.001771342313,0.001893562239
4.02,0.001861442809,0.001795854703
4.03,0.001946206261,0.001693800958
4.04,0.002025416183,0.001587691307
4.05,0.002098871945,0.00147782748
4.06,0.002166389426,0.001364521751
4.07,0.002227801623,0.001248096018
4.08,0.002282959197,0.001128880841
4.09,0.002331730974,0.00100721445
4.1,0.002374004384,0.000883441714
4.11,0.002409685829,0.0007579130872
4.12,0.002438701005,0.0006309835306
4.13,0.002460995147,0.0005030114117
4.14,0.002476533215,0.0003743573888
4.15,0.002485300006,0.0002453832834
4.16,0.002487300205,0.0001164509456
4.17,0.002482558365,-1.207888476E-05
4.18,0.002471118815,-0.0001398477148
4.19,0.002453045503,-0.0002665004301
4.2,0.002428421772,-0.0003916864157
4.21,0.002397350061,-0.0005150606633
4.22,0.002359951547,-0.0006362848585
4.23,0.002316365716,-0.0007550284454
4.24,0.002266749872,-0.0008709696642
4.25,0.002211278585,-0.0009837965558
4.26,0.002150143078,-0.001093207932
4.27,0.002083550551,-0.001198914308
4.28,0.002011723461,-0.001300638784
4.29,0.001934898739,-0.001398117894
4.3,0.001853326963,-0.00149110239
4.31,0.001767271486,-0.001579357986
4.32,0.00167700752,-0.001662666033
4.33,0.001582821179,-0.001740824151
4.34,0.001485008494,-0.001813646788
4.35,0.001383874392,-0.001880965723
4.36,0.001279731651,-0.001942630501
4.37,0.00117289983,-0.001998508804
4.38,0.001063704187,-0.002048486759
4.39,0.0009524745775,-0.002092469168
4.4,0.0008395443474,-0.002130379681
4.41,0.0007252492206,-0.002162160894
4.42,0.0006099261868,-0.002187774377
4.43,0.0004939123936,-0.002207200641
4.44,0.0003775440472,-0.002220439032
4.45,0.0002611553269,-0.002227507558
4.46,0.0001450773159,-0.002228442654
4.47,2.963695411E-05,-0.002223298884
4.48,-8.484398319E-05,-0.002212148576
4.49,-0.0001980498786,-0.002195081399
4.5,-0.0003096722319,-0.00217220389
4.51,-0.000419410584,-0.002143638914
4.52,-0.0005269734002,-0.002109525079
4.53,-0.0006320789118,-0.002070016103
4.54,-0.0007344559115,-0.002025280129
4.55,-0.000833844501,-0.001975499002
4.56,-0.0009299967886,-0.001920867506
4.57,-0.001022677533,-0.001861592562
4.58,-0.001111664735,-0.001797892403
4.59,-0.00119675017,-0.001729995704
4.6,-0.001277739866,-0.00165814071
4.61,-0.001354454526,-0.001582574321
4.62,-0.00142672988,-0.00150355118
4.63,-0.001494416996,-0.001421332734
4.64,-0.001557382513,-0.001336186295
4.65,-0.001615508828,-0.001248384093
4.66,-0.001668694215,-0.001158202328
4.67,-0.001716852894,-0.001065920228
4.68,-0.001759915032,-0.0009718191114
4.69,-0.0017978267,-0.000876181457
4.7,-0.001830549761,-0.0007792899951
4.71,-0.001858061719,-0.0006814268098
4.72,-0.001880355503,-0.0005828724638
4.73,-0.001897439211,-0.0004839051467
4.74,-0.001909335801,-0.0003847998497
4.75,-0.001916082739,-0.0002858275693
4.76,-0.001917731605,-0.000187254542
4.77,-0.001914347653,-8.934151412E-05
4.78,-0.001906009345,7.65695406E-06
4.79,-0.001892807838,0.0001034931451
4.8,-0.001874846447,0.0001979268026
4.81,-0.001852240077,0.000290725708
4.82,-0.001825114631,0.0003816662159
4.83,-0.001793606393,0.0004705337462
4.84,-0.001757861393,0.0005571232324
4.85,-0.001718034756,0.000641239526
4.86,-0.001674290037,0.0007226977564
4.87,-0.001626798548,0.0008013236462
4.88,-0.001575738673,0.0008769537819
4.89,-0.001521295184,0.000949435841
4.9,-0.001463658555,0.001018628776
4.91,-0.001403024272,0.001084402953
4.92,-0.001339592154,0.001146640254
4.93,-0.001273565679,0.001205234132
4.94,-0.001205151314,0.001260089632
4.95,-0.001134557863,0.001311123368
4.96,-0.001061995827,0.001358263472
4.97,-0.0009876767735,0.0014014495
4.98,-0.0009118127348,0.001440632306
4.99,-0.0008346156143,0.001475773891
5,-0.0007562966196,0.001506847214
5.01,-0.0006770657163,0.001533835983
5.02,-0.0005971311044,0.001556734412
5.03,-0.0005166987193,0.001575546966
5.04,-0.0004359717577,0.001590288074
5.05,-0.0003551502295,0.001600981826
5.06,-0.0002744305357,0.00160766166
5.07,-0.0001940050724,0.001610370022
5.08,-0.0001140618628,0.001609158022
5.09,-3.478421453E-05,0.001604085076
5.1,4.364959507E-05,0.001595218537
5.11,0.0001210666081,0.001582633324
5.12,0.0001972994485,0.001566411542
5.13,0.0002721865597,0.001546642097
5.14,0.0003455724162,0.001523420313
5.15,0.0004173077122,0.001496847549
5.16,0.0004872495254,0.00146703081
5.17,0.0005552614596,0.001434082371
5.18,0.0006212137647,0.001398119396
5.19,0.0006849834367,0.00135926357
5.2,0.0007464542983,0.001317640724
5.21,0.0008055170605,0.001273380484
5.22,0.0008620693681,0.001226615913
5.23,0.0009160158281,0.00117748317
5.24,0.0009672680239,0.001126121173
5.25,0.001015744516,0.001072671272
5.26,0.001061370828,0.001017276937
5.27,0.001104079428,0.0009600834452
5.28,0.001143809689,0.0009012375888
5.29,0.00118050785,0.0008408873854
5.3,0.001214126962,0.0007791818013
5.31,0.001244626834,0.0007162704834
5.32,0.001271973966,0.0006523035014
5.33,0.001296141478,0.0005874310973
5.34,0.001317109039,0.0005218034452
5.35,0.001334862787,0.0004555704178
5.36,0.001349395247,0.0003888813619
5.37,0.001360705248,0.0003218848797
5.38,0.001368797835,0.0002547286173
5.39,0.001373684183,0.0001875590593
5.4,0.001375381502,0.0001205213282
5.41,0.001373912951,5.375898864E-05
5.42,0.001369307543,-1.258614373E-05
5.43,0.00136160005,-7.837419058E-05
5.44,0.001350830907,-0.0001434673958
5.45,0.001337046116,-0.0002077303081
5.46,0.001320297149,-0.000271029962
5.47,0.001300640843,-0.0003332360565
5.48,0.0012781393,-0.000394221134
5.49,0.001252859783,-0.0004538607573
5.5,0.001224874601,-0.000512033687
5.51,0.001194261006,-0.0005686220583
5.52,0.001161101066,-0.0006235115579
5.53,0.001125481554,-0.0006765916015
5.54,0.001087493814,-0.0007277555103
5.55,0.001047233634,-0.0007769006884
5.56,0.001004801105,-0.0008239287999
5.57,0.0009603004776,-0.0008687459452
5.58,0.0009138400066,-0.0009112628374
5.59,0.000865531793,-0.000951394977
5.6,0.0008154916134,-0.0009890628255
5.61,0.0007638387415,-0.001024191976
5.62,0.0007106957601,-0.001056713325
5.63,0.0006561883637,-0.001086563232
5.64,0.0006004451503,-0.001113683687
5.65,0.0005435974028,-0.001138022464
5.66,0.0004857788596,-0.001159533273
5.67,0.0004271254751,-0.001178175904
5.68,0.0003677751681,-0.001193916364
5.69,0.0003078675601,-0.001206727006
5.7,0.0002475437033,-0.001216586648
5.71,0.0001869457965,-0.001223480682
5.72,0.0001262168926,-0.001227401171
5.73,6.55005949E-05,-0.001228346937
5.74,4.940744563E-06,-0.001226323627
5.75,-5.53189007E-05,-0.001221343778
5.76,-0.0001151349963,-0.001213426854
5.77,-0.0001743649475,-0.001202599272
5.78,-0.0002328672532,-0.001188894416
5.79,-0.0002905018546,-0.001172352624
5.8,-0.000347130489,-0.001153021162
5.81,-0.0004026170472,-0.001130954178
5.82,-0.0004568279321,-0.001106212635
5.83,-0.00050963242,-0.001078864226
5.84,-0.0005609030204,-0.001048983262
5.85,-0.0006105158349,-0.001016650549
5.86,-0.0006583509125,-0.0009819532343
5.87,-0.0007042926016,-0.0009449846334
5.88,-0.0007482298944,-0.0009058440395
5.89,-0.0007900567658,-0.0008646365065
5.9,-0.0008296725018,-0.0008214726128
5.91,-0.0008669820186,-0.0007764682035
5.92,-0.0009018961692,-0.0007297441116
5.93,-0.0009343320366,-0.0006814258598
5.94,-0.0009642132122,-0.0006316433418
5.95,-0.0009914700582,-0.0005805304855
5.96,-0.001016039951,-0.0005282248979
5.97,-0.001037867509,-0.000474867493
5.98,-0.001056904792,-0.0004206021041
5.99,-0.001073111491,-0.0003655750813
6,-0.001086455084,-0.0003099348754
