"Freq [GHz]","re(S(Tx_p1,Tx_p1)) []","im(S(Tx_p1,Tx_p1)) []"
1,-0.05831287524,-0.2137898367
1.01,-0.06650218128,-0.2115820811
1.02,-0.07463910936,-0.2090420092
1.03,-0.08270825754,-0.2061697397
1.04,-0.09069420393,-0.2029661775
1.05,-0.09858154481,-0.1994330109
1.06,-0.1063549324,-0.1955727066
1.07,-0.1139991121,-0.1913885037
1.08,-0.12149896,-0.1868844065
1.09,-0.1288395186,-0.1820651746
1.1,-0.1360060333,-0.1769363129
1.11,-0.1429839876,-0.1715040588
1.12,-0.1497591377,-0.1657753692
1.13,-0.1563175462,-0.1597579048
1.14,-0.1626456156,-0.1534600137
1.15,-0.1687301204,-0.1468907138
1.16,-0.1745582381,-0.140059673
1.17,-0.1801175802,-0.132977189
1.18,-0.1853962212,-0.1256541672
1.19,-0.1903827265,-0.1181020974
1.2,-0.1950661805,-0.1103330299
1.21,-0.1994362114,-0.1023595496
1.22,-0.2034830169,-0.09419474961
1.23,-0.207197387,-0.08585220362
1.24,-0.2105707266,-0.07734593724
1.25,-0.2135950759,-0.06869039852
1.26,-0.2162631298,-0.05990042753
1.27,-0.2185682562,-0.05099122511
1.28,-0.220504512,-0.04197832101
1.29,-0.2220666584,-0.03287754117
1.3,-0.2232501742,-0.02370497457
1.31,-0.2240512676,-0.01447693937
1.32,-0.2244668868,-0.005209948735
1.33,-0.2244947284,0.004079323863
1.34,-0.2241332446,0.0133740796
1.35,-0.2233816488,0.02265742956
1.36,-0.2222399195,0.03191243014
1.37,-0.2207088024,0.04112211857
1.38,-0.2187898108,0.05026954856
1.39,-0.2164852253,0.05933782575
1.4,-0.21379809,0.0683101432
1.41,-0.2107322094,0.07716981662
1.42,-0.2072921417,0.08590031941
1.43,-0.2034831914,0.09448531726
1.44,-0.1993114004,0.1029087025
1.45,-0.1947835376,0.1111546278
1.46,-0.1899070859,0.1192075397
1.47,-0.1846902295,0.1270522108
1.48,-0.179141838,0.1346737723
1.49,-0.1732714501,0.1420577449
1.5,-0.1670892554,0.1491900693
1.51,-0.1606060753,0.1560571359
1.52,-0.153833342,0.1626458133
1.53,-0.1467830765,0.168943476
1.54,-0.1394678655,0.1749380312
1.55,-0.131900837,0.1806179442
1.56,-0.1240956343,0.1859722626
1.57,-0.1160663899,0.1909906398
1.58,-0.1078276974,0.1956633568
1.59,-0.09939458296,0.1999813427
1.6,-0.09078247588,0.2039361941
1.61,-0.08200717798,0.2075201934
1.62,-0.07308483251,0.2107263247
1.63,-0.06403189221,0.2135482893
1.64,-0.05486508676,0.2159805191
1.65,-0.04560138961,0.218018189
1.66,-0.03625798436,0.219657227
1.67,-0.02685223061,0.220894324
1.68,-0.01740162954,0.2217269404
1.69,-0.007923789069,0.2221533128
1.7,0.001563611072,0.2221724576
1.71,0.01104285455,0.2217841745
1.72,0.02049622367,0.2209890468
1.73,0.02990603458,0.2197884418
1.74,0.03925467251,0.2181845078
1.75,0.04852462681,0.2161801712
1.76,0.05769852576,0.2137791309
1.77,0.06675917119,0.2109858514
1.78,0.07568957264,0.2078055546
1.79,0.0844729812,0.2042442099
1.8,0.09309292278,0.2003085225
1.81,0.1015332309,0.1960059207
1.82,0.1097780786,0.1913445414
1.83,0.1178120104,0.1863332144
1.84,0.1256199722,0.1809814449
1.85,0.1331873418,0.1752993952
1.86,0.1404999576,0.1692978644
1.87,0.1475441467,0.1629882678
1.88,0.1543067517,0.1563826136
1.89,0.1607751572,0.1494934802
1.9,0.1669373142,0.1423339905
1.91,0.1727817643,0.1349177868
1.92,0.1782976617,0.1272590034
1.93,0.1834747952,0.119372239
1.94,0.1883036075,0.1112725277
1.95,0.1927752144,0.1029753093
1.96,0.1968814222,0.09449639911
1.97,0.2006147429,0.08585195635
1.98,0.2039684098,0.07705845254
1.99,0.2069363897,0.06813263891
2,0.2095133948,0.05909151336
2.01,0.2116948929,0.04995228694
2.02,0.2134771156,0.04073234997
2.03,0.2148570658,0.03144923773
2.04,0.2158325226,0.02212059602
2.05,0.2164020457,0.01276414638
2.06,0.2165649777,0.003397651275
2.07,0.2163214444,-0.005961120768
2.08,0.2156723547,-0.01529443007
2.09,0.2146193976,-0.02458460054
2.1,0.2131650388,-0.03381405437
2.11,0.2113125151,-0.04296534632
2.12,0.2090658271,-0.05202119794
2.13,0.2064297312,-0.06096453118
2.14,0.2034097292,-0.06977850178
2.15,0.2000120571,-0.07844653201
2.16,0.1962436718,-0.0869523429
2.17,0.1921122374,-0.09527998585
2.18,0.1876261085,-0.1034138735
2.19,0.1827943141,-0.11133881
2.2,0.1776265384,-0.11904002
2.21,0.1721331016,-0.1265031776
2.22,0.1663249388,-0.1337144334
2.23,0.1602135775,-0.1406604414
2.24,0.1538111151,-0.1473283842
2.25,0.1471301936,-0.1537059977
2.26,0.1401839749,-0.1597815941
2.27,0.132986114,-0.1655440844
2.28,0.1255507317,-0.1709829987
2.29,0.1178923862,-0.1760885065
2.3,0.1100260444,-0.1808514345
2.31,0.1019670515,-0.1852632839
2.32,0.09373110097,-0.1893162457
2.33,0.08533420297,-0.1930032154
2.34,0.07679265277,-0.1963178054
2.35,0.06812299839,-0.1992543566
2.36,0.05934200787,-0.2018079484
2.37,0.05046663614,-0.2039744066
2.38,0.04151399161,-0.2057503111
2.39,0.03250130247,-0.2071330008
2.4,0.02344588283,-0.2081205777
2.41,0.01436509878,-0.2087119091
2.42,0.005276334334,-0.2089066289
2.43,-0.003803042496,-0.2087051366
2.44,-0.01285571362,-0.2081085953
2.45,-0.0218644446,-0.2071189278
2.46,-0.03081211811,-0.205738812
2.47,-0.03968176715,-0.2039716737
2.48,-0.0484566079,-0.2018216788
2.49,-0.05712007209,-0.1992937235
2.5,-0.06565583893,-0.1963934237
2.51,-0.0740478665,-0.1931271024
2.52,-0.08228042244,-0.1895017758
2.53,-0.09033811405,-0.1855251385
2.54,-0.09820591765,-0.1812055472
2.55,-0.1058692071,-0.1765520025
2.56,-0.1133137814,-0.1715741305
2.57,-0.1205258917,-0.1662821627
2.58,-0.1274922671,-0.1606869144
2.59,-0.1342001392,-0.1547997627
2.6,-0.1406372662,-0.148632623
2.61,-0.1467919558,-0.1421979243
2.62,-0.1526530862,-0.1355085845
2.63,-0.1582101269,-0.1285779835
2.64,-0.1634531578,-0.1214199362
2.65,-0.1683728871,-0.114048665
2.66,-0.1729606681,-0.1064787707
2.67,-0.1772085144,-0.09872520312
2.68,-0.1811091137,-0.0908032317
2.69,-0.1846558409,-0.08272841447
2.7,-0.1878427692,-0.07451656729
2.71,-0.1906646798,-0.06618373241
2.72,-0.1931170704,-0.05774614666
2.73,-0.1951961623,-0.04922020937
2.74,-0.1968989059,-0.04062245002
2.75,-0.1982229849,-0.03196949581
2.76,-0.1991668189,-0.02327803896
2.77,-0.1997295645,-0.01456480415
2.78,-0.1999111153,-0.005846515828
2.79,-0.1997121002,0.002860134299
2.8,-0.1991338798,0.01153851966
2.81,-0.1981785427,0.02017211097
2.82,-0.1968488986,0.02874450818
2.83,-0.1951484717,0.03723947196
2.84,-0.1930814914,0.04564095489
2.85,-0.1906528825,0.05393313215
2.86,-0.1878682536,0.06210043164
2.87,-0.1847338843,0.07012756361
2.88,-0.1812567115,0.07799954959
2.89,-0.1774443135,0.08570175062
2.9,-0.173304894,0.09321989478
2.91,-0.1688472644,0.1005401039
2.92,-0.1640808246,0.1076489193
2.93,-0.1590155434,0.114533327
2.94,-0.1536619374,0.1211807814
2.95,-0.1480310491,0.1275792286
2.96,-0.1421344237,0.1337171282
2.97,-0.1359840857,0.1395834743
2.98,-0.1295925135,0.1451678153
2.99,-0.1229726146,0.1504602724
3,-0.1161376985,0.1554515575
3.01,-0.1091014505,0.1601329889
3.02,-0.1018779034,0.1644965068
3.03,-0.0944814094,0.1685346869
3.04,-0.08692661143,0.1722407528
3.05,-0.07922841379,0.1756085873
3.06,-0.07140195243,0.1786327423
3.07,-0.06346256495,0.181308447
3.08,-0.05542576018,0.1836316156
3.09,-0.04730718766,0.1855988525
3.1,-0.0391226068,0.1872074571
3.11,-0.03088785607,0.188455427
3.12,-0.02261882203,0.1893414591
3.13,-0.01433140841,0.1898649505
3.14,-0.006041505235,0.1900259972
3.15,0.002235041863,0.1898253918
3.16,0.01048246222,0.1892646193
3.17,0.01868509041,0.1883458527
3.18,0.02682739623,0.1870719461
3.19,0.03489401433,0.1854464269
3.2,0.0428697734,0.1834734872
3.21,0.05073972486,0.1811579732
3.22,0.0584891711,0.1785053735
3.23,0.06610369302,0.1755218068
3.24,0.07356917704,0.1722140077
3.25,0.0808718413,0.1685893117
3.26,0.08799826128,0.164655639
3.27,0.09493539447,0.160421477
3.28,0.1016706043,0.1558958626
3.29,0.1081916833,0.151088362
3.3,0.1144868749,0.1460090512
3.31,0.120544895,0.1406684943
3.32,0.126354952,0.1350777217
3.33,0.1319067655,0.1292482071
3.34,0.1371905853,0.1231918435
3.35,0.1421972075,0.1169209195
3.36,0.1469179908,0.1104480935
3.37,0.151344871,0.1037863683
3.38,0.1554703748,0.09694906494
3.39,0.1592876318,0.08994979546
3.4,0.162790386,0.08280243602
3.41,0.1659730052,0.07552109899
3.42,0.1688304899,0.06812010497
3.43,0.171358481,0.06061395442
3.44,0.173553265,0.05301729909
3.45,0.1754117799,0.04534491321
3.46,0.176931618,0.03761166462
3.47,0.1781110282,0.02983248576
3.48,0.1789489175,0.02202234471
3.49,0.1794448502,0.01419621622
3.5,0.1795990464,0.006369052845
3.51,0.1794123793,-0.001444243701
3.52,0.1788863713,-0.009228851086
3.53,0.178023188,-0.01697005455
3.54,0.1768256324,-0.02465327483
3.55,0.1752971365,-0.03226409568
3.56,0.173441753,-0.03978829096
3.57,0.1712641446,-0.04721185134
3.58,0.1687695728,-0.05452101031
3.59,0.1659638861,-0.06170226982
3.6,0.1628535058,-0.0687424251
3.61,0.159445412,-0.07562858898
3.62,0.1557471278,-0.08234821541
3.63,0.1517667029,-0.08888912223
3.64,0.1475126961,-0.09523951317
3.65,0.1429941568,-0.101387999
3.66,0.138220606,-0.1073236178
3.67,0.1332020161,-0.1130358545
3.68,0.1279487898,-0.118514659
3.69,0.1224717388,-0.1237504638
3.7,0.1167820613,-0.1287342007
3.71,0.1108913192,-0.1334573157
3.72,0.1048114142,-0.1379117839
3.73,0.09855456387,-0.1420901225
3.74,0.09213327708,-0.1459854031
3.75,0.08556032872,-0.1495912627
3.76,0.07884873428,-0.1529019138
3.77,0.07201172393,-0.1559121528
3.78,0.0650627164,-0.1586173684
3.79,0.05801529249,-0.1610135471
3.8,0.05088316849,-0.1630972793
3.81,0.04368016938,-0.1648657629
3.82,0.03642020194,-0.1663168065
3.83,0.02911722788,-0.1674488308
3.84,0.02178523689,-0.1682608696
3.85,0.01443821983,-0.1687525688
3.86,0.007090141949,-0.1689241847
3.87,-0.0002450836281,-0.1687765809
3.88,-0.007553622297,-0.1683112246
3.89,-0.01482174404,-0.1675301809
3.9,-0.02203584924,-0.1664361065
3.91,-0.02918249402,-0.1650322422
3.92,-0.03624841535,-0.1633224045
3.93,-0.04322055551,-0.1613109758
3.94,-0.0500860862,-0.1590028935
3.95,-0.05683243201,-0.1564036389
3.96,-0.06344729335,-0.1535192236
3.97,-0.06991866874,-0.1503561767
3.98,-0.07623487643,-0.1469215298
3.99,-0.08238457531,-0.1432228013
4,-0.08835678509,-0.1392679805
4.01,-0.09414090567,-0.1350655103
4.02,-0.09972673571,-0.1306242689
4.03,-0.1051044904,-0.1259535514
4.04,-0.1102648183,-0.1210630503
4.05,-0.1151988172,-0.1159628354
4.06,-0.1198980494,-0.110663333
4.07,-0.1243545554,-0.1051753043
4.08,-0.1285608673,-0.09950982431
4.09,-0.1325100209,-0.09367825858
4.1,-0.1361955664,-0.08769224094
4.11,-0.1396115789,-0.08156365004
4.12,-0.1427526671,-0.07530458582
4.13,-0.1456139817,-0.06892734556
4.14,-0.1481912214,-0.06244439972
4.15,-0.1504806397,-0.05586836754
4.16,-0.1524790488,-0.04921199246
4.17,-0.1541838238,-0.04248811743
4.18,-0.155592905,-0.03570966012
4.19,-0.1567047992,-0.02888958812
4.2,-0.1575185805,-0.02204089421
4.21,-0.1580338891,-0.01517657154
4.22,-0.1582509298,-0.00830958913
4.23,-0.1581704693,-0.001452867358
4.24,-0.1577938317,0.00538074625
4.25,-0.1571228944,0.01217850102
4.26,-0.1561600813,0.01892776681
4.27,-0.1549083564,0.02561605739
4.28,-0.1533712155,0.03223105337
4.29,-0.1515526775,0.03876062481
4.3,-0.1494572744,0.04519285324
4.31,-0.1470900401,0.05151605329
4.32,-0.1444564996,0.0577187937
4.33,-0.1415626552,0.06378991778
4.34,-0.1384149742,0.06971856328
4.35,-0.1350203737,0.07549418153
4.36,-0.1313862064,0.08110655598
4.37,-0.127520244,0.08654581998
4.38,-0.1234306612,0.09180247383
4.39,-0.1191260183,0.09686740104
4.4,-0.1146152434,0.1017318838
4.41,-0.109907614,0.1063876177
4.42,-0.1050127378,0.1108267252
4.43,-0.0999405332,0.1150417691
4.44,-0.09470120943,0.1190257642
4.45,-0.08930524571,0.1227721882
4.46,-0.08376337054,0.1262749924
4.47,-0.07808654032,0.1295286107
4.48,-0.07228591777,0.1325279679
4.49,-0.06637284997,0.1352684868
4.5,-0.06035884625,0.1377460951
4.51,-0.05425555582,0.1399572303
4.52,-0.04807474523,0.141898844
4.53,-0.0418282758,0.143568406
4.54,-0.03552808089,0.1449639057
4.55,-0.02918614319,0.1460838545
4.56,-0.02281447203,0.1469272854
4.57,-0.01642508071,0.147493753
4.58,-0.01002996401,0.1477833318
4.59,-0.003641075724,0.1477966134
4.6,0.002729693499,0.1475347037
4.61,0.00907053816,0.1469992176
4.62,0.01536975963,0.1461922746
4.63,0.02161578755,0.1451164916
4.64,0.02779720092,0.1437749766
4.65,0.03390274878,0.14217132
4.66,0.03992137046,0.1403095859
4.67,0.0458422154,0.1381943023
4.68,0.05165466249,0.1358304507
4.69,0.05734833884,0.1332234544
4.7,0.06291313803,0.1303791664
4.71,0.06833923777,0.1273038569
4.72,0.07361711693,0.124004199
4.73,0.07873757193,0.1204872548
4.74,0.08369173242,0.1167604606
4.75,0.08847107638,0.1128316109
4.76,0.0930674443,0.1087088423
4.77,0.09747305282,0.1044006169
4.78,0.1016805074,0.09991570509
4.79,0.1056828145,0.09526316749
4.8,0.1094733924,0.09045233692
4.81,0.1130460819,0.08549279976
4.82,0.1163951558,0.08039437687
4.83,0.1195153274,0.07516710427
4.84,0.1224017582,0.06982121345
4.85,0.1250500652,0.06436711141
4.86,0.1274563267,0.05881536056
4.87,0.1296170874,0.05317665827
4.88,0.1315293629,0.04746181647
4.89,0.1331906428,0.04168174091
4.9,0.1345988933,0.03584741057
4.91,0.1357525586,0.02996985687
4.92,0.1366505621,0.02406014298
4.93,0.1372923053,0.01812934312
4.94,0.1376776675,0.01218852197
4.95,0.1378070034,0.00624871418
4.96,0.1376811402,0.0003209040838
4.97,0.1373013741,-0.005583994473
4.98,0.1366694656,-0.01145515801
4.99,0.135787634,-0.01728187303
5,0.1346585513,-0.0230535554
5.01,0.133285335,-0.02875976928
5.02,0.1316715404,-0.0343902458
5.03,0.1298211519,-0.03993490127
5.04,0.1277385736,-0.04538385495
5.05,0.1254286193,-0.05072744644
5.06,0.1228965018,-0.05595625243
5.07,0.1201478209,-0.06106110311
5.08,0.1171885518,-0.06603309784
5.09,0.1140250323,-0.07086362041
5.1,0.1106639488,-0.07554435358
5.11,0.1071123232,-0.08006729309
5.12,0.1033774976,-0.08442476093
5.13,0.0994671198,-0.08860941802
5.14,0.09538912745,-0.09261427614
5.15,0.09115173224,-0.09643270922
5.16,0.0867634034,-0.1000584638
5.17,0.08223285093,-0.1034856691
5.18,0.07756900842,-0.1067088454
5.19,0.07278101554,-0.1097229131
5.2,0.06787820028,-0.1125231997
5.21,0.06287006087,-0.1151054468
5.22,0.05776624754,-0.1174658157
5.23,0.05257654404,-0.1196008927
5.24,0.04731084901,-0.1215076935
5.25,0.04197915727,-0.1231836666
5.26,0.03659154101,-0.1246266957
5.27,0.03115813088,-0.1258351021
5.28,0.02568909711,-0.1268076454
5.29,0.0201946307,-0.1275435236
5.3,0.01468492456,-0.1280423732
5.31,0.009170154789,-0.1283042669
5.32,0.003660462116,-0.1283297122
5.33,-0.001834066575,-0.1281196482
5.34,-0.007303416479,-0.1276754417
5.35,-0.01273766291,-0.1269988829
5.36,-0.01812698905,-0.1260921803
5.37,-0.02346170349,-0.1249579544
5.38,-0.02873225735,-0.123599231
5.39,-0.03392926113,-0.1220194341
5.4,-0.03904350119,-0.1202223777
5.41,-0.04406595577,-0.1182122566
5.42,-0.04898781061,-0.1159936374
5.43,-0.05380047415,-0.1135714485
5.44,-0.05849559218,-0.110950969
5.45,-0.06306506206,-0.1081378177
5.46,-0.06750104633,-0.1051379412
5.47,-0.07179598582,-0.1019576016
5.48,-0.07594261223,-0.09860336349
5.49,-0.07993395997,-0.09508208061
5.5,-0.08376337757,-0.091400882
5.51,-0.08742453835,-0.08756715776
5.52,-0.09091145047,-0.08358854429
5.53,-0.0942184663,-0.07947290929
5.54,-0.0973402912,-0.0752283363
5.55,-0.1002719915,-0.07086310901
5.56,-0.1030090018,-0.06638569519
5.57,-0.1055471319,-0.06180473047
5.58,-0.1078825722,-0.05712900179
5.59,-0.1100118992,-0.05236743072
5.6,-0.1119320802,-0.04752905659
5.61,-0.1136404765,-0.04262301952
5.62,-0.1151348468,-0.03765854327
5.63,-0.1164133495,-0.03264491813
5.64,-0.1174745438,-0.02759148367
5.65,-0.118317391,-0.02250761155
5.66,-0.1189412541,-0.01740268834
5.67,-0.1193458977,-0.01228609838
5.68,-0.1195314859,-0.007167206713
5.69,-0.1194985808,-0.002055342201
5.7,-0.1192481393,0.003040219292
5.71,-0.1187815098,0.00811027149
5.72,-0.1181004278,0.01314569411
5.73,-0.1172070111,0.01813746902
5.74,-0.1161037541,0.02307669615
5.75,-0.1147935219,0.02795460909
5.76,-0.1132795429,0.03276259043
5.77,-0.1115654019,0.03749218665
5.78,-0.1096550316,0.04213512275
5.79,-0.1075527039,0.04668331643
5.8,-0.105263021,0.05112889188
5.81,-0.1027909049,0.05546419311
5.82,-0.100141588,0.05968179681
5.83,-0.09732060138,0.0637745248
5.84,-0.0943337638,0.06773545588
5.85,-0.09118716993,0.0715579372
5.86,-0.08788717801,0.07523559515
5.87,-0.08444039716,0.07876234559
5.88,-0.08085367436,0.08213240359
5.89,-0.07713408094,0.08534029254
5.9,-0.07328889887,0.0883808527
5.91,-0.06932560661,0.09124924908
5.92,-0.06525186475,0.09394097877
5.93,-0.06107550136,0.09645187759
5.94,-0.05680449712,0.09877812608
5.95,-0.05244697019,0.1009162549
5.96,-0.04801116103,0.1028631496
5.97,-0.0435054169,0.1046160545
5.98,-0.03893817637,0.1061725763
5.99,-0.03431795371,0.1075306866
6,-0.02965332316,0.1086887242
