"Freq [GHz]","re(S(Tx_p1,Tx_p1)) []","im(S(Tx_p1,Tx_p1)) []"
1,-0.004433765112,-0.004224613719
1.01,-0.004592739318,-0.004004687641
1.02,-0.004740995483,-0.003778320473
1.03,-0.004878227918,-0.003546068011
1.04,-0.005004163616,-0.0033085018
1.05,-0.005118562955,-0.003066207052
1.06,-0.005221220286,-0.002819780538
1.07,-0.005311964378,-0.002569828465
1.08,-0.005390658744,-0.002316964352
1.09,-0.005457201831,-0.002061806905
1.1,-0.005511527087,-0.001804977895
1.11,-0.0055536029,-0.001547100061
1.12,-0.005583432415,-0.001288795027
1.13,-0.005601053222,-0.001030681255
1.14,-0.005606536936,-0.0007733720304
1.15,-0.005599988648,-0.0005174734909
1.16,-0.005581546277,-0.0002635827074
1.17,-0.005551379801,-1.228581762E-05
1.18,-0.00550969039,0.0002358437766
1.19,-0.005456709436,0.0004802471459
1.2,-0.005392697489,0.0007203814969
1.21,-0.005317943105,0.000955721758
1.22,-0.005232761601,0.001185762083
1.23,-0.005137493736,0.001410017269
1.24,-0.005032504323,0.001628024077
1.25,-0.004918180762,0.001839342473
1.26,-0.00479493152,0.002043556752
1.27,-0.004663184555,0.002240276574
1.28,-0.004523385685,0.002429137899
1.29,-0.004375996926,0.002609803801
1.3,-0.004221494784,0.002781965198
1.31,-0.004060368524,0.002945341451
1.32,-0.003893118415,0.00309968087
1.33,-0.003720253961,0.003244761103
1.34,-0.003542292124,0.00338038942
1.35,-0.003359755543,0.003506402881
1.36,-0.00317317076,0.003622668404
1.37,-0.002983066459,0.003729082719
1.38,-0.002789971716,0.003825572222
1.39,-0.002594414282,0.00391209272
1.4,-0.002396918889,0.003988629076
1.41,-0.002198005598,0.004055194762
1.42,-0.001998188186,0.004111831305
1.43,-0.001797972579,0.004158607648
1.44,-0.001597855341,0.004195619423
1.45,-0.001398322218,0.004222988133
1.46,-0.001199846745,0.004240860262
1.47,-0.001002888925,0.004249406298
1.48,-0.0008078939683,0.004248819699
1.49,-0.0006152911167,0.004239315778
1.5,-0.000425492541,0.004221130536
1.51,-0.0002388923211,0.004194519437
1.52,-5.586551027E-05,0.004159756132
1.53,0.0001232327142,0.004117131136
1.54,0.0002980678112,0.004066950473
1.55,0.000468326546,0.004009534277
1.56,0.0006337175685,0.003945215376
1.57,0.0007939718992,0.00387433785
1.58,0.0009488433213,0.003797255569
1.59,0.00109810868,0.003714330733
1.6,0.001241568089,0.003625932395
1.61,0.001379045042,0.003532434996
1.62,0.001510386435,0.003434216903
1.63,0.001635462498,0.003331658962
1.64,0.001754166635,0.003225143069
1.65,0.001866415178,0.00311505077
1.66,0.001972147063,0.003001761882
1.67,0.002071323408,0.002885653161
1.68,0.00216392703,0.002767096995
1.69,0.002249961874,0.002646460159
1.7,0.002329452372,0.0025241026
1.71,0.002402442736,0.002400376291
1.72,0.002468996179,0.002275624134
1.73,0.002529194086,0.002150178925
1.74,0.002583135117,0.002024362383
1.75,0.002630934265,0.001898484245
1.76,0.002672721867,0.001772841437
1.77,0.002708642563,0.00164771731
1.78,0.002738854234,0.001523380951
1.79,0.002763526892,0.001400086577
1.8,0.002782841552,0.001278073
1.81,0.002796989076,0.001157563172
1.82,0.002806169009,0.001038763814
1.83,0.00281058839,0.0009218651189
1.84,0.002810460571,0.0008070405396
1.85,0.002806004027,0.0006944466539
1.86,0.002797441169,0.000584223111
1.87,0.00278499717,0.0004764926545
1.88,0.002768898807,0.0003713612249
1.89,0.002749373316,0.0002689181356
1.9,0.002726647279,0.0001692363249
1.91,0.002700945527,7.237267817E-05
1.92,0.002672490097,-2.163157952E-05
1.93,0.002641499201,-0.0001127504247
1.94,0.002608186259,-0.0002009725127
1.95,0.002572758966,-0.0002863005946
1.96,0.002535418405,-0.000368750877
1.97,0.002496358225,-0.0004483523282
1.98,0.002455763866,-0.0005251459353
1.99,0.00241381184,-0.0005991839147
2,0.002370669082,-0.000670528883
2.01,0.002326492358,-0.000739252989
2.02,0.002281427743,-0.0008054370146
2.03,0.00223561016,-0.0008691694472
2.04,0.002189162997,-0.0009305455288
2.05,0.002142197783,-0.0009896662871
2.06,0.002094813946,-0.001046637552
2.07,0.002047098634,-0.001101568965
2.08,0.00199912661,-0.001154572981
2.09,0.001950960219,-0.001205763876
2.1,0.001902649425,-0.001255256756
2.11,0.001854231917,-0.001303166579
2.12,0.001805733287,-0.001349607188
2.13,0.001757167271,-0.00139469037
2.14,0.001708536062,-0.001438524934
2.15,0.001659830679,-0.001481215816
2.16,0.001611031407,-0.001522863224
2.17,0.001562108286,-0.001563561811
2.18,0.001513021665,-0.001603399893
2.19,0.001463722806,-0.001642458713
2.2,0.001414154538,-0.001680811745
2.21,0.001364251957,-0.001718524056
2.22,0.001313943175,-0.001755651722
2.23,0.001263150097,-0.001792241291
2.24,0.001211789245,-0.001828329318
2.25,0.00115977261,-0.001863941951
2.26,0.001107008523,-0.001899094584
2.27,0.001053402562,-0.001933791576
2.28,0.0009988584674,-0.001968026034
2.29,0.0009432790747,-0.002001779663
2.3,0.0008865672551,-0.002035022684
2.31,0.0008286268613,-0.002067713821
2.32,0.0007693636733,-0.002099800359
2.33,0.0007086863381,-0.002131218264
2.34,0.0006465073014,-0.002161892375
2.35,0.0005827437235,-0.002191736665
2.36,0.0005173183784,-0.002220654562
2.37,0.0004501605282,-0.002248539342
2.38,0.000381206771,-0.002275274575
2.39,0.0003104018571,-0.002300734648
2.4,0.0002376994691,-0.002324785326
2.41,0.0001630629624,-0.002347284391
2.42,8.646606215E-05,-0.002368082315
2.43,7.893513763E-06,-0.002387023001
2.44,-7.265831816E-05,-0.002403944557
2.45,-0.0001551809037,-0.002418680125
2.46,-0.0002396530584,-0.002431058745
2.47,-0.0003260405135,-0.002440906257
2.48,-0.0004142955478,-0.002448046237
2.49,-0.0005043566836,-0.002452300955
2.5,-0.0005961484484,-0.002453492372
2.51,-0.0006895812051,-0.002451443141
2.52,-0.0007845510495,-0.002445977631
2.53,-0.0008809397799,-0.002436922963
2.54,-0.0009786149355,-0.002424110052
2.55,-0.001077429908,-0.002407374645
2.56,-0.001177224124,-0.002386558362
2.57,-0.001277823298,-0.00236150973
2.58,-0.001379039756,-0.002332085197
2.59,-0.001480672834,-0.002298150135
2.6,-0.001582509337,-0.002259579822
2.61,-0.001684324076,-0.002216260392
2.62,-0.001785880463,-0.002168089758
2.63,-0.001886931174,-0.0021149785
2.64,-0.001987218873,-0.00205685071
2.65,-0.002086476998,-0.001993644799
2.66,-0.0021844306,-0.001925314248
2.67,-0.002280797241,-0.001851828319
2.68,-0.002375287937,-0.001773172697
2.69,-0.002467608151,-0.00168935009
2.7,-0.002557458834,-0.001600380749
2.71,-0.002644537495,-0.001506302942
2.72,-0.002728539317,-0.001407173345
2.73,-0.002809158302,-0.001303067376
2.74,-0.002886088436,-0.001194079445
2.75,-0.002959024889,-0.001080323146
2.76,-0.00302766522,-0.0009619313566
2.77,-0.003091710605,-0.000839056272
2.78,-0.003150867068,-0.0007118693599
2.79,-0.003204846717,-0.0005805612346
2.8,-0.003253368976,-0.0004453414535
2.81,-0.00329616182,-0.0003064382355
2.82,-0.003332962983,-0.0001640981004
2.83,-0.003363521162,-1.858542978E-05
2.84,-0.003387597195,0.0001298180481
2.85,-0.003404965215,0.0002808138505
2.86,-0.003415413768,0.0004340874061
2.87,-0.003418746899,0.0005893087942
2.88,-0.0034147852,0.0007461335543
2.89,-0.003403366807,0.0009042035644
2.9,-0.003384348353,0.001063147984
2.91,-0.00335760586,0.001222584262
2.92,-0.003323035589,0.001382119201
2.93,-0.003280554807,0.001541350082
2.94,-0.00323010251,0.001699865837
2.95,-0.003171640063,0.001857248274
2.96,-0.003105151775,0.002013073347
2.97,-0.0030306454,0.00216691246
2.98,-0.002948152559,0.002318333818
2.99,-0.002857729083,0.002466903796
3,-0.002759455275,0.002612188346
3.01,-0.002653436088,0.002753754419
3.02,-0.00253980122,0.002891171406
3.03,-0.002418705123,0.003024012588
3.04,-0.002290326923,0.003151856596
3.05,-0.002154870254,0.00327428887
3.06,-0.002012563003,0.003390903111
3.07,-0.001863656975,0.003501302728
3.08,-0.001708427459,0.003605102268
3.09,-0.001547172715,0.003701928827
3.1,-0.001380213377,0.003791423432
3.11,-0.001207891767,0.003873242395
3.12,-0.001030571131,0.003947058634
3.13,-0.0008486347929,0.004012562948
3.14,-0.0006624852298,0.004069465251
3.15,-0.0004725430744,0.004117495752
3.16,-0.0002792460427,0.004156406083
3.17,-8.304779349E-05,0.004185970366
3.18,0.0001155832781,0.004205986217
3.19,0.0003161653097,0.004216275686
3.2,0.0005182042988,0.004216686115
3.21,0.0007211954835,0.004207090938
3.22,0.0009246247741,0.004187390385
3.23,0.001127970229,0.004157512119
3.24,0.001330703572,0.00411741178
3.25,0.001532291742,0.004067073446
3.26,0.00173219848,0.004006510007
3.27,0.001929885935,0.003935763444
3.28,0.002124816289,0.003854905019
3.29,0.002316453406,0.00376403537
3.3,0.002504264479,0.003663284515
3.31,0.002687721687,0.003552811754
3.32,0.002866303848,0.003432805484
3.33,0.003039498065,0.003303482911
3.34,0.003206801361,0.003165089671
3.35,0.003367722288,0.003017899359
3.36,0.003521782523,0.002862212959
3.37,0.003668518422,0.002698358185
3.38,0.003807482551,0.002526688734
3.39,0.003938245166,0.002347583447
3.4,0.004060395654,0.002161445384
3.41,0.004173543924,0.001968700819
3.42,0.004277321737,0.001769798151
3.43,0.00437138398,0.001565206742
3.44,0.004455409877,0.001355415675
3.45,0.004529104126,0.001140932446
3.46,0.004592197969,0.0009222815895
3.47,0.004644450177,0.0007000032428
3.48,0.004685647966,0.0004746516479
3.49,0.004715607819,0.0002467936066
3.5,0.004734176224,1.700688387E-05
3.51,0.004741230328,-0.0002141214311
3.52,0.004736678491,-0.0004459966013
3.53,0.004720460749,-0.000678017952
3.54,0.004692549184,-0.000909580607
3.55,0.00465294819,-0.001140077247
3.56,0.004601694646,-0.001368899885
3.57,0.004538857985,-0.001595441651
3.58,0.004464540166,-0.001819098581
3.59,0.004378875541,-0.002039271405
3.6,0.004282030627,-0.002255367333
3.61,0.004174203773,-0.002466801819
3.62,0.00405562473,-0.002673000315
3.63,0.003926554124,-0.002873399998
3.64,0.003787282829,-0.003067451467
3.65,0.003638131246,-0.003254620406
3.66,0.003479448492,-0.003434389206
3.67,0.003311611494,-0.00360625854
3.68,0.003135023996,-0.003769748891
3.69,0.002950115483,-0.003924402021
3.7,0.002757340024,-0.004069782378
3.71,0.002557175032,-0.004205478444
3.72,0.002350119953,-0.004331104005
3.73,0.002136694884,-0.004446299354
3.74,0.001917439125,-0.004550732414
3.75,0.001692909671,-0.004644099781
3.76,0.001463679638,-0.004726127677
3.77,0.001230336654,-0.004796572821
3.78,0.0009934811842,-0.004855223207
3.79,0.0007537248253,-0.004901898793
3.8,0.0005116885625,-0.004936452082
3.81,0.0002680009913,-0.004958768622
3.82,2.32965165E-05,-0.004968767394
3.83,-0.0002217864694,-0.004966401105
3.84,-0.0004666074219,-0.004951656383
3.85,-0.0007105254892,-0.004924553861
3.86,-0.0009529013592,-0.004885148164
3.87,-0.001193099103,-0.004833527798
3.88,-0.001430488012,-0.004769814928
3.89,-0.001664444416,-0.004694165059
3.9,-0.001894353486,-0.004606766619
3.91,-0.002119611006,-0.004507840438
3.92,-0.002339625122,-0.004397639135
3.93,-0.002553818041,-0.004276446404
3.94,-0.002761627702,-0.004144576211
3.95,-0.00296250939,-0.004002371898
3.96,-0.0031559373,-0.003850205203
3.97,-0.003341406049,-0.003688475188
3.98,-0.003518432119,-0.003517607093
3.99,-0.003686555238,-0.003338051109
4,-0.003845339689,-0.003150281079
4.01,-0.003994375548,-0.002954793124
4.02,-0.00413327984,-0.002752104212
4.03,-0.004261697614,-0.002542750661
4.04,-0.004379302936,-0.002327286585
4.05,-0.004485799791,-0.002106282292
4.06,-0.004580922898,-0.001880322632
4.07,-0.004664438428,-0.001650005313
4.08,-0.004736144633,-0.001415939167
4.09,-0.004795872373,-0.001178742396
4.1,-0.004843485548,-0.000939040794
4.11,-0.004878881429,-0.0006974659404
4.12,-0.004901990893,-0.0004546533902
4.13,-0.004912778554,-0.0002112408495
4.14,-0.004911242792,3.213364914E-05
4.15,-0.004897415688,0.0002748335686
4.16,-0.004871362853,0.0005162256799
4.17,-0.004833183162,0.000755681861
4.18,-0.004783008383,0.0009925808757
4.19,-0.004721002722,0.001226310127
4.2,-0.004647362258,0.001456267381
4.21,-0.0045623143,0.001681862453
4.22,-0.004466116639,0.001902518853
4.23,-0.004359056723,0.00211767539
4.24,-0.004241450743,0.002326787719
4.25,-0.004113642633,0.002529329838
4.26,-0.003976002999,0.002724795521
4.27,-0.003828927966,0.002912699692
4.28,-0.003672837957,0.003092579729
4.29,-0.003508176403,0.003263996697
4.3,-0.003335408394,0.003426536505
4.31,-0.003155019263,0.003579810987
4.32,-0.002967513124,0.003723458898
4.33,-0.002773411357,0.003857146833
4.34,-0.002573251047,0.003980570051
4.35,-0.002367583389,0.004093453218
4.36,-0.00215697205,0.004195551055
4.37,-0.001941991507,0.004286648896
4.38,-0.001723225362,0.004366563155
4.39,-0.001501264636,0.00443514169
4.4,-0.001276706046,0.004492264085
4.41,-0.001050150282,0.004537841826
4.42,-0.0008222002722,0.004571818388
4.43,-0.0005934594569,0.004594169222
4.44,-0.000364530068,0.004604901656
4.45,-0.0001360114207,0.004604054686
4.46,9.150177562E-05,0.004591698697
4.47,0.0003174210839,0.00456793507
4.48,0.0005411659775,0.004532895717
4.49,0.0007621654453,0.004486742517
4.5,0.0009798595593,0.004429666675
4.51,0.001193701,0.004361887988
4.52,0.001403156533,0.004283654044
4.53,0.001607708439,0.004195239331
4.54,0.001806855885,0.004096944282
4.55,0.002000116237,0.003989094241
4.56,0.002187026312,0.003872038367
4.57,0.00236714356,0.003746148479
4.58,0.002540047184,0.003611817827
4.59,0.00270533918,0.003469459826
4.6,0.002862645307,0.003319506727
4.61,0.003011615977,0.003162408244
4.62,0.003151927067,0.002998630144
4.63,0.003283280651,0.002828652792
4.64,0.003405405641,0.00265296967
4.65,0.003518058359,0.002472085868
4.66,0.003621023002,0.002286516543
4.67,0.003714112043,0.002096785375
4.68,0.003797166525,0.001903422998
4.69,0.003870056284,0.001706965424
4.7,0.003932680073,0.001507952474
4.71,0.003984965604,0.001306926197
4.72,0.004026869505,0.001104429302
4.73,0.004058377185,0.0009010036046
4.74,0.004079502625,0.0006971884824
4.75,0.004090288073,0.0004935193559
4.76,0.004090803667,0.0002905261924
4.77,0.004081146976,8.873204066E-05
4.78,0.00406144246,-0.0001113484019
4.79,0.004031840859,-0.000309210183
4.8,0.003992518507,-0.000504359448
4.81,0.003943676575,-0.0006963147466
4.82,0.00388554025,-0.00088460829
4.83,0.003818357849,-0.001068787155
4.84,0.003742399868,-0.001248414433
4.85,0.003657957983,-0.001423070319
4.86,0.003565343987,-0.001592353139
4.87,0.003464888688,-0.00175588031
4.88,0.003356940751,-0.001913289242
4.89,0.003241865504,-0.002064238158
4.9,0.003120043711,-0.002208406855
4.91,0.002991870297,-0.002345497382
4.92,0.00285775306,-0.002475234655
4.93,0.002718111349,-0.002597366985
4.94,0.002573374723,-0.002711666539
4.95,0.002423981593,-0.002817929721
4.96,0.002270377858,-0.002915977474
4.97,0.002113015528,-0.003005655507
4.98,0.001952351344,-0.003086834447
4.99,0.001788845403,-0.003159409905
5,0.001622959786,-0.003223302479
5.01,0.001455157199,-0.003278457672
5.02,0.001285899621,-0.003324845735
5.03,0.001115646983,-0.003362461445
5.04,0.0009448558537,-0.003391323805
5.05,0.0007739781648,-0.003411475675
5.06,0.0006034599567,-0.003422983336
5.07,0.0004337401628,-0.003425935991
5.08,0.0002652494287,-0.003420445196
5.09,9.840897151E-05,-0.003406644235
5.1,-6.637051682E-05,-0.00338468744
5.11,-0.0002286899208,-0.003354749447
5.12,-0.0003881627032,-0.003317024404
5.13,-0.0005444158552,-0.003271725136
5.14,-0.0006970907932,-0.003219082251
5.15,-0.0008458441988,-0.003159343215
5.16,-0.0009903488009,-0.003092771384
5.17,-0.001130294098,-0.003019644999
5.18,-0.00126538702,-0.002940256148
5.19,-0.001395352523,-0.002854909709
5.2,-0.001519934129,-0.002763922254
5.21,-0.001638894391,-0.002667620947
5.22,-0.001752015299,-0.002566342415
5.23,-0.001859098615,-0.00246043161
5.24,-0.001959966153,-0.002350240663
5.25,-0.002054459977,-0.002236127731
5.26,-0.002142442546,-0.002118455841
5.27,-0.002223796785,-0.00199759174
5.28,-0.002298426104,-0.001873904749
5.29,-0.002366254332,-0.001747765623
5.3,-0.002427225614,-0.001619545434
5.31,-0.00248130422,-0.001489614457
5.32,-0.00252847432,-0.001358341086
5.33,-0.002568739677,-0.001226090771
5.34,-0.002602123302,-0.001093224978
5.35,-0.00262866704,-0.0009601001829
5.36,-0.002648431115,-0.0008270668919
5.37,-0.002661493615,-0.0006944687021
5.38,-0.002667949939,-0.0005626413963
5.39,-0.002667912187,-0.0004319120788
5.4,-0.002661508521,-0.0003025983527
5.41,-0.002648882471,-0.0001750075419
5.42,-0.002630192219,-4.943595779E-05
5.43,-0.002605609836,7.383178461E-05
5.44,-0.002575320497,0.0001945234027
5.45,-0.002539521665,0.0003123795313
5.46,-0.002498422248,0.0004271542557
5.47,-0.002452241738,0.0005386155928
5.48,-0.002401209328,0.000646545918
5.49,-0.002345563018,0.0007507423388
5.5,-0.002285548707,0.0008510170137
5.51,-0.002221419273,0.0009471974165
5.52,-0.002153433655,0.001039126547
5.53,-0.002081855923,0.001126663084
5.54,-0.002006954362,0.001209681493
5.55,-0.001929000544,0.001288072067
5.56,-0.00184826842,0.001361740927
5.57,-0.001765033416,0.001430609965
5.58,-0.001679571544,0.001494616735
5.59,-0.001592158525,0.0015537143
5.6,-0.001503068936,0.001607871027
5.61,-0.001412575374,0.001657070334
5.62,-0.001320947644,0.001701310396
5.63,-0.001228451975,0.001740603807
5.64,-0.001135350259,0.001774977198
5.65,-0.001041899328,0.001804470819
5.66,-0.0009483502568,0.001829138085
5.67,-0.0008549477022,0.001849045082
5.68,-0.0007619292772,0.001864270047
5.69,-0.0006695249633,0.001874902812
5.7,-0.0005779565611,0.001881044228
5.71,-0.0004874371803,0.001882805556
5.72,-0.0003981707708,0.001880307838
5.73,-0.0003103516961,0.001873681256
5.74,-0.0002241643482,0.001863064461
5.75,-0.0001397828065,0.001848603896
5.76,-5.737053927E-05,0.001830453107
5.77,2.291984999E-05,0.001808772042
5.78,0.0001009468337,0.001783726344
5.79,0.0001765801266,0.001755486644
5.8,0.0002497008097,0.001724227846
5.81,0.0003202014097,0.001690128423
5.82,0.0003879859378,0.001653369705
5.83,0.0004529698846,0.001614135186
5.84,0.0005150801758,0.00157260983
5.85,0.0005742550866,0.001528979396
5.86,0.0006304441177,0.001483429767
5.87,0.0006836078336,0.001436146307
5.88,0.0007337176642,0.001387313226
5.89,0.0007807556716,0.001337112967
5.9,0.0008247142836,0.001285725618
5.91,0.0008655959957,0.001233328342
5.92,0.0009034130423,0.00118009484
5.93,0.0009381870406,0.001126194831
5.94,0.000969948608,0.001071793566
5.95,0.0009987369549,0.001017051371
5.96,0.001024599456,0.0009621232203
5.97,0.0010475912,0.0009071583363
5.98,0.001067774523,0.0008522998299
5.99,0.001085218527,0.0007976843675
6,0.001099998577,0.0007434418746
