"Freq [GHz]","re(S(Tx_p1,Tx_p1)) []","im(S(Tx_p1,Tx_p1)) []"
1,-0.01395184471,-0.1320345614
1.01,-0.01829664869,-0.1313758502
1.02,-0.02263047048,-0.1305760196
1.03,-0.02694811208,-0.1296347569
1.04,-0.03124439298,-0.1285519676
1.05,-0.03551415682,-0.1273277686
1.06,-0.03975227733,-0.1259624809
1.07,-0.04395366369,-0.1244566238
1.08,-0.04811326534,-0.1228109078
1.09,-0.05222607623,-0.1210262294
1.1,-0.05628713853,-0.1191036646
1.11,-0.060291546,-0.117044464
1.12,-0.06423444689,-0.1148500471
1.13,-0.06811104649,-0.1125219984
1.14,-0.07191660937,-0.1100620621
1.15,-0.07564646141,-0.1074721385
1.16,-0.07929599153,-0.1047542805
1.17,-0.08286065333,-0.1019106899
1.18,-0.08633596657,-0.09894371504
1.19,-0.08971751856,-0.09585584766
1.2,-0.0930009656,-0.09264972129
1.21,-0.09618203431,-0.08932810918
1.22,-0.09925652313,-0.08589392297
1.23,-0.1022203039,-0.0823502115
1.24,-0.1050693234,-0.07870016005
1.25,-0.1077996054,-0.07494708976
1.26,-0.1104072526,-0.07109445738
1.27,-0.1128884491,-0.0671458552
1.28,-0.1152394628,-0.06310501115
1.29,-0.1174566482,-0.05897578916
1.3,-0.1195364499,-0.0547621895
1.31,-0.1214754058,-0.05046834932
1.32,-0.1232701515,-0.04609854313
1.33,-0.1249174237,-0.0416571834
1.34,-0.1264140656,-0.03714882098
1.35,-0.1277570316,-0.03257814557
1.36,-0.1289433928,-0.02794998594
1.37,-0.1299703425,-0.02326931008
1.38,-0.1308352029,-0.01854122506
1.39,-0.1315354309,-0.01377097663
1.4,-0.1320686259,-0.008963948603
1.41,-0.132432536,-0.004125661766
1.42,-0.1326250663,0.0007382275074
1.43,-0.1326442867,0.005621929111
1.44,-0.1324884394,0.01051952152
1.45,-0.1321559479,0.01542495458
1.46,-0.1316454253,0.02033205292
1.47,-0.130955683,0.02523451978
1.48,-0.1300857394,0.0301259416
1.49,-0.1290348292,0.03499979314
1.5,-0.1278024119,0.03984944324
1.51,-0.1263881811,0.04466816129
1.52,-0.1247920733,0.04944912433
1.53,-0.1230142767,0.05418542492
1.54,-0.1210552395,0.05887007962
1.55,-0.1189156789,0.06349603823
1.56,-0.1165965888,0.06805619372
1.57,-0.1140992478,0.0725433929
1.58,-0.1114252265,0.0769504477
1.59,-0.1085763946,0.08127014723
1.6,-0.1055549275,0.08549527046
1.61,-0.102363312,0.08961859953
1.62,-0.09900435178,0.09363293375
1.63,-0.09548117239,0.09753110409
1.64,-0.09179722487,0.1013059884
1.65,-0.0879562892,0.1049505268
1.66,-0.08396247676,0.1084577382
1.67,-0.07982023191,0.1118207366
1.68,-0.07553433279,0.1150327481
1.69,-0.0711098911,0.1180871281
1.7,-0.06655235093,0.1209773792
1.71,-0.06186748672,0.1236971687
1.72,-0.0570614,0.1262403468
1.73,-0.05214051525,0.1286009646
1.74,-0.04711157465,0.1307732924
1.75,-0.04198163168,0.1327518377
1.76,-0.03675804373,0.1345313633
1.77,-0.03144846352,0.1361069052
1.78,-0.02606082945,0.1374737902
1.79,-0.02060335487,0.1386276534
1.8,-0.01508451621,0.139564455
1.81,-0.009513040018,0.1402804971
1.82,-0.003897888973,0.1407724395
1.83,0.001751753203,0.1410373151
1.84,0.007426497825,0.141072545
1.85,0.01311676834,0.1408759523
1.86,0.01881281838,0.1404457754
1.87,0.02450475073,0.1397806806
1.88,0.03018253716,0.1388797731
1.89,0.03583603914,0.1377426082
1.9,0.04145502924,0.1363692002
1.91,0.04702921336,0.1347600309
1.92,0.05254825352,0.132916057
1.93,0.05800179127,0.1308387157
1.94,0.06337947168,0.1285299299
1.95,0.06867096774,0.1259921115
1.96,0.0738660051,0.1232281634
1.97,0.07895438721,0.1202414808
1.98,0.08392602061,0.1170359499
1.99,0.0887709404,0.1136159466
2,0.09347933576,0.1099863327
2.01,0.09804157545,0.1061524514
2.02,0.1024482332,0.1021201207
2.03,0.1066901129,0.09789562614
2.04,0.1107582736,0.09348571126
2.05,0.114644054,0.08889756738
2.06,0.1183390965,0.08413882152
2.07,0.1218353708,0.07921752311
2.08,0.125125197,0.07414212929
2.09,0.1282012676,0.06892148891
2.1,0.1310566694,0.06356482523
2.11,0.1336849034,0.05808171733
2.12,0.1360799051,0.0524820804
2.13,0.1382360628,0.04677614479
2.14,0.1401482354,0.04097443403
2.15,0.1418117686,0.03508774177
2.16,0.1432225103,0.02912710778
2.17,0.1443768243,0.02310379301
2.18,0.1452716031,0.01702925391
2.19,0.1459042791,0.01091511584
2.2,0.1462728342,0.004773146013
2.21,0.1463758083,-0.001384774354
2.22,0.1462123063,-0.007546678254
2.23,0.1457820029,-0.01370054159
2.24,0.1450851467,-0.01983431218
2.25,0.1441225623,-0.025935939
2.26,0.1428956506,-0.03199340161
2.27,0.1414063881,-0.03799473955
2.28,0.139657324,-0.04392808183
2.29,0.1376515758,-0.0497816761
2.3,0.1353928239,-0.0555439178
2.31,0.1328853036,-0.06120337882
2.32,0.1301337961,-0.06674883587
2.33,0.1271436186,-0.07216929824
2.34,0.1239206114,-0.07745403508
2.35,0.1204711246,-0.08259260189
2.36,0.1168020035,-0.08757486635
2.37,0.1129205715,-0.09239103323
2.38,0.1088346131,-0.09703166839
2.39,0.1045523544,-0.1014877219
2.4,0.1000824432,-0.1057505497
2.41,0.09543392717,-0.1098119347
2.42,0.09061623206,-0.1136641064
2.43,0.08563913767,-0.1172997589
2.44,0.08051275364,-0.1207120681
2.45,0.07524749416,-0.1238947075
2.46,0.06985405189,-0.1268418619
2.47,0.06434337123,-0.129548241
2.48,0.05872662096,-0.1320090898
2.49,0.05301516634,-0.1342201989
2.5,0.04722054083,-0.1361779126
2.51,0.04135441742,-0.1378791353
2.52,0.03542857974,-0.139321337
2.53,0.02945489302,-0.1405025563
2.54,0.02344527499,-0.1414214026
2.55,0.01741166674,-0.1420770564
2.56,0.01136600385,-0.1424692679
2.57,0.00532018754,-0.142598354
2.58,-0.0007139437158,-0.1424651945
2.59,-0.006724642283,-0.1420712257
2.6,-0.01270027896,-0.1414184332
2.61,-0.01862937,-0.140509343
2.62,-0.02450060357,-0.1393470116
2.63,-0.03030286536,-0.137935014
2.64,-0.03602526358,-0.1362774309
2.65,-0.04165715294,-0.1343788348
2.66,-0.04718815783,-0.1322442745
2.67,-0.05260819445,-0.1298792585
2.68,-0.05790749188,-0.1272897375
2.69,-0.0630766121,-0.1244820858
2.7,-0.06810646886,-0.1214630821
2.71,-0.0729883453,-0.1182398885
2.72,-0.0777139104,-0.1148200299
2.73,-0.08227523411,-0.111211372
2.74,-0.08666480121,-0.1074220988
2.75,-0.09087552387,-0.1034606893
2.76,-0.09490075278,-0.09933589439
2.77,-0.098734287,-0.09505671278
2.78,-0.1023703824,-0.09063236676
2.79,-0.1058037588,-0.08607227788
2.8,-0.1090296057,-0.08138604236
2.81,-0.1120435862,-0.07658340648
2.82,-0.1148418408,-0.07167424197
2.83,-0.1174209883,-0.06666852159
2.84,-0.1197781264,-0.06157629473
2.85,-0.1219108308,-0.05640766343
2.86,-0.1238171527,-0.05117275861
2.87,-0.1254956156,-0.0458817167
2.88,-0.1269452106,-0.04054465684
2.89,-0.1281653901,-0.03517165846
2.9,-0.1291560616,-0.02977273954
2.91,-0.1299175791,-0.02435783548
2.92,-0.1304507342,-0.0189367787
2.93,-0.1307567463,-0.01351927894
2.94,-0.1308372516,-0.008114904392
2.95,-0.1306942912,-0.002733063665
2.96,-0.1303302989,0.002617011401
2.97,-0.1297480878,0.007926281982
2.98,-0.1289508362,0.01318591759
2.99,-0.1279420737,0.01838731045
3,-0.1267256654,0.02352208886
3.01,-0.1253057972,0.02858212958
3.02,-0.1236869592,0.03355956917
3.03,-0.1218739303,0.03844681441
3.04,-0.1198717609,0.04323655155
3.05,-0.1176857569,0.04792175467
3.06,-0.1153214627,0.05249569299
3.07,-0.1127846441,0.05695193711
3.08,-0.1100812719,0.06128436436
3.09,-0.1072175045,0.06548716314
3.1,-0.1041996717,0.06955483625
3.11,-0.101034258,0.07348220342
3.12,-0.09772788608,0.0772644028
3.13,-0.09428730096,0.08089689168
3.14,-0.09071935408,0.08437544636
3.15,-0.08703098803,0.08769616116
3.16,-0.08322922144,0.09085544678
3.17,-0.07932113452,0.09385002783
3.18,-0.07531385486,0.09667693978
3.19,-0.07121454395,0.0993335252
3.2,-0.06703038403,0.1018174295
3.21,-0.06276856562,0.104126596
3.22,-0.05843627561,0.1062592606
3.23,-0.05404068586,0.1082139464
3.24,-0.04958894255,0.1099894567
3.25,-0.04508815594,0.1115848693
3.26,-0.04054539098,0.1129995294
3.27,-0.03596765834,0.1142330424
3.28,-0.03136190618,0.1152852669
3.29,-0.02673501251,0.1161563071
3.3,-0.0220937781,0.1168465057
3.31,-0.01744492009,0.1173564356
3.32,-0.01279506605,0.1176868931
3.33,-0.008150748759,0.11783889
3.34,-0.003518401357,0.117813646
3.35,0.001095646836,0.1176125813
3.36,0.00568517409,0.1172373098
3.37,0.01024406954,0.1166896315
3.38,0.014766336,0.1159715254
3.39,0.01924609244,0.1150851437
3.4,0.02367757596,0.1140328045
3.41,0.02805514357,0.1128169858
3.42,0.03237327352,0.1114403199
3.43,0.03662656648,0.1099055874
3.44,0.0408097464,0.1082157123
3.45,0.04491766117,0.1063737565
3.46,0.04894528317,0.1043829156
3.47,0.05288770967,0.1022465141
3.48,0.05674016308,0.09996800193
3.49,0.06049799125,0.0975509501
3.5,0.06415666764,0.09499904773
3.51,0.06771179158,0.09231609872
3.52,0.07115908852,0.08950601904
3.53,0.07449441041,0.08657283407
3.54,0.07771373611,0.08352067639
3.55,0.080813172,0.08035378363
3.56,0.08378895271,0.07707649666
3.57,0.08663744202,0.0736932579
3.58,0.089355134,0.07020860978
3.59,0.09193865435,0.06662719341
3.6,0.09438476192,0.06295374727
3.61,0.09669035059,0.05919310598
3.62,0.0988524513,0.05535019921
3.63,0.1008682344,0.05143005042
3.64,0.1027350123,0.04743777579
3.65,0.1044502423,0.0433785829
3.66,0.1060115297,0.03925776941
3.67,0.1074166313,0.03508072166
3.68,0.1086634593,0.03085291298
3.69,0.1097500847,0.02657990196
3.7,0.1106747419,0.02226733036
3.71,0.111435833,0.01792092087
3.72,0.1120319324,0.01354647451
3.73,0.1124617913,0.009149867794
3.74,0.1127243433,0.004737049493
3.75,0.1128187088,0.000314037048
3.76,0.1127442006,-0.004113087388
3.77,0.112500329,-0.008538181324
3.78,0.112086807,-0.01295504674
3.79,0.1115035561,-0.01735743532
3.8,0.110750711,-0.02173905417
3.81,0.1098286252,-0.02609357197
3.82,0.1087378761,-0.03041462565
3.83,0.1074792699,-0.03469582748
3.84,0.1060538465,-0.03893077269
3.85,0.1044628842,-0.04311304759
3.86,0.102707904,-0.04723623812
3.87,0.1007906734,-0.05129393889
3.88,0.0987132106,-0.05527976271
3.89,0.0964777876,-0.05918735053
3.9,0.09408693308,-0.06301038182
3.91,0.09154343499,-0.06674258539
3.92,0.08885034248,-0.07037775058
3.93,0.0860109674,-0.07390973882
3.94,0.08302888519,-0.07733249552
3.95,0.07990793515,-0.08064006226
3.96,0.07665222014,-0.08382658931
3.97,0.07326610559,-0.08688634829
3.98,0.06975421786,-0.08981374512
3.99,0.06612144182,-0.09260333307
4,0.06237291779,-0.09524982595
4.01,0.05851403769,-0.09774811137
4.02,0.05455044043,-0.100093264
4.03,0.0504880065,-0.1022805589
4.04,0.04633285185,-0.1043054845
4.05,0.04209132087,-0.1061637559
4.06,0.0377699787,-0.1078513277
4.07,0.03337560263,-0.1093644065
4.08,0.02891517279,-0.1106994635
4.09,0.02439586199,-0.1118532463
4.1,0.0198250249,-0.112822791
4.11,0.01521018633,-0.1136054328
4.12,0.01055902886,-0.1141988174
4.13,0.005879379765,-0.1146009107
4.14,0.001179197171,-0.114810009
4.15,-0.003533444379,-0.1148247474
4.16,-0.008250369028,-0.1146441085
4.17,-0.01296331531,-0.11426743
4.18,-0.01766395237,-0.1136944114
4.19,-0.0223438968,-0.1129251201
4.2,-0.0269947298,-0.1119599966
4.21,-0.03160801495,-0.1107998589
4.22,-0.0361753162,-0.109445906
4.23,-0.04068821626,-0.1078997199
4.24,-0.04513833532,-0.1061632678
4.25,-0.04951734987,-0.1042389021
4.26,-0.05381701178,-0.1021293599
4.27,-0.05802916744,-0.09983776223
4.28,-0.06214577698,-0.09736761047
4.29,-0.06615893344,-0.09472278351
4.3,-0.07006088186,-0.09190753281
4.31,-0.07384403828,-0.08892647682
4.32,-0.07750100853,-0.08578459418
4.33,-0.08102460666,-0.082487216
4.34,-0.08440787322,-0.07904001701
4.35,-0.087644093,-0.07544900581
4.36,-0.09072681237,-0.07172051397
4.37,-0.09364985618,-0.06786118429
4.38,-0.09640734401,-0.06387795805
4.39,-0.09899370582,-0.05977806134
4.4,-0.101403697,-0.05556899052
4.41,-0.1036324124,-0.0512584968
4.42,-0.1056753001,-0.04685457004
4.43,-0.107528174,-0.04236542179
4.44,-0.1091872253,-0.03779946757
4.45,-0.1106490336,-0.03316530849
4.46,-0.1119105768,-0.0284717123
4.47,-0.1129692397,-0.02372759377
4.48,-0.1138228223,-0.01894199471
4.49,-0.1144695462,-0.01412406335
4.5,-0.1149080604,-0.009283033539
4.51,-0.1151374459,-0.004428203426
4.52,-0.1151572194,0.000431085988
4.53,-0.1149673351,0.00528547256
4.54,-0.1145681863,0.01012559484
4.55,-0.113960605,0.01494211394
4.56,-0.113145861,0.01972573549
4.57,-0.1121256596,0.02446723138
4.58,-0.1109021376,0.02915746154
4.59,-0.1094778591,0.03378739536
4.6,-0.1078558095,0.03834813297
4.61,-0.1060393884,0.0428309261
4.62,-0.1040324017,0.04722719861
4.63,-0.1018390524,0.05152856649
4.64,-0.09946393028,0.05572685743
4.65,-0.0969120009,0.05981412969
4.66,-0.09418859317,0.0637826905
4.67,-0.09129938623,0.0676251136
4.68,-0.08825039539,0.07133425612
4.69,-0.08504795718,0.07490327471
4.7,-0.08169871356,0.07832564072
4.71,-0.07820959539,0.08159515459
4.72,-0.07458780521,0.08470595926
4.73,-0.07084079932,0.08765255265
4.74,-0.06697626926,0.09042979912
4.75,-0.06300212279,0.09303293995
4.76,-0.05892646433,0.09545760267
4.77,-0.05475757503,0.09769980945
4.78,-0.05050389242,0.09975598426
4.79,-0.04617398986,0.101622959
4.8,-0.04177655568,0.1032979785
4.81,-0.03732037217,0.1047787043
4.82,-0.03281429448,0.1060632177
4.83,-0.02826722952,0.1071500206
4.84,-0.02368811481,0.108038037
4.85,-0.0190858975,0.1087266114
4.86,-0.01446951351,0.1092155076
4.87,-0.009847866862,0.1095049056
4.88,-0.005229809372,0.1095953979
4.89,-0.0006241205839,0.109487984
4.9,0.003960511834,0.109184065
4.91,0.008515511273,0.1086854362
4.92,0.01303243085,0.1079942794
4.93,0.01750297154,0.1071131537
4.94,0.02191899967,0.1060449857
4.95,0.02627256379,0.1047930594
4.96,0.03055591087,0.1033610041
4.97,0.03476150172,0.1017527825
4.98,0.03888202565,0.09997267773
4.99,0.04291041437,0.09802527991
5,0.04683985503,0.09591547173
5.01,0.05066380235,0.09364841384
5.02,0.05437598997,0.09122952955
5.03,0.05797044081,0.08866448917
5.04,0.06144147651,0.08595919388
5.05,0.06478372604,0.08311975928
5.06,0.06799213319,0.08015249873
5.07,0.07106196328,0.07706390634
5.08,0.0739888088,0.07386063992
5.09,0.07676859418,0.07054950372
5.1,0.0793975795,0.06713743117
5.11,0.08187236343,0.06363146756
5.12,0.08418988503,0.06003875287
5.13,0.08634742482,0.05636650457
5.14,0.08834260485,0.05262200071
5.15,0.09017338787,0.04881256309
5.16,0.09183807574,0.04494554077
5.17,0.0933353069,0.04102829385
5.18,0.09466405313,0.03706817757
5.19,0.09582361544,0.0330725268
5.2,0.09681361931,0.02904864098
5.21,0.09763400912,0.02500376948
5.22,0.09828504205,0.02094509747
5.23,0.09876728118,0.01687973232
5.24,0.09908158812,0.01281469051
5.25,0.09922911504,0.008756885183
5.26,0.09921129616,0.004713114239
5.27,0.09902983884,0.0006900490808
5.28,0.09868671417,-0.00330577601
5.29,0.09818414723,-0.007267973853
5.3,0.09752460699,-0.01119031367
5.31,0.09671079587,-0.01506672975
5.32,0.09574563918,-0.01889132938
5.33,0.09463227417,-0.02265840015
5.34,0.09337403907,-0.02636241656
5.35,0.09197446196,-0.02999804598
5.36,0.0904372495,-0.03356015384
5.37,0.0887662757,-0.03704380832
5.38,0.08696557064,-0.04044428423
5.39,0.0850393093,-0.04375706638
5.4,0.08299180034,-0.04697785225
5.41,0.08082747511,-0.05010255406
5.42,0.07855087672,-0.05312730032
5.43,0.07616664938,-0.05604843674
5.44,0.07367952779,-0.05886252664
5.45,0.07109432696,-0.06156635086
5.46,0.06841593208,-0.06415690711
5.47,0.06564928884,-0.06663140898
5.48,0.06279939396,-0.06898728437
5.49,0.05987128606,-0.07122217366
5.5,0.05687003686,-0.07333392738
5.51,0.05380074275,-0.07532060365
5.52,0.05066851667,-0.0771804652
5.53,0.04747848047,-0.07891197622
5.54,0.04423575748,-0.08051379886
5.55,0.04094546563,-0.08198478957
5.56,0.03761271083,-0.08332399525
5.57,0.03424258081,-0.08453064922
5.58,0.03084013927,-0.08560416707
5.59,0.02741042049,-0.08654414243
5.6,0.02395842427,-0.08735034266
5.61,0.02048911118,-0.08802270448
5.62,0.01700739824,-0.08856132959
5.63,0.01351815494,-0.08896648034
5.64,0.01002619949,-0.08923857535
5.65,0.006536295505,-0.08937818527
5.66,0.003053148886,-0.08938602856
5.67,-0.0004185949596,-0.08926296734
5.68,-0.00387435367,-0.08901000346
5.69,-0.007309610237,-0.08862827451
5.7,-0.01071991509,-0.08811905018
5.71,-0.01410088801,-0.08748372859
5.72,-0.01744821981,-0.08672383286
5.73,-0.02075767392,-0.08584100785
5.74,-0.02402508786,-0.08483701704
5.75,-0.0272463745,-0.0837137396
5.76,-0.03041752334,-0.08247316761
5.77,-0.03353460171,-0.08111740351
5.78,-0.03659375588,-0.07964865764
5.79,-0.03959121217,-0.07806924604
5.8,-0.0425232781,-0.07638158833
5.81,-0.04538634351,-0.0745882058
5.82,-0.04817688175,-0.07269171961
5.83,-0.05089145091,-0.07069484913
5.84,-0.0535266951,-0.06860041046
5.85,-0.05607934591,-0.06641131494
5.86,-0.05854622386,-0.06413056785
5.87,-0.06092424004,-0.06176126718
5.88,-0.06321039783,-0.05930660239
5.89,-0.06540179481,-0.05676985332
5.9,-0.06749562476,-0.05415438897
5.91,-0.06948917986,-0.05146366647
5.92,-0.07137985299,-0.04870122989
5.93,-0.07316514023,-0.04587070904
5.94,-0.0748426435,-0.04297581828
5.95,-0.07641007337,-0.04002035517
5.96,-0.07786525202,-0.03700819906
5.97,-0.07920611633,-0.03394330956
5.98,-0.08043072112,-0.03082972486
5.99,-0.08153724257,-0.02767155989
6,-0.0825239817,-0.02447300431
