"Freq [GHz]","re(S(Antenna1_1_p1,Antenna1_1_p1)) []","im(S(Antenna1_1_p1,Antenna1_1_p1)) []"
3,0.0419705852860828,0.0194774234100098
3.002,0.0452198579697203,0.0177753486629358
3.004,0.0483860254682441,0.0158596554955039
3.006,0.0514561078735201,0.013734772680707
3.008,0.0544173725141955,0.0114059031338481
3.01,0.0572573809706838,0.00887900766305341
3.012,0.0599640340706791,0.0061607891589734
3.014,0.062525614213,0.003258671533709
3.016,0.0649308305872615,0.000180781709083602
3.018,0.0671688568372891,-0.0030640815247004
3.02,0.0692293747660344,-0.0064664691201374
3.022,0.0711026115304318,-0.0100163135022903
3.024,0.0727793745838956,-0.0137029601862514
3.026,0.0742510879849032,-0.0175152018818983
3.028,0.0755098265102432,-0.021441313024632
3.03,0.0765483434410373,-0.0254690891910373
3.032,0.0773601009906383,-0.0295858868784579
3.034,0.0779392968227655,-0.0337786637473386
3.036,0.0782808855689263,-0.0380340224848886
3.038,0.0783806029041003,-0.0423382544092684
3.04,0.0782349812296573,-0.046677386132548
3.042,0.0778413686327793,-0.0510372252844988
3.044,0.0771979398116755,-0.055403408464745
3.046,0.0763037066959211,-0.0597614497148174
3.048,0.0751585287414391,-0.0640967900332289
3.05,0.0737631118995981,-0.068394846302058
3.052,0.0721190166602654,-0.0726410604206808
3.054,0.0702286534483611,-0.0768209515043575
3.056,0.068095278713778,-0.0809201629328983
3.058,0.0657229887245797,-0.0849245140331923
3.06,0.063116708803454,-0.088820047806144
3.062,0.0602821819473039,-0.0925930806333756
3.064,0.0572259517002655,-0.0962302504478308
3.066,0.0539553432000471,-0.0997185617168591
3.068,0.0504784454780249,-0.103045433226809
3.07,0.0468040819031554,-0.106198741337954
3.072,0.0429417880900398,-0.109166865298748
3.074,0.0389017824416161,-0.111938726488207
3.076,0.0346949315666549,-0.114503829495619
3.078,0.0303327199925483,-0.116852300126436
3.08,0.0258272116339992,-0.118974922173364
3.082,0.0211910117678457,-0.120863169911917
3.084,0.0164372291747076,-0.122509241389297
3.086,0.0115794311280145,-0.123906087265935
3.088,0.0066316002909602,-0.125047436188653
3.09,0.0016080905719118,-0.12592782285491
3.092,-0.0034764207809258,-0.126542606226994
3.094,-0.0086069803850773,-0.126887988945693
3.096,-0.0137684095158313,-0.126961036002598
3.098,-0.0189453531670768,-0.12675968463024
3.1,-0.0241223299338683,-0.126282757539634
3.102,-0.0292837863186098,-0.125529967644182
3.104,-0.0344141453349428,-0.124501923449672
3.106,-0.0394978613313833,-0.123200132989544
3.108,-0.0445194706289373,-0.121626994924723
3.11,-0.0494636445113234,-0.119785802207803
3.112,-0.0543152403841962,-0.117680727850581
3.114,-0.0590593547348397,-0.115316817094675
3.116,-0.0636813705304468,-0.112699972234595
3.118,-0.0681670109072524,-0.109836935662707
3.12,-0.0725023845394157,-0.106735270555664
3.122,-0.0766740372867937,-0.103403337711752
3.124,-0.080668994100724,-0.0998502700587088
3.126,-0.0844748068567172,-0.096085944701494
3.128,-0.0880795965130587,-0.0921209511595835
3.13,-0.0914720951942933,-0.0879665593733677
3.132,-0.0946416829988937,-0.0836346822291768
3.134,-0.0975784294890741,-0.0791378386925036
3.136,-0.100273123682623,-0.0744891135190812
3.138,-0.102717311605183,-0.0697021139234679
3.14,-0.104903321811473,-0.0647909249843194
3.142,-0.106824296634755,-0.0597700672568821
3.144,-0.108474213672807,-0.0546544434213642
3.146,-0.109847910719288,-0.0494592941875791
3.148,-0.110941101929,-0.0442001452451681
3.15,-0.111750396375685,-0.0388927571093145
3.152,-0.112273309180614,-0.0335530715497411
3.154,-0.112508272610871,-0.0281971604774438
3.156,-0.112454641915148,-0.0228411706554304
3.158,-0.112112699085767,-0.01750127007013
3.16,-0.111483654394997,-0.0121935934461999
3.162,-0.11056964182384,-0.0069341895080609
3.164,-0.109373713751503,-0.0017389651028429
3.166,-0.107899832273374,0.0033763671359322
3.168,-0.10615285554572,0.0083963414709196
3.17,-0.104138523654719,0.0133057930474803
3.172,-0.101863438187813,0.0180899077948584
3.174,-0.0993350429050899,0.0227342720315525
3.176,-0.0965615965781982,0.0272249224244471
3.178,-0.09355214645455,0.0315483927108951
3.18,-0.0903164988742246,0.0356917594232109
3.182,-0.0868651842169782,0.0396426847543875
3.184,-0.0832094235468031,0.0433894599143341
3.186,-0.0793610873213154,0.0469210427050259
3.188,-0.0753326586831787,0.0502270953832868
3.19,-0.071137188170839,0.0532980206203038
3.192,-0.0667882499856522,0.0561249907546342
3.194,-0.0622998958926462,0.0586999794582181
3.196,-0.0576866052319751,0.061015787722418
3.198,-0.0529632379179913,0.0630660661417757
3.2,-0.0481449805137301,0.0648453377427894
3.202,-0.0432472960768604,0.0663490110049646
3.204,-0.0382858699052983,0.0675734000306267
3.206,-0.033276555748313,0.0685157295602389
3.208,-0.028235321512354,0.0691741460292758
3.21,-0.0231781935532692,0.0695477195828775
3.212,-0.0181212038144844,0.069636448293428
3.214,-0.0130803320747026,0.06944124996683
3.216,-0.0080714532712517,0.0689639620122069
3.218,-0.0031102832651152,0.0682073288599497
3.22,0.0017876751778769,0.0671749898521901
3.222,0.0066071849381056,0.0658714638100795
3.224,0.0113333244123319,0.064302130651527
3.226,0.0159515391557291,0.0624732077328688
3.228,0.020447689735993,0.0603917259978357
3.23,0.0248080977893077,0.0580655015965274
3.232,0.0290195914875616,0.0555031048175416
3.234,0.0330695471056707,0.0527138275454348
3.236,0.0369459318972948,0.049707646456031
3.238,0.0406373389667622,0.0464951845318049
3.24,0.0441330241642145,0.0430876713893463
3.242,0.0474229389205635,0.0394969003515086
3.244,0.0504977608182042,0.0357351842653921
3.246,0.0533489181321988,0.0318153102988533
3.248,0.0559686159173004,0.0277504896783313
3.25,0.0583498569931941,0.0235543145287364
3.252,0.0604864576921963,0.0192407029499946
3.254,0.0623730640709125,0.0148238529515883
3.256,0.06400516292763,0.010318187619474
3.258,0.0653790889361229,0.00573830802861453
3.26,0.066492030765979,0.00109893858654012
3.262,0.0673420303887528,-0.00358512165612325
3.264,0.0679279845087787,-0.00829905141975921
3.266,0.0682496377364988,-0.0130280567062081
3.268,0.0683075737420858,-0.0177574211495194
3.27,0.0681032077462631,-0.0224725535474788
3.272,0.0676387696850076,-0.0271590367074331
3.274,0.0669172897139239,-0.0318026717053955
3.276,0.0659425767490894,-0.0363895247557115
3.278,0.0647191994492956,-0.0409059690313316
3.28,0.0632524598760089,-0.0453387260819075
3.282,0.0615483684864254,-0.0496749058077947
3.284,0.0596136152557703,-0.0539020425239281
3.286,0.0574555387949441,-0.0580081314663078
3.288,0.0550820957401553,-0.0619816610819712
3.29,0.0525018256316281,-0.0658116436528831
3.292,0.0497238159992404,-0.0694876436521739
3.294,0.0467576677737798,-0.0729998037506418
3.296,0.0436134551630788,-0.076338867059773
3.298,0.0403016913539603,-0.0794962007768355
3.3,0.036833285291457,-0.0824638104564228
3.302,0.0332195062184163,-0.0852343600721151
3.304,0.0294719419699087,-0.0878011828310014
3.306,0.0256024594482098,-0.090158293063429
3.308,0.0216231645358094,-0.0923003958895208
3.31,0.0175463637654278,-0.094222891313872
3.312,0.0133845222075128,-0.0959218801702563
3.314,0.00915022606786519,-0.0973941666161575
3.316,0.00485614322899494,-0.0986372552301482
3.318,0.00051498580818886,-0.0996493512124267
3.32,-0.00386052835002218,-0.10042935649181
3.322,-0.00825771224135566,-0.100976860230633
3.324,-0.0126639448949493,-0.101292134092835
3.326,-0.0170667075220104,-0.101376122928771
3.328,-0.0214536168544234,-0.101230430512503
3.33,-0.0258124579736011,-0.10085730972931
3.332,-0.0301312178248426,-0.10025964670119
3.334,-0.0343981140063868,-0.0994409456805387
3.336,-0.0386016256376182,-0.0984053128435371
3.338,-0.042730523053529,-0.0971574368562642
3.34,-0.0467738928468293,-0.095702570648534
3.342,-0.0507211659486444,-0.094046510642135
3.344,-0.0545621416894583,-0.0921955752117576
3.346,-0.0582870124104386,-0.0901565844087925
3.348,-0.0618863854778624,-0.087936832720195
3.35,-0.0653513043612003,-0.0855440698555847
3.352,-0.068673268607975,-0.0829864725980951
3.354,-0.0718442538185594,-0.0802726213159051
3.356,-0.0748567268345436,-0.0774114724521454
3.358,-0.0777036640162873,-0.0744123337033879
3.36,-0.0803785648656577,-0.0712848351471611
3.362,-0.0828754662815047,-0.0680389019502161
3.364,-0.0851889543368996,-0.0646847266808183
3.366,-0.0873141741382083,-0.061232738767913
3.368,-0.089246843628182,-0.0576935793720688
3.37,-0.090983255575878,-0.0540780677920731
3.372,-0.0925202886686154,-0.0503971747836705
3.374,-0.0938554120821443,-0.0466619915299735
3.376,-0.0949866894468998,-0.042883699143797
3.378,-0.0959127806496776,-0.0390735396745503
3.38,-0.0966329454412067,-0.0352427854084022
3.382,-0.0971470400423884,-0.0314027085407186
3.384,-0.097455519911361,-0.0275645516657557
3.386,-0.0975594325270519,-0.0237394955947139
3.388,-0.0974604152939797,-0.0199386327218292
3.39,-0.0971606910752256,-0.0161729342901057
3.392,-0.0966630570106238,-0.0124532224098427
3.394,-0.0959708812285102,-0.0087901410786111
3.396,-0.0950880878093711,-0.0051941268206961
3.398,-0.0940191500107167,-0.0016753801926966
3.4,-0.0927690732223914,0.0017561605992968
3.402,-0.09134338538209,0.0050908487662313
3.404,-0.0897481173806139,0.00831935322328359
3.406,-0.087989790216569,0.0114326870051848
3.408,-0.0860753931799949,0.0144222293786312
3.41,-0.0840123687541168,0.0172797522917309
3.412,-0.0818085877250817,0.0199974420285076
3.414,-0.0794723324896176,0.0225679231657016
3.416,-0.0770122689851956,0.024984277479444
3.418,-0.0744374278241809,0.0272400669283433
3.42,-0.0717571752552985,0.0293293499040819
3.422,-0.0689811900495325,0.0312467009767498
3.424,-0.0661194359856944,0.0329872263156723
3.426,-0.0631821323084016,0.0345465799224505
3.428,-0.0601797265320987,0.0359209762116459
3.43,-0.0571228662512206,0.0371072032444223
3.432,-0.054022366937244,0.0381026357104984
3.434,-0.0508891812290712,0.0389052382139932
3.436,-0.0477343685978277,0.0395135809682367
3.438,-0.0445690632570424,0.039926841644782
3.44,-0.0414044411404467,0.0401448103313316
3.442,-0.038251688509312,0.0401678940431896
3.444,-0.0351219662612094,0.0399971175420871
3.446,-0.032026380547175,0.0396341222465404
3.448,-0.0289759458714594,0.0390811652964443
3.45,-0.0259815545949826,0.0383411156150697
3.452,-0.0230539415087308,0.0374174479704575
3.454,-0.0202036516538748,0.0363142359181607
3.456,-0.01744100754556,0.0350361426364471
3.458,-0.0147760767170906,0.0335884087947083
3.46,-0.0122186387214454,0.0319768426154975
3.462,-0.0097781544270106,0.0302078026998475
3.464,-0.0074637344146631,0.02828818330541
3.466,-0.0052841096135148,0.0262253951662806
3.468,-0.0032476005128813,0.0240273471033579
3.47,-0.0013620907682306,0.021702423623431
3.472,0.000365002810725795,0.019259462145203
3.474,0.00192675436134999,0.016707727730142
3.476,0.0033167544399557,0.0140568876058458
3.478,0.00452913471546801,0.0113169826195115
3.48,0.0055585902548034,0.0084983993792644
3.482,0.0064003982206952,0.0056118365606267
3.484,0.0070504388515691,0.0026682764858939
3.486,0.00750521328303309,-0.000321050046094199
3.488,0.00776185698031251,-0.00334469835195999
3.49,0.00781815565046891,-0.00639104369373935
3.492,0.0076725560232692,-0.00944831977875113
3.494,0.00732417540906539,-0.012504653334184
3.496,0.0067728098821475,-0.0155481050849112
3.498,0.00601893960758169,-0.0185667049329742
3.5,0.00506373169970409,-0.0215484931547148
3.502,0.00390904303001911,-0.0244815595616103
3.504,0.0025574161927065,-0.0273540819322594
3.506,0.0010120791851136,-0.0301543666589955
3.508,-0.000723063068501201,-0.0328708878922707
3.51,-0.00264343543226669,-0.0354923268086604
3.512,-0.0047438033352812,-0.0380076112022949
3.514,-0.0070182852012179,-0.040405953329065
3.516,-0.0094603681129732,-0.0426768889029863
3.518,-0.0120629253444828,-0.0448103129338273
3.52,-0.0148182353907159,-0.0467965165849332
3.522,-0.0177180037681186,-0.0486262232000881
3.524,-0.0207533872465204,-0.0502906209980847
3.526,-0.0239150199437733,-0.0517813959836438
3.528,-0.0271930411944267,-0.0530907649231569
3.53,-0.0305771260331841,-0.0542115023537795
3.532,-0.0340565157440308,-0.0551369702940896
3.534,-0.0376200525356464,-0.0558611436450073
3.536,-0.0412562132235662,-0.0563786357290112
3.538,-0.0449531497394457,-0.0566847179162015
3.54,-0.0486987208976344,-0.056775341585572
3.542,-0.0524805368889846,-0.0566471552598544
3.544,-0.0562859971431826,-0.0562975205923396
3.546,-0.0601023331658658,-0.0557245245243045
3.548,-0.063916648586882,-0.0549269907213828
3.55,-0.0677159653492504,-0.0539044863976409
3.552,-0.0714872627536612,-0.0526573304859245
3.554,-0.0752175255492232,-0.0511865936832569
3.556,-0.078893784692584,-0.0494941003000091
3.558,-0.0825031626914799,-0.047582427571795
3.56,-0.0860329188667028,-0.0454548960829317
3.562,-0.0894704896836308,-0.0431155685005502
3.564,-0.0928035348612367,-0.0405692345285064
3.566,-0.0960199790325721,-0.0378213996197808
3.568,-0.0991080535643175,-0.0348782729073882
3.57,-0.102056337686012,-0.0317467446422636
3.572,-0.104853797617157,-0.0284343677979128
3.574,-0.107489826911493,-0.0249493389810537
3.576,-0.109954282307455,-0.0213004682977393
3.578,-0.112237519993888,-0.0174971557344868
3.58,-0.114330431429977,-0.0135493617137762
3.582,-0.11622447259844,-0.0094675754337708
3.584,-0.117911698191008,-0.0052627815316439
3.586,-0.11938478738515,-0.000946426010280402
3.588,-0.120637072951098,0.0034696197219164
3.59,-0.121662563348106,0.00797309863846
3.592,-0.12245596781892,0.0125514057596075
3.594,-0.123012712131606,0.0171916288248633
3.596,-0.123328960387332,0.0218805918132478
3.598,-0.123401626123466,0.0266048954215481
3.6,-0.123228387540645,0.0313509622395275
3.602,-0.122807695652901,0.0361050801503895
3.604,-0.122138782819658,0.0408534462612794
3.606,-0.12122166670849,0.0455822148400938
3.608,-0.120057150877649,0.0502775395033385
3.61,-0.118646826346995,0.054925618684262
3.612,-0.116993067006361,0.0595127443518479
3.614,-0.115099025619971,0.0640253416858602
3.616,-0.112968621715937,0.0684500180915267
3.618,-0.110606533199166,0.0727736043988744
3.62,-0.108018181897106,0.0769831986881277
3.622,-0.105209719246115,0.0810662099323705
3.624,-0.102188003657849,0.0850103967764958
3.626,-0.0989605831641373,0.0888039096526502
3.628,-0.0955356723786502,0.0924353295411301
3.63,-0.0919221255643682,0.0958937047366082
3.632,-0.0881294086649951,0.099168586018818
3.634,-0.084167573259426,0.102250063347056
3.636,-0.0800472211869663,0.10512879607785
3.638,-0.0757794737925384,0.10779604524478
3.64,-0.0713759369299186,0.110243700199445
3.642,-0.0668486647415571,0.112464308972765
3.644,-0.062210120383433,0.114451098035209
3.646,-0.0574731382433357,0.116197998474742
3.648,-0.0526508834310182,0.117699664551171
3.65,-0.0477568103985771,0.11895149165525
3.652,-0.0428046195696243,0.119949630611058
3.654,-0.0378082170253254,0.120691003759707
3.656,-0.0327816666006504,0.12117331088231
3.658,-0.0277391492358884,0.121395040390705
3.66,-0.0226949155813841,0.121355474003002
3.662,-0.0176632449543041,0.121054688701919
3.664,-0.0126583948201725,0.120493559073295
3.666,-0.007694562122081,0.119673753372079
3.668,-0.002785832840261,0.11859772765262
3.67,0.0020538580371752,0.117268722890557
3.672,0.0068107720889445,0.115690750162759
3.674,0.0114714115360557,0.113868582141727
3.676,0.0160225593963068,0.111807736261289
3.678,0.0204513230055279,0.109514459249234
3.68,0.0247451746458736,0.106995705923037
3.682,0.028891988751177,0.104259120364703
3.684,0.0328800827693385,0.101313008259977
3.686,0.0366982515712693,0.0981663153776411
3.688,0.0403358046258119,0.0948285972040289
3.69,0.0437825971496235,0.0913099874480227
3.692,0.0470290652106351,0.0876211711514785
3.694,0.0500662521536742,0.08377334488998
3.696,0.0528858390060327,0.0797781885686733
3.698,0.0554801696305412,0.0756478217179484
3.7,0.0578422747835107,0.0713947704335563
3.702,0.0599658938540661,0.0670319265758134
3.704,0.0618454939912333,0.0625725054725247
3.706,0.0634762875844972,0.0580300063301164
3.708,0.0648542464430651,0.0534181690079766
3.71,0.065976114328801,0.0487509296005969
3.712,0.0668394164765955,0.0440423781862438
3.714,0.0674424677762286,0.0393067124171658
3.716,0.0677843758088321,0.0345581943345126
3.718,0.0678650438101069,0.0298111030731465
3.72,0.0676851700027053,0.0250796922320192
3.722,0.067246244098909,0.0203781434578819
3.724,0.0665505420746132,0.0157205205979699
3.726,0.0656011178848621,0.0111207273869784
3.728,0.0644017909107666,0.0065924620976924
3.73,0.0629571354770215,0.0021491736568945
3.732,0.0612724614988999,-0.0021959783410135
3.734,0.0593537991770842,-0.006430167268666
3.736,0.0572078748682486,-0.0105409393877711
3.738,0.0548420913493637,-0.0145162518765161
3.74,0.0522644999295272,-0.018344510689592
3.742,0.0494837732726418,-0.0220146075576893
3.744,0.0465091767778161,-0.0255159523300974
3.746,0.0433505358838631,-0.0288385081458357
3.748,0.0400182029497966,-0.031972818515345
3.75,0.0365230209194881,-0.0349100394644088
3.752,0.0328762889278163,-0.0376419625406038
3.754,0.029089720887293,-0.04016104001127
3.756,0.0251754073532334,-0.0424604079105166
3.758,0.0211457749258106,-0.0445339022519212
3.76,0.0170135431292841,-0.0463760787511624
3.762,0.0127916820062814,-0.0479822231040927
3.764,0.0084933686737452,-0.049348366098573
3.766,0.0041319436049177,-0.0504712898074686
3.768,-0.000279134221189,-0.0513485331666502
3.77,-0.0047263326667624,-0.0519783972105456
3.772,-0.0091960896355772,-0.0523599430018286
3.774,-0.0136748582408522,-0.0524929899925478
3.776,-0.0181491501286985,-0.0523781123028664
3.778,-0.0226055799811159,-0.0520166286430915
3.78,-0.0270309075430031,-0.0514105913642861
3.782,-0.031412078293008,-0.0505627762427048
3.784,-0.0357362658810201,-0.0494766643129067
3.786,-0.0399909105070913,-0.0481564241254023
3.788,-0.0441637558438109,-0.0466068912840081
3.79,-0.0482428867636538,-0.0448335479509772
3.792,-0.0522167631707292,-0.0428424934857129
3.794,-0.0560742525279821,-0.0406404228485513
3.796,-0.0598046585034827,-0.038234595198548
3.798,-0.063397754569716,-0.0356328046390638
3.8,-0.0668438039871912,-0.0328433500458848
3.802,-0.0701335881913465,-0.0298749986252723
3.804,-0.0732584263406984,-0.0267369572223993
3.806,-0.0762101955323154,-0.0234388354031344
3.808,-0.0789813465097396,-0.019990608295916
3.81,-0.0815649186977479,-0.0164025842331208
3.812,-0.0839545534877408,-0.0126853659355604
3.814,-0.0861445007981189,-0.0088498163165577
3.816,-0.0881296297030347,-0.0049070211665974
3.818,-0.0899054307855211,-0.000868252851973797
3.82,-0.0914680209505601,0.0032550638540924
3.822,-0.0928141425260106,0.0074513878175204
3.824,-0.0939411635413738,0.0117090963014865
3.826,-0.0948470733663962,0.0160165172494359
3.828,-0.0955304780343807,0.0203619631394591
3.83,-0.0959905933483472,0.0247337627680606
3.832,-0.0962272383610709,0.0291202905432263
3.834,-0.0962408233241453,0.0335099964817998
3.836,-0.0960323403645912,0.0378914370898182
3.838,-0.0956033514417525,0.0422532993874945
3.84,-0.0949559755008562,0.0465844279179565
3.842,-0.0940928742145796,0.0508738502450001
3.844,-0.0930172372762582,0.0551107996281327
3.846,-0.0917327673445196,0.0592847383142788
3.848,-0.0902436638415735,0.063385378731299
3.85,-0.0885546082097328,0.0674027022816719
3.852,-0.0866707442286972,0.0713269806638801
3.854,-0.0845976635830128,0.0751487934996334
3.856,-0.0823413877068584,0.0788590441786741
3.858,-0.0799083483632597,0.0824489780960488
3.86,-0.0773053710976625,0.0859101967092049
3.862,-0.0745396582271789,0.0892346740864365
3.864,-0.071618769638112,0.092414769291292
3.866,-0.0685506011353195,0.0954432402507902
3.868,-0.0653433703071844,0.0983132575295764
3.87,-0.0620055950902102,0.101018414585027
3.872,-0.0585460731266188,0.103552740611868
3.874,-0.0549738651480051,0.105910712058302
3.876,-0.0512982731466588,0.10808726159862
3.878,-0.0475288193151481,0.11007778882008
3.88,-0.0436752271430074,0.111878168354821
3.882,-0.0397473983074698,0.113484759759573
3.884,-0.0357553928734415,0.11489441533857
3.886,-0.0317094070494386,0.116104486106292
3.888,-0.0276197490319502,0.117112829199339
3.89,-0.0234968181675924,0.117917813966208
3.892,-0.0193510813166439,0.118518325917241
