"Freq [GHz]","re(S(Antenna1_1_p1,Antenna1_1_p1)) []","im(S(Antenna1_1_p1,Antenna1_1_p1)) []"
3,-0.154558633073917,0.0735153163500098
3.002,-0.14811241310028,0.0831937725929358
3.004,-0.141089676521756,0.0924684574055039
3.006,-0.13351475381648,0.101305514480707
3.008,-0.125413957265805,0.109672540773848
3.01,-0.116815487789316,0.117538701143053
3.012,-0.107749347769321,0.124874840568973
3.014,-0.098247233667,0.131653583753709
3.016,-0.0883424421327385,0.137849444999084
3.018,-0.0780697432627109,0.1434389061653
3.02,-0.0674652763439656,0.148400513909863
3.022,-0.0565664201495682,0.15271495630771
3.024,-0.0454116703961044,0.156365131053749
3.026,-0.0340405057050968,0.159336210348102
3.028,-0.0224932577797568,0.161615703865368
3.03,-0.0108109679789627,0.163193498708963
3.032,0.00096474791563832,0.164061903851542
3.034,0.0127918458007655,0.164215683962661
3.036,0.0246279966789263,0.163652077825111
3.038,0.0364307308141003,0.162370821040732
3.04,0.0481575873396573,0.160374141527452
3.042,0.0597662590627793,0.157666771708501
3.044,0.0712147386816755,0.154255926095255
3.046,0.0824614656759211,0.150151285964983
3.048,0.093465470971439,0.145364977334771
3.05,0.104186519189598,0.139911521032942
3.052,0.114585248300265,0.133807801969319
3.054,0.124623311198361,0.127073011205643
3.056,0.134263505173778,0.119728580527102
3.058,0.14346990741458,0.111798121616808
3.06,0.152207998773454,0.103307342133856
3.062,0.160444787917304,0.0942839701966244
3.064,0.168148929360265,0.0847576553721692
3.066,0.175290830880047,0.0747598736731409
3.068,0.181842767118025,0.0643238310631906
3.07,0.187778970363155,0.0534843369720458
3.072,0.19307573152004,0.0422777037112523
3.074,0.197711484261616,0.0307416205717929
3.076,0.201666882466655,0.0189150187943813
3.078,0.204924874842548,0.00683795511356401
3.08,0.207470766633999,-0.0054485350033636
3.082,0.209292276017846,-0.0179025714719168
3.084,0.210379586884708,-0.0304815713892972
3.086,0.210725382408014,-0.0431423939959353
3.088,0.21032487580096,-0.0558414896886529
3.09,0.209175841661912,-0.0685350461249097
3.092,0.207278620309074,-0.0811791390969943
3.094,0.204636126104923,-0.0937298798856928
3.096,0.201253845771169,-0.106143575902598
3.098,0.197139822994923,-0.11837686915024
3.1,0.192304640526732,-0.130386892649634
3.102,0.18676138357139,-0.142131419434182
3.104,0.180525607672057,-0.153569003969672
3.106,0.173615293188617,-0.164659133019544
3.108,0.166050774071063,-0.175362359284723
3.11,0.157854697528677,-0.185640447347803
3.112,0.149051931295804,-0.195456500830581
3.114,0.13966949399516,-0.204775100144675
3.116,0.129736467899553,-0.213562416714595
3.118,0.119283898292748,-0.221786344972707
3.12,0.108344697830584,-0.229416604825664
3.122,0.0969535340032063,-0.236424863791752
3.124,0.085146716999276,-0.242784824608709
3.126,0.0729620768732828,-0.248472328911494
3.128,0.0604388408269413,-0.253465443479583
3.13,0.0476174959357067,-0.257744543353368
3.132,0.0345396605511063,-0.261292375719177
3.134,0.0212479365509259,-0.264094137162504
3.136,0.0077857725573768,-0.266137518589081
3.138,-0.0058026883451834,-0.267412763913468
3.14,-0.0194727587514729,-0.267912698314319
3.142,-0.0331793534367553,-0.267632770456882
3.144,-0.0468771509728071,-0.266571061981364
3.146,-0.0605207442392883,-0.264728311657579
3.148,-0.0740647960489999,-0.262107908205168
3.15,-0.0874642002156854,-0.258715891879314
3.152,-0.100674231980614,-0.254560936321741
3.154,-0.113650702370871,-0.249654323976444
3.156,-0.126350116255148,-0.24400991217043
3.158,-0.138729818665767,-0.23764409285913
3.16,-0.150748147934997,-0.2305757401362
3.162,-0.16236457596384,-0.222826147008061
3.164,-0.173539854011503,-0.214418961732843
3.166,-0.184236149663374,-0.205380106924068
3.168,-0.19441717610572,-0.19573769371908
3.17,-0.204048327264719,-0.18552193211252
3.172,-0.213096793907813,-0.174765026255142
3.174,-0.22153168210509,-0.163501069218448
3.176,-0.229324122548198,-0.151765925425553
3.178,-0.23644737252455,-0.139597110249105
3.18,-0.242876916144225,-0.127033665676789
3.182,-0.248590543116978,-0.114116019715612
3.184,-0.253568439076803,-0.100885856235666
3.186,-0.257793246351315,-0.0873859650949741
3.188,-0.261250133973179,-0.0736601003967132
3.19,-0.263926852430839,-0.0597528259396962
3.192,-0.265813770055652,-0.0457093626153658
3.194,-0.266903917642646,-0.0315754320917819
3.196,-0.267193009001975,-0.017397096581582
3.198,-0.266679457937991,-0.0032206015092243
3.2,-0.26536439045373,0.0109077868527894
3.202,-0.26325162797686,0.0249419432049646
3.204,-0.260347693905298,0.0388360427906267
3.206,-0.256661772269313,0.052544720670239
3.208,-0.252205688307354,0.0660232306292757
3.21,-0.246993857653269,0.0792276015728775
3.212,-0.241043246332484,0.092114788583428
3.214,-0.234373295064703,0.10464282527683
3.216,-0.227005864071252,0.116770967512207
3.218,-0.218965145285115,0.12845983704995
3.22,-0.210277579762123,0.13967155309219
3.222,-0.200971758091894,0.150369870680079
3.224,-0.191078326307668,0.160520296341527
3.226,-0.180629864094271,0.170090211592869
3.228,-0.169660777094007,0.179048983087836
3.23,-0.158207166110692,0.187368063106527
3.232,-0.146306702312438,0.195021089077542
3.234,-0.133998488134329,0.201983965825435
3.236,-0.121322920682705,0.208234948236031
3.238,-0.108321541453238,0.213754708531805
3.24,-0.0950368921957855,0.218526395149346
3.242,-0.0815123610094365,0.222535685911509
3.244,-0.0677920290917958,0.225770828985392
3.246,-0.0539205140578012,0.228222672218853
3.248,-0.0399428088226996,0.229884685248331
3.25,-0.0259041315368059,0.230752973268736
3.252,-0.0118497585578037,0.230826275259995
3.254,0.0021751280209125,0.230105958661588
3.256,0.01612560038763,0.228595998089474
3.258,0.0299571346661229,0.226302951388615
3.26,0.043625766195979,0.22323591961554
3.262,0.0570882364887528,0.219406498645877
3.264,0.0703021396387787,0.214828731202541
3.266,0.0832260591564988,0.209519035300792
3.268,0.0958197066120858,0.203496132607481
3.27,0.108044050956263,0.196780972812521
3.272,0.119861440605008,0.189396642412567
3.274,0.131235721113924,0.181368269704604
3.276,0.142132348549089,0.172722920694288
3.278,0.152518488789296,0.163489500818668
3.28,0.162363116626009,0.153698630088093
3.282,0.171637102346425,0.143382535252205
3.284,0.18031328998577,0.132574921696072
3.286,0.188366573434944,0.121310848173692
3.288,0.195773952290155,0.109626604188029
3.29,0.202514596031628,0.0975595671271169
3.292,0.20856988011924,0.0851480766678261
3.294,0.21392342969378,0.0724313034893582
3.296,0.218561145073079,0.059449102430227
3.298,0.22247122673396,0.0462418887331645
3.3,0.225644178071457,0.0328504950535772
3.302,0.228072820528416,0.0193160419078849
3.304,0.229752279889909,0.0056798025389986
3.306,0.23067997773821,-0.008016926663429
3.308,0.230855616965809,-0.0217329516325208
3.31,0.230281144145428,-0.035427309293872
3.312,0.228960724857513,-0.0490593884902563
3.314,0.226900702977865,-0.0625890454361575
3.316,0.224109550328995,-0.0759767229801482
3.318,0.220597818401189,-0.0891835519624267
3.32,0.216378084950278,-0.10217146520181
3.322,0.211464881081644,-0.114903291620632
3.324,0.205874636030051,-0.127342854432835
3.326,0.19962560534799,-0.139455060798771
3.328,0.192737791115577,-0.151205988362503
3.33,0.185232870686399,-0.16256296028931
3.332,0.177134114685157,-0.17349462736119
3.334,0.168466303473613,-0.183971030770539
3.336,0.159255647102382,-0.193963668433537
3.338,0.149529695466471,-0.203445557386264
3.34,0.139317250083171,-0.212391282958534
3.342,0.128648278611356,-0.220777048022135
3.344,0.117553823530542,-0.228580719711758
3.346,0.106065914799561,-0.235781869218792
3.348,0.0942174711121376,-0.242361801560195
3.35,0.0820422209987997,-0.248303592125585
3.352,0.069574605772025,-0.253592105508095
3.354,0.0568496863714406,-0.258214027225905
3.356,0.0439030578654564,-0.262157868842145
3.358,0.0307707598637127,-0.265413993493388
3.36,0.0174891838043423,-0.267974620137161
3.362,0.0040949856184953,-0.269833830230216
3.364,-0.0093750012878996,-0.270987574150818
3.366,-0.0228838547822083,-0.271433663077913
3.368,-0.036394652708182,-0.271171783142069
3.37,-0.049870555915878,-0.270203464862073
3.372,-0.0632748945486154,-0.26853209078267
3.374,-0.0765712538521443,-0.266162876227974
3.376,-0.0897235597068998,-0.263102855685797
3.378,-0.102696158519678,-0.25936085833755
3.38,-0.115453901431207,-0.254947495048402
3.382,-0.127962227422388,-0.249875123230719
3.384,-0.140187243351361,-0.244157826695756
3.386,-0.152095802427052,-0.237811379304714
3.388,-0.16365558631398,-0.230853211231829
3.39,-0.174835181815226,-0.223302374350106
3.392,-0.185604157240624,-0.215179494149843
3.394,-0.19593314055851,-0.206506735198611
3.396,-0.205793891139371,-0.197307743250696
3.398,-0.215159376600717,-0.187607602712697
3.4,-0.224003839962391,-0.177432772070703
3.402,-0.23230287522209,-0.166811037583769
3.404,-0.240033487660614,-0.155771439946716
3.406,-0.247174168886569,-0.144344217724815
3.408,-0.253704950729995,-0.132560730221369
3.41,-0.259607475094117,-0.120453393788269
3.412,-0.264865041375082,-0.108055593781492
3.414,-0.269462676149618,-0.0954016196942984
3.416,-0.273387167665196,-0.082526567240556
3.418,-0.276627128994181,-0.0694662619716567
3.42,-0.279173031905299,-0.0562571627059181
3.422,-0.281017253429533,-0.0429362740922502
3.424,-0.282154107935694,-0.0295410472433277
3.426,-0.282579880118402,-0.0161092803675495
3.428,-0.282292848402099,-0.0026790178683541
3.43,-0.281293313464221,0.0107115486844223
3.432,-0.279583607479244,0.0240241955904984
3.434,-0.277168100985471,0.0372207656939932
3.436,-0.274053219374828,0.0502632824782367
3.438,-0.270247433306042,0.063114060314782
3.44,-0.265761250540447,0.0757358127913316
3.442,-0.260607208099312,0.0880917662631896
3.444,-0.254799845241209,0.100145774212087
3.446,-0.248355684957175,0.11186242287654
3.448,-0.241293190981459,0.123207146406444
3.45,-0.233632740514983,0.13414633600507
3.452,-0.225396570658731,0.144647447580457
3.454,-0.216608725453875,0.154679107208161
3.456,-0.20729500262556,0.164211218306447
3.458,-0.197482880927091,0.173215058124708
3.46,-0.187201457481445,0.181663379445498
3.462,-0.176481365217011,0.189530503999847
3.464,-0.165354689294663,0.19679241279541
3.466,-0.153854879813515,0.203426832556281
3.468,-0.142016657892881,0.209413315873358
3.47,-0.129875916498231,0.214733318363431
3.472,-0.117469615079274,0.219370268735203
3.474,-0.10483567074865,0.223309636960142
3.476,-0.0920128436500443,0.226538983445846
3.478,-0.079040626414532,0.229048024109511
3.48,-0.0659591164391966,0.230828667649264
3.482,-0.0528088975393048,0.231875054810627
3.484,-0.0396309113884309,0.232183591545894
3.486,-0.0264663308669669,0.231752975663906
3.488,-0.0133564318496875,0.23058420936804
3.49,-0.000342457459531098,0.228680609380261
3.492,0.0125345079632692,0.226047811349249
3.494,0.0252336761690654,0.222693759440816
3.496,0.0377146854221475,0.218628695709089
3.498,0.0499377278375817,0.213865138447026
3.5,0.0618636850897041,0.208417849615285
3.502,0.0734542557100191,0.20230380224839
3.504,0.0846720796427065,0.195542132337741
3.506,0.0954808651651136,0.188154088791004
3.508,0.105845508811499,0.180162972167729
3.51,0.115732212097733,0.17159407049134
3.512,0.125108598744719,0.162474585137705
3.514,0.133943821098782,0.152833548600935
3.516,0.142208670447027,0.142701741937014
3.518,0.149875670625517,0.132111600286173
3.52,0.156919175219284,0.121097113275067
3.522,0.163315463051881,0.109693722399912
3.524,0.16904281096348,0.0979382122219153
3.526,0.174081577776227,0.0858685971363562
3.528,0.178414274745573,0.0735239992368431
3.53,0.182025622196816,0.0609445308362205
3.532,0.184902615845969,0.0481711652659104
3.534,0.187034566804354,0.0352456112049927
3.536,0.188413152066434,0.0222101751449888
3.538,0.189032438280554,0.0091076304487985
3.54,0.188888917502366,-0.004018915665572
3.542,0.187981520331015,-0.0171261676098544
3.544,0.186311628527817,-0.0301707710023396
3.546,0.183883077718134,-0.0431094627043045
3.548,0.180702152776218,-0.0558991957713828
3.55,0.17677757089375,-0.0684972938076409
3.552,0.172120466832339,-0.0808615771559245
3.554,0.166744358560777,-0.0929505061532569
3.556,0.160665113177416,-0.104723312450009
3.558,0.15390090401852,-0.116140136161795
3.56,0.146472153053297,-0.127162151072932
3.562,0.138401479966369,-0.13775169642055
3.564,0.129713630928763,-0.147872398468506
3.566,0.120435401657428,-0.157489289269781
3.568,0.110595568165683,-0.166568929217388
3.57,0.100224790703987,-0.175079508982264
3.572,0.089355520492843,-0.182990959937913
3.574,0.0780219125485067,-0.190275060071054
3.576,0.0662597056025446,-0.196905521977739
3.578,0.0541061251161122,-0.202858084544487
3.58,0.0415997624800233,-0.208110601913776
3.582,0.0287804550715597,-0.212643112233771
3.584,0.0156891648289917,-0.216437913091644
3.586,0.0023678513848505,-0.21947962153028
3.588,-0.0111406604510981,-0.221755235248084
3.59,-0.0247928172681057,-0.22325417378154
3.592,-0.0385444682489198,-0.223968328870393
3.594,-0.0523510098316063,-0.223892089105137
3.596,-0.0661675253873323,-0.223022371656752
3.598,-0.0799489252534656,-0.221358636288452
3.6,-0.0936500941706453,-0.218902898649472
3.602,-0.107226033932901,-0.21565972825061
3.604,-0.120632006269658,-0.211636247421721
3.606,-0.13382367966849,-0.206842114250906
3.608,-0.146757271897649,-0.201289493405661
3.61,-0.159389689936995,-0.194993036935738
3.612,-0.171678673816361,-0.187969837258152
3.614,-0.183582933949971,-0.18023939172414
3.616,-0.195062285995937,-0.171823532068473
3.618,-0.206077784329166,-0.162746373641126
3.62,-0.216591852597106,-0.153034244221872
3.622,-0.226568410456115,-0.142715609417629
3.624,-0.235972990987849,-0.131820979343504
3.626,-0.244772860994137,-0.12038282718735
3.628,-0.25293713576865,-0.10843548985887
3.63,-0.260436880244368,-0.0960150621233918
3.632,-0.267245209814995,-0.083159284921182
3.634,-0.273337393729426,-0.0699074310729441
3.636,-0.278690931856966,-0.0563001861721505
3.638,-0.283285643422538,-0.0423795163252203
3.64,-0.287103739509919,-0.0281885418405551
3.642,-0.290129892831557,-0.0137714011872348
3.644,-0.292351291163433,0.000826898665208603
3.646,-0.293757693043336,0.0155606108847424
3.648,-0.294341473531018,0.0303834083911712
3.65,-0.294097654028577,0.0452485248566503
3.652,-0.293023929759624,0.060108913681058
3.654,-0.291120695505325,0.074917392129707
3.656,-0.28839103959665,0.0896268086523097
3.658,-0.284840758359888,0.104190188910705
3.66,-0.280478340415384,0.118560895853002
3.662,-0.275314947827304,0.132692782791919
3.664,-0.269364393303172,0.146540355493295
3.666,-0.262643103142081,0.160058913472079
3.668,-0.255170065630261,0.173204716922621
3.67,-0.246966787882825,0.185935124850557
3.672,-0.238057223531055,0.198208745522759
3.674,-0.228467706253944,0.209985582821727
3.676,-0.218226866153693,0.221227169571289
3.678,-0.207365542574472,0.231896707829234
3.68,-0.195916688764126,0.241959196343037
3.682,-0.183915265478823,0.251381556164703
3.684,-0.171398124230662,0.260132745319977
3.686,-0.158403895178731,0.268183876327641
3.688,-0.144972861064188,0.275508317364029
3.69,-0.131146812290377,0.282081788168023
3.692,-0.116968922449365,0.287882456281479
3.694,-0.102483590386326,0.29289100991998
3.696,-0.0877363038639673,0.297090736068673
3.698,-0.0727734708494588,0.300467582897948
3.7,-0.0576422710464893,0.303010213093556
3.702,-0.0423904916159339,0.304710049295813
3.704,-0.0270663541187667,0.305561309242525
3.706,-0.0117183597505028,0.305561027510116
3.708,0.00360488794306513,0.304709072847977
3.71,0.018854852928801,0.303008151200597
3.712,0.0339832327865955,0.300463795312244
3.714,0.0489421363962286,0.297084354010166
3.716,0.063684242328832,0.292880957660613
3.718,0.0781629776701069,0.287867481794147
3.72,0.0923326759327053,0.282060497096019
3.722,0.106148736218909,0.275479210657882
3.724,0.119567790554613,0.26814539428797
3.726,0.132547848834862,0.260083304876978
3.728,0.145048447390767,0.251319595117692
3.73,0.157030798007022,0.241883216376894
3.732,0.1684579134089,0.231805303318986
3.734,0.179294743367084,0.221119067381334
3.736,0.189508292208249,0.209859661202229
3.738,0.199067729019364,0.198064056403484
3.74,0.207944493329527,0.185770896230408
3.742,0.216112386072642,0.173020355152311
3.744,0.223547657277816,0.159853986229903
3.746,0.230229078633863,0.146314564054164
3.748,0.236138000959797,0.132445924564655
3.75,0.241258414599488,0.118292803925591
3.752,0.245576987917816,0.103900668409396
3.754,0.249083089087293,0.08931554877873
3.756,0.251768821753233,0.0745838711894834
3.758,0.253629012665811,0.0597522873980788
3.76,0.254661226669284,0.0448675032188376
3.762,0.254865732736281,0.0299761174189073
3.764,0.254245494043745,0.015124452804427
3.766,0.252806120874918,0.000358393592531397
3.768,0.250555825048811,-0.0142767674966502
3.77,0.247505368968238,-0.0287364874905456
3.772,0.243667986384423,-0.0429771178118286
3.774,0.239059316477148,-0.0569560466925478
3.776,0.233697317350301,-0.0706318345328664
3.778,0.227602170246884,-0.0839643394030915
3.78,0.220796176986997,-0.0969148403842861
3.782,0.213303663436992,-0.109446144962705
3.784,0.20515085841898,-0.121522698232907
3.786,0.196365778172909,-0.133110669215402
3.788,0.186978104686189,-0.144178040264008
3.79,0.177019064106346,-0.154694683790977
3.792,0.166521291459271,-0.164632423185713
3.794,0.155518706292018,-0.173965096208551
3.796,0.144046380466517,-0.182668592938548
3.798,0.132140404830284,-0.190720905559064
3.8,0.119837760692809,-0.198102147265885
3.802,0.107176183738654,-0.204794574085272
3.804,0.0941940451093016,-0.210782599592399
3.806,0.0809302187876846,-0.216052799023134
3.808,0.0674239573902604,-0.220593897375916
3.81,0.0537147756222521,-0.224396766003121
3.812,0.0398423336022592,-0.22745440129556
3.814,0.0258463242318811,-0.229761899166558
3.816,0.0117663664069653,-0.231316428646597
3.818,-0.0023581014155211,-0.232117191601974
3.82,-0.0164879111065601,-0.232165389895908
3.822,-0.0305842665210106,-0.23146417491248
3.824,-0.0446088246313738,-0.230018608568513
3.826,-0.0585237836663962,-0.227835608640564
3.828,-0.0722919560543807,-0.224923900037541
3.83,-0.0858768461883472,-0.221293958151939
3.832,-0.0992427161410709,-0.216957963324774
3.834,-0.112354648814145,-0.2119297336612
3.836,-0.125178616174591,-0.206224674335182
3.838,-0.137681523701753,-0.199859726222505
3.84,-0.149831274010856,-0.192853300502043
3.842,-0.16159681088458,-0.185225230865
3.844,-0.172948168186258,-0.176996711771867
3.846,-0.18385651494452,-0.168190243495721
3.848,-0.194294198001573,-0.158829580788701
3.85,-0.204234779659733,-0.148939677108328
3.852,-0.213653082648697,-0.13854662383612
3.854,-0.222525223633013,-0.127677605220367
3.856,-0.230828650786858,-0.116360841671326
3.858,-0.23854217836326,-0.104625525733951
3.86,-0.245646023287662,-0.0925017786607951
3.862,-0.252121841507179,-0.0800205936035635
3.864,-0.257952756728112,-0.067213775538708
3.866,-0.263123396175319,-0.0541138825392098
3.868,-0.267619922607184,-0.0407541703404236
3.87,-0.27143006402021,-0.0271685345249734
3.872,-0.274543145676619,-0.0133914429381319
3.874,-0.276950122288005,0.000542123478301501
3.876,-0.278643600986659,0.0145967382786197
3.878,-0.279617870615148,0.0287365971500796
3.88,-0.279868925263007,0.0429255862538214
3.882,-0.27939449047747,0.057127363129573
3.884,-0.278194041473442,0.0713054185685704
3.886,-0.276268820665439,0.0854231627062923
3.888,-0.27362185414195,0.0994440063693394
3.89,-0.270257964700592,0.113331437186208
3.892,-0.266183777159644,0.127049104937241
3.894,-0.261407724759791,0.140560916485044
3.896,-0.2559400501653,0.153831108528813
3.898,-0.249792800776103,0.166824354853332
3.9,-0.24297982035417,0.179505844196317
3.902,-0.235516737569847,0.191841377265259
3.904,-0.227420940369738,0.203797460535579
3.906,-0.21871156446612,0.215341399841018
3.908,-0.209409452946159,0.226441393106255
3.91,-0.199537126097563,0.237066619041053
3.912,-0.189118743645584,0.247187341114046
3.914,-0.178180055595342,0.256774985123107
3.916,-0.16674835147183,0.265802240778307
3.918,-0.154852404049135,0.274243141611424
3.92,-0.142522404659817,0.282073155826248
