"Freq [GHz]","re(S(Antenna1_1_p1,Antenna1_1_p1)) []","im(S(Antenna1_1_p1,Antenna1_1_p1)) []"
3,0.0181890415770828,-0.0495756044799902
3.002,0.0174730901197203,-0.0498286176250642
3.004,0.0167621375012441,-0.0500678307674961
3.006,0.0160562345225201,-0.050294140588293
3.008,0.0153553609891955,-0.0505084177381519
3.01,0.0146594286886838,-0.0507115020149466
3.012,0.0139682844336791,-0.0509041978050266
3.014,0.01328171333,-0.051087270069291
3.016,0.0125994421242615,-0.0512614400069164
3.018,0.0119211435242891,-0.0514273819017004
3.02,0.0112464397700344,-0.0515857190271374
3.022,0.0105749071014318,-0.0517370207982903
3.024,0.0099060801428956,-0.0518818000582514
3.026,0.0092394564669032,-0.0520205104068983
3.028,0.0085745014152432,-0.052153543777632
3.03,0.00791065276203726,-0.0522812289630373
3.032,0.00724732604163832,-0.0524038298754579
3.034,0.00658391922976545,-0.0525215442663386
3.036,0.00591981793162631,-0.0526345031368886
3.038,0.00525440057680029,-0.0527427700072684
3.04,0.00458704342115731,-0.052846340938548
3.042,0.00391712579687932,-0.0529451446204988
3.044,0.00324403499967553,-0.053039042973745
3.046,0.00256717138092112,-0.0531278320730174
3.048,0.00188595341143905,-0.0532112432182289
3.05,0.00119982216359811,-0.053288944870058
3.052,0.0005082462072654,-0.0533605439346808
3.054,-0.00018927370763891,-0.0534255884563575
3.056,-0.00089320065722201,-0.0534835697988983
3.058,-0.00160395702142027,-0.0535339255891923
3.06,-0.00232192070654598,-0.053576042587144
3.062,-0.00304742118569606,-0.0536092601003756
3.064,-0.00378073604073453,-0.0536328734068308
3.066,-0.00452208785495293,-0.0536461377078591
3.068,-0.0052716408739751,-0.0536482716678094
3.07,-0.0060294985668446,-0.0536384621239542
3.072,-0.0067957007659602,-0.0536158680637477
3.074,-0.0075702218583839,-0.0535796250422071
3.076,-0.0083529687733451,-0.0535288500206187
3.078,-0.0091437794074517,-0.053462645901436
3.08,-0.0099424212450008,-0.0533801065053636
3.082,-0.0107485906971543,-0.0532803213919168
3.084,-0.0115619122392924,-0.0531623805492972
3.086,-0.0123819381989855,-0.0530253797709353
3.088,-0.0132081489110398,-0.0528684254104529
3.09,-0.0140399527810882,-0.0526906393319097
3.092,-0.0148766871929258,-0.0524911639015143
3.094,-0.0157176194600773,-0.0522691668163928
3.096,-0.0165619479658313,-0.0520238459933976
3.098,-0.0174088039800768,-0.0517544343822396
3.1,-0.0182572533152683,-0.0514602042876342
3.102,-0.0191062987296098,-0.0511404722851824
3.104,-0.0199548823769428,-0.0507946030766723
3.106,-0.0208018881303833,-0.0504220142945444
3.108,-0.0216461453569373,-0.0500221799647226
3.11,-0.0224864314273234,-0.0495946346948034
3.112,-0.0233214755601962,-0.0491389772465811
3.114,-0.0241499624908397,-0.0486548739596747
3.116,-0.0249705362684468,-0.0481420618445947
3.118,-0.0257818045332524,-0.0476003516887067
3.12,-0.0265823426144157,-0.0470296306726636
3.122,-0.0273706981897937,-0.0464298649807521
3.124,-0.028145395634724,-0.0458011017357088
3.126,-0.0289049409017172,-0.045143471142494
3.128,-0.0296478264970587,-0.0444571880565835
3.13,-0.0303725360792933,-0.0437425532843677
3.132,-0.0310775498298937,-0.0429999545581768
3.134,-0.0317613493590741,-0.0422298676785036
3.136,-0.0324224227816232,-0.0414328564470812
3.138,-0.0330592701551834,-0.0406095733444679
3.14,-0.0336704085459729,-0.0397607589443194
3.142,-0.0342543768740553,-0.0388872419038821
3.144,-0.0348097417389071,-0.0379899379153642
3.146,-0.0353351020127883,-0.0370698488735791
3.148,-0.0358290941529999,-0.0361280614411681
3.15,-0.0362903970850854,-0.0351657455873145
3.152,-0.0367177374156145,-0.0341841524567411
3.154,-0.0371098938718707,-0.0331846125674438
3.156,-0.0374657022611476,-0.0321685329814304
3.158,-0.0377840600207668,-0.03113739474513
3.16,-0.038063930751997,-0.0300927500071999
3.162,-0.0383043482908402,-0.0290362187910609
3.164,-0.0385044210145028,-0.0279694851958429
3.166,-0.0386633357603744,-0.0268942941400678
3.168,-0.0387803614397201,-0.0258124472330804
3.17,-0.0388548527717191,-0.0247257985355197
3.172,-0.0388862535288129,-0.0236362502461416
3.174,-0.0388740995320899,-0.0225457484944475
3.176,-0.0388180216551982,-0.0214562780685529
3.178,-0.03871774833055,-0.0203698579141049
3.18,-0.0385731080122246,-0.0192885358997891
3.182,-0.0383840310439782,-0.0182143838466125
3.184,-0.0381505518248031,-0.0171494920316659
3.186,-0.0378728099303154,-0.0160959636249741
3.188,-0.0375510516451787,-0.0150559095977132
3.19,-0.037185630905839,-0.0140314426566962
3.192,-0.0367770097296522,-0.0130246718513658
3.194,-0.0363257588176462,-0.0120376967758819
3.196,-0.0358325575139751,-0.011072601553882
3.198,-0.0352981934659913,-0.0101314495027743
3.2,-0.0347235622417301,-0.00921627670551057
3.202,-0.0341096661298604,-0.00832908695673536
3.204,-0.0334576134022983,-0.00747184527237328
3.206,-0.032768616353313,-0.00664647264976105
3.208,-0.032043989739354,-0.00585484007372425
3.21,-0.0312851484992692,-0.00509876315412245
3.212,-0.0304936056484844,-0.00437999644157197
3.214,-0.0296709688987026,-0.00370022811216999
3.216,-0.0288189382912517,-0.00306107455879309
3.218,-0.0279393024811152,-0.00246407548505032
3.22,-0.0270339351861231,-0.0019106886588099
3.222,-0.0261047912958944,-0.00140228529592053
3.224,-0.0251539026626681,-0.00094014527847295
3.226,-0.0241833736952709,-0.000525452829131251
3.228,-0.023195376551007,-0.00015929221816433
3.23,-0.0221921462796923,0.00015735607652737
3.232,-0.0211759755414384,0.0004236191765416
3.234,-0.0201492094333293,0.00063873523843481
3.236,-0.0191142393787052,0.00080205682403102
3.238,-0.0180734978582378,0.00091305342180494
3.24,-0.0170294518617855,0.00097131426834632
3.242,-0.0159845972384365,0.000976550644508561
3.244,-0.0149414518567958,0.00092859784639213
3.246,-0.0139025496298012,0.00082741666785326
3.248,-0.0128704332909996,0.00067309453733125
3.25,-0.0118476485137059,0.000465847089736421
3.252,-0.0108367363369437,0.0002060177949946
3.254,-0.0098402270815875,-0.000105921168411669
3.256,-0.00886063277766998,-0.000469369355526
3.258,-0.00790044086187708,-0.00088359872738547
3.26,-0.00696210676802096,-0.00134775441545988
3.262,-0.00604804762124724,-0.00186085631112325
3.264,-0.00516063489522134,-0.00242180055645921
3.266,-0.00430218802550115,-0.00302936177720808
3.268,-0.00347496757191421,-0.0036821959445194
3.27,-0.00268116870673685,-0.00437884257747882
3.272,-0.00192291479899236,-0.0051177287834331
3.274,-0.00120225133707609,-0.0058971723003955
3.276,-0.00052113968791062,-0.0067153860977115
3.278,0.000118548725295649,-0.0075704823643316
3.28,0.00071503793800886,-0.0084604775549075
3.282,0.00126665281042545,-0.0093832972497947
3.284,0.00177182420477031,-0.0103367817559281
3.286,0.00222909347394414,-0.0113186917513078
3.288,0.00263711738915529,-0.0123267144249712
3.29,0.00299467168762814,-0.0133584695418831
3.292,0.00330065516624042,-0.0144115162951739
3.294,0.00355409304077976,-0.0154833599896418
3.296,0.00375413952507878,-0.016571458977773
3.298,0.00390008105496029,-0.0176732319058355
3.3,0.003991337668457,-0.0187860651924228
3.302,0.0040274652784163,-0.0199073202834151
3.304,0.00400815651690869,-0.0210343414523014
3.306,0.00393324174420979,-0.022164463328929
3.308,0.00380268926380936,-0.0232950189117208
3.31,0.00361660521642783,-0.024423346772772
3.312,0.00337523276251283,-0.0255467993592563
3.314,0.00307895142286519,-0.0266627505531575
3.316,0.00272827493199494,-0.0277686028621482
3.318,0.00232384971618886,-0.0288617955304267
3.32,0.00186645232227782,-0.0299398115888097
3.322,0.00135698606564434,-0.0310001850106325
3.324,0.00079647815105066,-0.0320405078958354
3.326,0.00018607579598956,-0.0330584372667713
3.328,-0.00047295833042341,-0.0340517014065034
3.33,-0.00117925011860106,-0.0350181062993103
3.332,-0.0019313195548426,-0.0359555415951901
3.334,-0.00272758561638683,-0.0368619860465387
3.336,-0.00356637195161817,-0.0377355129485371
3.338,-0.00444591320052905,-0.0385742950562642
3.34,-0.00536436065382935,-0.039376608876534
3.342,-0.00631978907564441,-0.040140839049135
3.344,-0.00731020336845834,-0.0408654817587576
3.346,-0.0083335452244386,-0.0415491481977925
3.348,-0.0093877004268624,-0.042190567319195
3.35,-0.0104705057962003,-0.0427885880295847
3.352,-0.011579756662975,-0.0433421812100951
3.354,-0.0127132139856594,-0.0438504411369051
3.356,-0.0138686118793436,-0.0443125863411454
3.358,-0.0150436648205873,-0.0447279601663879
3.36,-0.0162360752238077,-0.0450960307721611
3.362,-0.0174435406047047,-0.0454163907512161
3.364,-0.0186637607322996,-0.0456887561968183
3.366,-0.0198944450222083,-0.045912965095913
3.368,-0.021133318989182,-0.0460889762660688
3.37,-0.022378131496878,-0.0462168664830731
3.372,-0.0236266610376154,-0.0462968281806705
3.374,-0.0248767221941443,-0.0463291664959735
3.376,-0.0261261719058998,-0.046314295879797
3.378,-0.0273729150076776,-0.0462527363245503
3.38,-0.0286149101512067,-0.0461451095874022
3.382,-0.0298501745373884,-0.0459921343587186
3.384,-0.031076789370361,-0.0457946224987557
3.386,-0.0322929042140519,-0.0455534730857139
3.388,-0.0334967409409797,-0.0452696681498292
3.39,-0.0346865981132256,-0.0449442670911057
3.392,-0.0358608539016238,-0.0445784008898427
3.394,-0.0370179695215102,-0.0441732670266111
3.396,-0.0381564916923711,-0.0437301231396961
3.398,-0.0392750551457167,-0.0432502814956966
3.4,-0.0403723841043914,-0.0427351029707032
3.402,-0.04144729423609,-0.0421859909577687
3.404,-0.0424986932266139,-0.0416043854877164
3.406,-0.043525581914569,-0.0409917572358152
3.408,-0.0445270541269949,-0.0403496015184688
3.41,-0.0455022969191168,-0.0396794325461691
3.412,-0.0464505898150817,-0.0389827774318924
3.414,-0.0473713042556176,-0.0382611708419984
3.416,-0.0482639020251956,-0.037516149183356
3.418,-0.0491279341761809,-0.0367492454570567
3.42,-0.0499630387012985,-0.0359619840659181
3.422,-0.0507689387855325,-0.0351558757792502
3.424,-0.0515454402476944,-0.0343324132203277
3.426,-0.0522924286464016,-0.0334930659655495
3.428,-0.0530098666800987,-0.0326392767263541
3.43,-0.0536977908002206,-0.0317724572975777
3.432,-0.054356308302244,-0.0308939846265016
3.434,-0.0549855929364712,-0.0300051977490068
3.436,-0.0555858822598277,-0.0291073942657633
3.438,-0.0561574733900424,-0.028201827877218
3.44,-0.0567007189504467,-0.0272897057526684
3.442,-0.057216023546312,-0.0263721862228104
3.444,-0.0577038394282094,-0.0254503767899129
3.446,-0.058164662550175,-0.0245253327944596
3.448,-0.0585990285524594,-0.0235980556345557
3.45,-0.0590075087409826,-0.0226694921369303
3.452,-0.0593907059067308,-0.0217405332745425
3.454,-0.0597492504868748,-0.0208120140458393
3.456,-0.06008379663656,-0.0198847129705529
3.458,-0.0603950182820906,-0.0189593522352917
3.46,-0.0606836055094454,-0.0180365976275025
3.462,-0.0609502607393106,-0.0171170591551525
3.464,-0.0611956953113631,-0.01620129156959
3.466,-0.0614206260027148,-0.0152897953227194
3.468,-0.0616257717612113,-0.0143830172656421
3.47,-0.0618118505520306,-0.013481352176569
3.472,-0.0619795761765742,-0.012585143722797
3.474,-0.06212965566145,-0.011694686270858
3.476,-0.0622627864340443,-0.0108102261471542
3.478,-0.062379653543532,-0.0099319635644885
3.48,-0.0624809276111966,-0.0090600541207356
3.482,-0.0625672621603048,-0.0081946111673733
3.484,-0.0626392919144309,-0.0073357073401061
3.486,-0.0626976304609669,-0.0064833767530942
3.488,-0.0627428685836875,-0.00563761722295999
3.49,-0.0627755727775311,-0.00479839219373935
3.492,-0.0627962832727308,-0.00396563320875113
3.494,-0.0628055131689346,-0.00313924181918399
3.496,-0.0628037468298525,-0.00231909227691117
3.498,-0.0627914390214183,-0.00150503337797422
3.5,-0.0627690137732959,-0.000696891126714756
3.502,-0.0627368636009809,0.00010552918838971
3.504,-0.0626953489622935,0.00090244044974063
3.506,-0.0626447974568864,0.00169407161400446
3.508,-0.0625855035155012,0.00248066520072933
3.51,-0.0625177281032667,0.00326247502633964
3.512,-0.0624416984982812,0.00403976389270514
3.514,-0.0623576081552179,0.00481280140693498
3.516,-0.0622656168559732,0.00558186153761367
3.518,-0.0621658507764828,0.00634722037557274
3.52,-0.0620584029277159,0.00710915411156676
3.522,-0.0619433333941186,0.00786793661811193
3.524,-0.0618206697695204,0.00862383747861531
3.526,-0.0616904081037733,0.00937711978945615
3.528,-0.0615525132714267,0.0101280380589431
3.53,-0.0614069199971841,0.0108768362094205
3.532,-0.0612535338110308,0.0116237457879104
3.534,-0.0610922319616464,0.0123689838169927
3.536,-0.0609228645395662,0.0131127511299888
3.538,-0.0607452560224457,0.0138552303967985
3.54,-0.0605592062496344,0.014596584820428
3.542,-0.0603644920809846,0.0153369561821456
3.544,-0.0601608686311826,0.0160764633216604
3.546,-0.0599480713298658,0.0168152008846955
3.548,-0.059725817129782,0.0175532378376172
3.55,-0.0594938066872504,0.0182906162183591
3.552,-0.0592517257136612,0.0190273500970755
3.554,-0.0589992473262232,0.0197634243297431
3.556,-0.058736033792584,0.0204987938879909
3.558,-0.0584617383364799,0.021233382809205
3.56,-0.0581760078867028,0.0219670835310683
3.562,-0.0578784842076308,0.0226997564914498
3.564,-0.0575688068492367,0.0234312294494936
3.566,-0.0572466150565721,0.0241612973612192
3.568,-0.0569115495843175,0.0248897217796118
3.57,-0.0565632555680125,0.0256162313297364
3.572,-0.056201384310057,0.0263405215110872
3.574,-0.0558255954530933,0.0270622546409463
3.576,-0.0554355594542554,0.0277810606062607
3.578,-0.0550309595440878,0.0284965370835132
3.58,-0.0546114940737627,0.0292082500452238
3.582,-0.0541768783655403,0.0299157347552292
3.584,-0.0537268470899083,0.0306184962763561
3.586,-0.0532611562529495,0.0313160107327196
3.588,-0.0527795849732981,0.0320077261639164
3.59,-0.0522819376611057,0.03269306391946
3.592,-0.0517680459139198,0.0333714197706075
3.594,-0.0512377698506063,0.0340421656488633
3.596,-0.0506910004303323,0.0347046507682478
3.598,-0.0501276606174656,0.0353582037345481
3.6,-0.0495477070126453,0.0360021340185275
3.602,-0.0489511314289014,0.0366357337053895
3.604,-0.0483379619856575,0.0372582794832794
3.606,-0.0477082645334902,0.0378690348700938
3.608,-0.0470621434976489,0.0384672519703385
3.61,-0.0463997429609947,0.039052173527262
3.612,-0.0457212476593613,0.0396230357018479
3.614,-0.0450268835589714,0.0401790693958602
3.616,-0.0443169185519367,0.0407195033065267
3.618,-0.043591662761166,0.0412435658088744
3.62,-0.0428514690921063,0.0417504874801277
3.622,-0.0420967335781147,0.0422395033283705
3.624,-0.0413278949628491,0.0427098552074958
3.626,-0.0405454352331373,0.0431607943076502
3.628,-0.0397498792106502,0.0435915833281301
3.63,-0.0389417943503682,0.0440014989602082
3.632,-0.0381217900919951,0.044389834251118
3.634,-0.037290517704426,0.0447559007627559
3.636,-0.0364486693389663,0.0450990311831495
3.638,-0.0355969773835384,0.0454185814397197
3.64,-0.0347362134969186,0.0457139326770449
3.642,-0.0338671878895571,0.0459844940151652
3.644,-0.032990747666433,0.0462297039419086
3.646,-0.0321077761633357,0.0464490331736424
3.648,-0.0312191912250182,0.0466419861471712
3.65,-0.0303259440705771,0.0468081031442503
3.652,-0.0294290174906243,0.046946962146058
3.654,-0.0285294247803254,0.047058180791707
3.656,-0.0276282072316504,0.0471414179843097
3.658,-0.0267264330178884,0.0471963754367054
3.66,-0.0258251948653841,0.0472227997950015
3.662,-0.0249256087213041,0.0472204833389192
3.664,-0.0240288111411725,0.0471892661212947
3.666,-0.023135957531081,0.0471290369830791
3.668,-0.022248219698261,0.0470397346516205
3.67,-0.0213667841748248,0.0469213493445573
3.672,-0.0204928495190555,0.046773923280759
3.674,-0.0196276241269443,0.0465975522167268
3.676,-0.0187723238916932,0.0463923857172887
3.678,-0.0179281698934721,0.0461586285062341
3.68,-0.0170963856101264,0.045896540693037
3.682,-0.016278194858823,0.0456064386057029
3.684,-0.0154748188486615,0.0452886951139773
3.686,-0.0146874740887307,0.0449437401646411
3.688,-0.0139173692619881,0.0445720609890289
3.69,-0.0131657029665765,0.0441742020160227
3.692,-0.0124336609036649,0.0437507655314785
3.694,-0.0117224132688258,0.04330241083498
3.696,-0.0110331120634273,0.0428298549636733
3.698,-0.0103668881639588,0.0423338716079484
3.7,-0.0097248488845893,0.0418152912395563
3.702,-0.0091080750084339,0.0412750006028134
3.704,-0.00851761815526668,0.0407139418025247
3.706,-0.00795449786500282,0.0401331118991164
3.708,-0.00741969894493487,0.0395335619249766
3.71,-0.00691416866419896,0.0389163958285969
3.712,-0.0064388138754045,0.0382827696072438
3.714,-0.00599449833077136,0.0376338898911658
3.716,-0.00558203983516795,0.0369710126436126
3.718,-0.00520220753589311,0.0362954415371465
3.72,-0.00485571925629468,0.0356085266300192
3.722,-0.00454323859109101,0.0349116622778819
3.724,-0.0042653723843868,0.0342062852199699
3.726,-0.00402266790613788,0.0334938727899784
3.728,-0.00381561043123344,0.0327759403006924
3.73,-0.00364462049997848,0.0320540387248945
3.732,-0.00351005147910014,0.0313297524219865
3.734,-0.00341218723391577,0.030604696031334
3.736,-0.00335123961575138,0.0298805116482289
3.738,-0.00332734615463632,0.0291588659814839
3.74,-0.00334056813647282,0.028441446834408
3.742,-0.00339088820135819,0.0277299596703107
3.744,-0.00347820886018391,0.0270261242819026
3.746,-0.00360235017113686,0.0263316707021643
3.748,-0.0037630485402034,0.025648335512855
3.75,-0.00395995514151189,0.0249778572166912
3.752,-0.00419263447518374,0.0243219727631962
3.754,-0.00446056364870696,0.02368241235223
3.756,-0.00476313115876655,0.0230608950334184
3.758,-0.00509963648318945,0.0224591241467788
3.76,-0.00546928982571591,0.0218787821282376
3.762,-0.00587121180871856,0.0213215257580073
3.764,-0.0063044339942548,0.020788980639327
3.766,-0.0067678990180823,0.0202827364705314
3.768,-0.007260461827189,0.0198043413783498
3.77,-0.0077808907467624,0.0193552965544544
3.772,-0.0083278689365772,0.0189370510531714
3.774,-0.0088999965268522,0.0185509964104522
3.776,-0.0094957925306985,0.0181984608591336
3.778,-0.0101136980351159,0.0178807043289085
3.78,-0.0107520790850031,0.0175989134717139
3.782,-0.011409229938008,0.0173541957142952
3.784,-0.0120833771640201,0.0171475750380933
3.786,-0.0127726841410913,0.0169799865695977
3.788,-0.0134752552728109,0.0168522725659919
3.79,-0.0141891412896538,0.0167651772740228
3.792,-0.0149123449357292,0.0167193436772871
3.794,-0.0156428263359821,0.0167153090404487
3.796,-0.0163785092244827,0.016753502096452
3.798,-0.017117287870716,0.0168342396299362
3.8,-0.0178570330301912,0.0169577240271152
3.802,-0.0185955997863465,0.0171240412427277
3.804,-0.0193308342426984,0.0173331591136007
3.806,-0.0200605809452154,0.0175849260358656
3.808,-0.0207826908388396,0.017879070835084
3.81,-0.0214950284782479,0.0182152021918792
3.812,-0.0221954802495408,0.0185928096694396
3.814,-0.0228819614764289,0.0190112644064423
3.816,-0.0235524246433347,0.0194698212104026
3.818,-0.0242048667986211,0.0199676204090262
3.82,-0.0248373369224601,0.0205036911430924
3.822,-0.0254479431471106,0.0210769545885204
3.824,-0.0260348601183738,0.0216862278914865
3.826,-0.0265963351193962,0.0223302287384359
3.828,-0.0271306948633807,0.0230075806074591
3.83,-0.0276363512663472,0.0237168179530606
3.832,-0.0281118069120709,0.0244563924742263
3.834,-0.0285556602001453,0.0252246790887998
3.836,-0.0289666098085912,0.0260199831278182
3.838,-0.0293434587917525,0.0268405472584945
3.84,-0.0296851178038562,0.0276845583559565
3.842,-0.0299906080875796,0.0285501556860001
3.844,-0.0302590636292582,0.0294354380091327
3.846,-0.0304897327785196,0.0303384718392788
3.848,-0.0306819792385735,0.031257298995299
3.85,-0.0308352827137328,0.0321899443586719
3.852,-0.0309492381566972,0.0331344237808801
3.854,-0.0310235555330128,0.0340887518466334
3.856,-0.0310580581548584,0.0350509490786741
3.858,-0.0310526807522597,0.0360190493450488
3.86,-0.0310074670986625,0.0369911068992049
3.862,-0.0309225671221789,0.0379652029852365
3.864,-0.030798233584112,0.038939452283492
3.866,-0.0306348178173195,0.0399120088918902
3.868,-0.0304327662341844,0.0408810720385764
3.87,-0.0301926153562102,0.0418448908710656
3.872,-0.0299149870606188,0.0428017698391681
3.874,-0.0296005837150051,0.0437500722716015
3.876,-0.0292501829336588,0.0446882247742197
