"Freq [GHz]","re(S(Antenna1_1_1,Antenna1_1_1)) []","im(S(Antenna1_1_1,Antenna1_1_1)) []"
2,-0.0125626423571189,-0.508729169789548
2.008,-0.0338369346412378,-0.506781128639796
2.016,-0.0544809326666979,-0.504032022461018
2.024,-0.0745051941117822,-0.500563327904986
2.032,-0.0939302430579682,-0.496446151436778
2.04,-0.11278414282768,-0.491739697570336
2.048,-0.131099746613658,-0.48649027131645
2.056,-0.148911756159575,-0.480730891794379
2.064,-0.166253735809356,-0.474481558859764
2.072,-0.183155236469459,-0.467750176605303
2.08,-0.199639181328774,-0.460534099444649
2.088,-0.215719653182835,-0.452822230582101
2.096,-0.23140020298002,-0.444597571241387
2.104,-0.246672772435962,-0.435840093642887
2.112,-0.261517291866224,-0.426529792602967
2.12,-0.275901979938956,-0.416649760387454
2.128,-0.289788565331486,-0.40619296448023
2.136,-0.30313121938321,-0.395156008021586
2.144,-0.315864223131005,-0.383538481997384
2.152,-0.327922681915532,-0.371360946998566
2.16,-0.339240344472404,-0.358658319709213
2.168,-0.349753019214388,-0.345480265057813
2.176,-0.359402035164988,-0.331890798377647
2.184,-0.368137568706458,-0.317967097942214
2.192,-0.375921658848459,-0.303797568098669
2.2,-0.382730744164863,-0.289479232794082
2.208,-0.388557573750214,-0.275114576585068
2.216,-0.393412372235813,-0.260807983255641
2.224,-0.397323174334375,-0.246661948892891
2.232,-0.400335286065555,-0.232773264838423
2.24,-0.40250987593061,-0.219229374597734
2.248,-0.40392174757882,-0.206105106525895
2.256,-0.404616941913317,-0.193481081520507
2.264,-0.404727700511204,-0.181405865971437
2.272,-0.404372028858834,-0.169893625317398
2.28,-0.403650717388204,-0.15894143645665
2.288,-0.402656983319652,-0.148526933762687
2.296,-0.401472271149482,-0.138610827328884
2.304,-0.4001627815917,-0.129140367656039
2.312,-0.398776943467887,-0.120053553561939
2.32,-0.397343986943206,-0.111283831939003
2.328,-0.395873709813909,-0.102765005274262
2.336,-0.394357455555674,-0.0944360479441877
2.344,-0.392770247390707,-0.086245536207081
2.352,-0.391073951548333,-0.0781554191810886
2.36,-0.389221279807587,-0.0701438973470517
2.368,-0.387160390135648,-0.062207228568179
2.376,-0.384839807967548,-0.0543603457339275
2.384,-0.382213371177801,-0.0466362406131446
2.392,-0.37924490006519,-0.0390841411839692
2.4,-0.375912309193016,-0.031766579975687
2.408,-0.372210909454464,-0.0247555150650952
2.416,-0.3681556940095,-0.0181277197421146
2.424,-0.363782457847062,-0.01195969893404
2.432,-0.35914766447638,-0.0063224183761741
2.44,-0.354327041200036,-0.00127614520214311
2.448,-0.349412953074649,0.00313430405862409
2.456,-0.344510671896753,0.00688362979280761
2.464,-0.339733717340072,0.00996918325981627
2.472,-0.335198500066733,0.0124129656066871
2.48,-0.331018539087609,0.0142623440469807
2.488,-0.327298555755098,0.0155894003841106
2.496,-0.324128763199322,0.0164888961628222
2.504,-0.321608209481842,0.0170357609364862
2.512,-0.31980895214626,0.0173812285111604
2.52,-0.318720520435835,0.0177191477778905
2.528,-0.318318487631281,0.018198142019788
2.536,-0.318546600955954,0.0189584498811554
2.544,-0.319319286150385,0.0201246378987301
2.552,-0.320525869911122,0.0217990201874551
2.56,-0.322036330971092,0.0240561957671632
2.568,-0.323708290865703,0.0269390661700474
2.576,-0.325394867105888,0.0304566231395809
2.584,-0.326952941012292,0.0345837010279697
2.592,-0.328251345986347,0.0392627750803467
2.6,-0.329178464435384,0.0444077613561198
2.608,-0.329648736480547,0.0499096440855447
2.616,-0.329607632270823,0.0556436304359978
2.624,-0.329034721207771,0.0614774200684416
2.632,-0.327897223949402,0.0672648811123688
2.64,-0.326294189883513,0.0728751988425357
2.648,-0.324319370368251,0.0782116974979872
2.656,-0.322081961229777,0.0832056968820683
2.664,-0.319705507755079,0.0878220477870638
2.672,-0.31731866525513,0.0920619194677366
2.68,-0.315045483051996,0.0959631263277554
2.688,-0.312995863264216,0.0995979341006856
2.696,-0.31125684435449,0.103068459208746
2.704,-0.309885311264234,0.106499943360548
2.712,-0.308902641790725,0.110032335881919
2.72,-0.308291669051407,0.113810737347708
2.728,-0.307996181526463,0.117975340095805
2.736,-0.307923007350812,0.122651537849791
2.744,-0.307946551172518,0.127940864877438
2.752,-0.307937679569636,0.133922517555245
2.76,-0.307757940599134,0.140672198757172
2.768,-0.307146303124203,0.148161996212647
2.776,-0.305918950032441,0.156329922047929
2.784,-0.30390867295302,0.165071692625332
2.792,-0.300974519656462,0.17424612293977
2.8,-0.297009692288692,0.183682667514581
2.808,-0.291947243351982,0.193190561344839
2.816,-0.285763281046704,0.202568928250386
2.824,-0.278477573534358,0.211617186155394
2.832,-0.270151617391376,0.220145089568318
2.84,-0.26088439871738,0.227981805277356
2.848,-0.250806211933619,0.234983511186347
2.856,-0.240071005714852,0.241039130851584
2.864,-0.228847790770374,0.246073956683334
2.872,-0.217311669704463,0.250051061558969
2.88,-0.20563503607716,0.252970540616154
2.888,-0.193979442721908,0.254866753013323
2.896,-0.182488564879001,0.255803839733915
2.904,-0.171282589812623,0.255869873217484
2.912,-0.160454259853367,0.255170045519969
2.92,-0.150066688306211,0.25381932395583
2.928,-0.140152964986393,0.25193499924075
2.936,-0.130717475217033,0.249629525032503
2.944,-0.121738778096278,0.247004004518436
2.952,-0.113173827141697,0.244142624539805
2.96,-0.104963270946486,0.241108275872132
2.968,-0.0970375410603891,0.237939533943826
2.976,-0.0893234175452816,0.234649110289803
2.984,-0.0817507570695542,0.231223824535409
2.992,-0.0742590716255599,0.22762608862288
3,-0.0668036562995194,0.22379684178541
3.008,-0.0592899014176395,0.219873411101054
3.016,-0.0516970085025333,0.215512913616615
3.024,-0.0440724731913591,0.210591678769968
3.032,-0.0365027687643765,0.204993533378259
3.04,-0.0291117568164938,0.19861957405552
3.048,-0.0220568596213507,0.191397560555087
3.056,-0.0155230743551913,0.183290440371521
3.064,-0.00971501530948321,0.174303525392986
3.072,-0.00484727686704855,0.164489875275816
3.08,-0.00113351344113777,0.153953501189745
3.088,0.00122527480662862,0.142850088372838
3.096,0.00205268656145474,0.131385045026755
3.104,0.00120847992186048,0.119808814471514
3.112,-0.00140088504862137,0.108409531898901
3.12,-0.00581334037304941,0.0975032579108491
3.128,-0.0121172428175895,0.0874224646633601
3.136,-0.0202879557325288,0.078599284312433
3.144,-0.0299366331436444,0.0713938384579911
3.152,-0.0407944307556495,0.066082356996944
3.16,-0.0525404830725714,0.0628877033383214
3.168,-0.0648142724440837,0.0619693678010548
3.176,-0.0772299749736113,0.0634165390572815
3.184,-0.0893919983083552,0.0672446536043444
3.192,-0.100910844058816,0.0733956210165144
3.2,-0.111418397907353,0.0817417037637152
3.208,-0.12058177680031,0.092092808058624
3.216,-0.12811494417571,0.104206731516043
3.224,-0.1337874374086,0.117801727936292
3.232,-0.137429728408263,0.13257060171995
3.24,-0.138934948308748,0.148195444650953
3.248,-0.138256937563781,0.164362083224572
3.256,-0.13540874818435,0.180487553949606
3.264,-0.130602499324233,0.196513369774716
3.272,-0.123937624817186,0.212363749209865
3.28,-0.115495804237077,0.227905487137256
3.288,-0.105351538722656,0.243036458207041
3.296,-0.0935631987588719,0.257678597114424
3.304,-0.0801665867729956,0.27176861640299
3.312,-0.0651715467624075,0.285247214003395
3.32,-0.0485619431627805,0.298047642245445
3.328,-0.030299095865627,0.310084572834482
3.336,-0.0103285118103336,0.321244193540824
3.344,0.01141048792044,0.331376410317328
3.352,0.0349728672539967,0.340289905755995
3.36,0.0603945069765783,0.347750627575962
3.368,0.0876783113264793,0.353484059408266
3.376,0.116826186242083,0.357186711842963
3.384,0.148006112424177,0.358458806555722
3.392,0.180685001090222,0.35684898829031
3.4,0.214562091750398,0.352042436619139
3.408,0.249271213828308,0.343763566883666
3.416,0.284387875089177,0.331790436096475
3.424,0.319439631100829,0.315967448397919
3.432,0.353919266654395,0.296215605455088
3.44,0.387300147145073,0.272539681895507
3.448,0.419052963568424,0.245031879837781
3.456,0.448663008093983,0.213871718785244
3.464,0.475647083708265,0.17932213474746
3.472,0.499569173283368,0.141721980820455
3.48,0.520054069060055,0.101475327437959
3.488,0.536798287636942,0.0590381396826482
3.496,0.549577759666402,0.0149030510369113
3.504,0.558259874105427,-0.0302898402712271
3.512,0.562874696544219,-0.0760439368137648
3.52,0.56345447049324,-0.122020332198128
3.528,0.560072899195595,-0.167773326329228
3.536,0.552860531892444,-0.212886866901065
3.544,0.541996672577992,-0.256982240063236
3.552,0.527700307145781,-0.299723759188936
3.56,0.510220525704856,-0.340822366182904
3.568,0.489826907410025,-0.380037170503402
3.576,0.466800300714529,-0.417175052848216
3.584,0.441424376249653,-0.452088548075857
3.592,0.413978257307816,-0.484672291115434
3.6,0.384730449460604,-0.514858357733263
3.608,0.353934202056715,-0.54261085780414
3.616,0.321824345658551,-0.567920142481729
3.624,0.288615566188491,-0.590796969831125
3.632,0.254401074238748,-0.611280765466435
3.64,0.219443859562614,-0.629346103925027
3.648,0.183931243787299,-0.645032505678397
3.656,0.148018829667665,-0.658391709280056
3.664,0.11184585521479,-0.669479044101578
3.672,0.0755372314523034,-0.678350699945326
3.68,0.0392058993830918,-0.685061703453467
3.688,0.00295533297611653,-0.689664611641707
3.696,-0.0331179758935425,-0.692208895664514
3.704,-0.0689221980736834,-0.692740954746431
3.712,-0.104368138188163,-0.691304672496518
3.72,-0.139367593708052,-0.687942406601349
3.728,-0.173832169328102,-0.682696288734458
3.736,-0.207672582390711,-0.675609704864869
3.744,-0.24079846390939,-0.666728826639906
3.752,-0.273101428511796,-0.656120116202549
3.76,-0.304475386646358,-0.643888013547773
3.768,-0.334898727319577,-0.630048296239488
3.776,-0.364287648047679,-0.614658100114693
3.784,-0.392558274872692,-0.597781262622147
3.792,-0.419628102073237,-0.579489244892529
3.8,-0.445417657160121,-0.559861642060171
3.808,-0.469852283026992,-0.538986244270792
3.816,-0.492863925111371,-0.51695863659845
3.824,-0.514392813145236,-0.493881351657016
3.832,-0.534388934183687,-0.469862612862827
3.84,-0.552813205599039,-0.445014728004619
3.848,-0.569638272843302,-0.419452211088085
3.856,-0.584848876175522,-0.393289724748069
3.864,-0.598441752290594,-0.366639945229389
3.872,-0.6104250597821,-0.339611456887317
3.88,-0.620827540453286,-0.312254912576716
3.888,-0.629642955107752,-0.284682179611292
3.896,-0.636892339145719,-0.257019498883677
3.904,-0.64261764296372,-0.229354099962107
3.912,-0.646866776867036,-0.201761641664354
3.92,-0.649690885405626,-0.174305327265452
3.928,-0.651141402642342,-0.147035639211744
3.936,-0.651267024140932,-0.119990748900132
3.944,-0.650110744953677,-0.0931976287264502
3.952,-0.647707120860795,-0.0666738619255963
3.96,-0.644079911593687,-0.0404301118136537
3.968,-0.639240259225942,-0.0144731770296571
3.976,-0.633185541745565,0.0111904751702186
3.984,-0.625899021002587,0.0365508379884953
3.992,-0.617350375934933,0.0615903256768482
4,-0.607497176845375,0.0862797579445275
4.008,-0.596390755765396,0.11050015761272
4.016,-0.583900031598578,0.134311205567517
4.024,-0.569947462685399,0.157637666115909
4.032,-0.554455787863031,0.180375849133022
4.04,-0.537355011846262,0.202392213978966
4.048,-0.518589869476705,0.223523570861497
4.056,-0.498127408284976,0.243579011614356
4.064,-0.475965149386146,0.262367120120224
4.072,-0.452104416069388,0.279732306192461
4.08,-0.426593561794474,0.295312842225933
4.088,-0.399559261846214,0.308841237940755
4.096,-0.371182125539375,0.320058659729468
4.104,-0.341696131180708,0.328726756655289
4.112,-0.311385361906504,0.334639453489752
4.12,-0.280578042311393,0.337634080693683
4.128,-0.249588515854867,0.337563755456062
4.136,-0.218807929190464,0.334314081758852
4.144,-0.188751858009162,0.327962867753323
4.152,-0.159834303766701,0.318622736340785
4.16,-0.132445268025861,0.306479356329041
4.168,-0.106935474341423,0.291785251415713
4.176,-0.0836027650413273,0.274850141785121
4.184,-0.0626809949843832,0.256028270683989
4.192,-0.0444694574201638,0.235708056964262
4.2,-0.0290131837853335,0.214376552085116
4.208,-0.0161765724196043,0.192441156127117
4.216,-0.00585868752389838,0.170253532230703
4.224,0.00209863577711055,0.148117318292358
4.232,0.00789610943497279,0.126277594270271
4.24,0.0117602797019837,0.104914441071477
4.248,0.0139258908759296,0.0841409804734759
4.256,0.0148416086381512,0.064110616341856
4.264,0.0146048936650718,0.0446124202516933
4.272,0.013257565858207,0.0255253704193599
4.28,0.0108537349296392,0.00676604546643199
4.288,0.00739605318408047,-0.0117468787603333
4.296,0.0028398444697752,-0.0300772345875075
4.304,-0.00289876799236015,-0.0482578165604369
4.312,-0.00993138810292336,-0.0662796657918416
4.32,-0.0186087705648853,-0.0840480591094775
4.328,-0.0288121840929594,-0.101376822071698
4.336,-0.0405928174991051,-0.118121552483764
4.344,-0.0539924312921871,-0.134106547583532
4.352,-0.0690190051474303,-0.1491301733022
4.36,-0.0856394970359001,-0.162973720173954
4.368,-0.103775045067836,-0.175411929691512
4.376,-0.123328936348376,-0.18622842055392
4.384,-0.144308971586898,-0.195177539897094
4.392,-0.166260096908578,-0.202008317098206
4.4,-0.188889320600435,-0.206597915740519
4.408,-0.211882326582297,-0.20888291208397
4.416,-0.234918218439081,-0.208863150943729
4.424,-0.257684816896542,-0.206601747248651
4.432,-0.279893506259537,-0.202221217792739
4.44,-0.301238216556151,-0.195913391499606
4.448,-0.321475462677141,-0.187966447756694
4.456,-0.340610929607631,-0.178599203909779
4.464,-0.358578252768934,-0.168045033894299
4.472,-0.375364074224617,-0.156530099793919
4.48,-0.391003686290455,-0.144261034260391
4.488,-0.405573834373731,-0.131414127711863
4.496,-0.419183143536231,-0.118126657438246
4.504,-0.432027770280789,-0.104508615001805
4.512,-0.444250181924415,-0.0905559315922754
4.52,-0.455898943498843,-0.0762317688113235
4.528,-0.467068393248375,-0.0614944759405248
4.536,-0.47782787718904,-0.0462699079473126
4.544,-0.48821406820518,-0.0304588939318373
4.552,-0.498225255706344,-0.0139463266116263
4.56,-0.507817920872124,0.003388624247935
4.568,-0.516905791158296,0.0216617260842306
4.576,-0.525361438322006,0.0409729027826503
4.584,-0.533020355043752,0.0613960329300524
4.592,-0.539687320847187,0.0829698701383508
4.6,-0.545144754645562,0.105690572312975
4.608,-0.549162653532815,0.129506248700054
4.616,-0.551509638293766,0.154313837648729
4.624,-0.55196456878459,0.17995851803562
4.632,-0.550190569271785,0.206245070988722
4.64,-0.546144379866448,0.232849612915939
4.648,-0.539744523021161,0.259483581280054
4.656,-0.530939122822732,0.285841721433793
4.664,-0.519729350384456,0.311606339372363
4.672,-0.506171642804713,0.336458136207587
4.68,-0.490377543787258,0.360087370041611
4.688,-0.472531399568181,0.382227190882891
4.696,-0.453031850106542,0.403000597385168
4.704,-0.431716874637948,0.421865923313405
4.712,-0.408851756269171,0.438576398965518
4.72,-0.384749753047912,0.452876598094874
4.728,-0.359863730770638,0.464389985123818
4.736,-0.334601645764796,0.473405552773231
4.744,-0.309306114792534,0.479966541739145
4.752,-0.28429436322097,0.484181564118193
4.76,-0.259839264752721,0.486212446441653
4.768,-0.236197543077654,0.486224316637805
4.776,-0.213572734897407,0.484440224015514
4.784,-0.192116963317813,0.481104906561722
4.792,-0.171929189430874,0.476473091994465
4.8,-0.153056130067488,0.470797954044966
4.808,-0.135495686387418,0.464320326031512
4.816,-0.119210441952779,0.457256836160863
4.824,-0.104122846278324,0.449802379306335
4.832,-0.0901130025406354,0.44211676614656
4.84,-0.0770528915392802,0.43431493310339
4.848,-0.0648074501551963,0.426471232266145
4.856,-0.0532444361134568,0.418620829797065
4.864,-0.0422434463206558,0.410763321210243
4.872,-0.0317036128643658,0.402868270994563
4.88,-0.0215172835080458,0.394900095989072
4.888,-0.0116429826364626,0.386762999704646
4.896,-0.00209151847835358,0.378364882792195
4.904,0.00711116158832426,0.369633897884244
4.912,0.0159109301579168,0.360511916637735
4.92,0.0242307421857942,0.350961592642045
4.928,0.0319774386094052,0.340971782082938
4.936,0.0390496290613461,0.330561011930523
4.944,0.0452731788956529,0.319647385400135
4.952,0.0505494597728145,0.308456904516231
4.96,0.0548314456652779,0.297151434737478
4.968,0.0580919423871313,0.285875081356936
4.976,0.0608142570000099,0.275802060246185
4.984,0.0630682805064268,0.265938347047537
4.992,0.0648208250980704,0.256155398125202
5,0.066046261037469,0.246443864185042
5.008,0.0646425792907503,0.234691431953827
5.016,0.061695208454934,0.22419974365405
5.024,0.0585966666992085,0.216250317206649
5.032,0.0552599265123962,0.209459382699069
5.04,0.0521917074700261,0.203628212490404
5.048,0.049245186157499,0.198690357634949
5.056,0.0465783745865267,0.194536117236111
5.064,0.0443206695454426,0.190984653672284
5.072,0.042510384923167,0.18773753840485
5.08,0.0411319657931742,0.184833015126419
5.088,0.0402006308511174,0.182137869084918
5.096,0.039583251387035,0.179500763506765
5.104,0.0390449406381278,0.176895884878604
5.112,0.0388766752084455,0.174350935452984
5.12,0.0390646368733217,0.171763375225146
5.128,0.0398195701366583,0.168969036964625
5.136,0.0411695971744456,0.165632250596786
5.144,0.0425126616090172,0.16173099163596
5.152,0.0436714746092585,0.157279309472888
5.16,0.0444798574127329,0.152335914701781
5.168,0.0447932482129994,0.146999837065121
5.176,0.0444978238247914,0.141403689490535
5.184,0.0435177040823129,0.135704939019681
5.192,0.0419089320002546,0.130155354325376
5.2,0.0397079620497709,0.124849414777561
5.208,0.0368884551570341,0.119861583926637
5.216,0.0335144291265982,0.115333855113862
5.224,0.0296841312922725,0.111390386427995
5.232,0.0255249382169956,0.108129497185611
5.24,0.0211864225930274,0.105617083380592
5.248,0.0168319734107138,0.103881865472395
5.256,0.0126753780500097,0.103037998666422
5.264,0.00891297203102034,0.102918227621678
5.272,0.00567172633365137,0.103365245836689
5.28,0.00305332364272261,0.10423792231296
5.288,0.00112305695315979,0.105375284378136
5.296,-9.38713166891859E-05,0.106605828678433
5.304,-0.00061370755154061,0.107757449235466
5.312,-0.000493081420564947,0.108667403366143
5.32,0.000174423137829858,0.109191732957821
5.328,0.0012638622393996,0.109213589337256
5.336,0.00262636655191319,0.108649973023114
5.344,0.00409798263488942,0.10745649148365
5.352,0.00550940467523586,0.105629853345882
5.36,0.00669602714798768,0.103207949606351
5.368,0.0075077292047051,0.100267513418953
5.376,0.00779919829310722,0.0969034867416272
5.384,0.00733469737760925,0.0932019503637476
5.392,0.00618439679206709,0.0894765699142201
5.4,0.00436157517687301,0.0859014369502066
5.408,0.00192183416955274,0.0826403159183491
5.416,-0.00104110039438856,0.079836755321757
5.424,-0.00440181263328665,0.0776055993602006
5.432,-0.00801144214372717,0.0760263876324773
5.44,-0.0115677758232598,0.075327338450422
5.448,-0.0145906862030055,0.0755648359875285
5.456,-0.0172290368413613,0.0761509568423663
5.464,-0.0194497360344939,0.0769779664610285
5.472,-0.0212459149483008,0.0779408430509892
5.48,-0.0226338850286486,0.0789428480547097
5.488,-0.023649119549968,0.0798998773695822
5.496,-0.024341637479229,0.0807434850105468
5.504,-0.0261994436021126,0.0806024425557235
5.512,-0.030004466486038,0.0798859501698444
5.52,-0.0325732163764573,0.0826630782592516
5.528,-0.031709260206637,0.0878572431831408
5.536,-0.0289889415567723,0.0904905794184701
5.544,-0.0260073824238447,0.0907918350230864
5.552,-0.0231287886542737,0.0899738033172218
5.56,-0.0206631119768583,0.0881495690513117
5.568,-0.0190738879879593,0.0860995187763352
5.576,-0.0180591855783623,0.0838146523541947
5.584,-0.0175654925515657,0.081174265420581
5.592,-0.0176666332696451,0.0783184131140523
5.6,-0.0184004888281587,0.0754005951441932
5.608,-0.0197668905958347,0.0725787822378633
5.616,-0.0217277035980777,0.0700062222576396
5.624,-0.0242090814035443,0.0678225479737834
5.632,-0.0274408054743273,0.0666681761361327
5.64,-0.0307214117043977,0.0663013080564603
5.648,-0.033812166682057,0.066605321301957
5.656,-0.0365638801228226,0.0674869686266306
5.664,-0.0381894861148133,0.0687151635135358
