"Freq [GHz]","re(S(Antenna1_1_1,Antenna1_1_1)) []","im(S(Antenna1_1_1,Antenna1_1_1)) []"
2,-0.00885081112931894,-0.508287557932548
2.008,-0.0300844680652378,-0.507263311189796
2.016,-0.0509183225546979,-0.505428911396018
2.024,-0.0713549977797823,-0.502808195177986
2.032,-0.0913926795734682,-0.499418379440978
2.04,-0.11102420157538,-0.495272099467836
2.048,-0.130236672544658,-0.49037941228285
2.056,-0.149011570293575,-0.484749643812779
2.064,-0.167325203498356,-0.478392995703764
2.072,-0.185149434482459,-0.471321867639303
2.08,-0.202452562237474,-0.463551888089649
2.088,-0.219200282747235,-0.455102675812701
2.096,-0.23535666885029,-0.445998372682287
2.104,-0.250885139413662,-0.436267994176887
2.112,-0.265749412251024,-0.425945637753967
2.12,-0.279914452686956,-0.415070573845454
2.128,-0.293349396731486,-0.403685903613229
2.136,-0.306024784923411,-0.391838586773486
2.144,-0.317910809819565,-0.379584649973284
2.152,-0.328986681932532,-0.366983136721516
2.16,-0.339238108739404,-0.354096708596413
2.168,-0.348658262556387,-0.340990535364813
2.176,-0.357248527006988,-0.327730889092647
2.184,-0.365018916559458,-0.314383488458214
2.192,-0.371988075535259,-0.301011680493769
2.2,-0.378182791048763,-0.287674583383982
2.208,-0.383636996200614,-0.274425339525068
2.216,-0.388390290926113,-0.261309637894641
2.224,-0.392486061949375,-0.248364655787891
2.232,-0.395969333223555,-0.235618541853423
2.24,-0.39888451711361,-0.223090517054734
2.248,-0.40127325860272,-0.210791612597595
2.256,-0.403179249917317,-0.198744949868457
2.264,-0.404639030172204,-0.186932109161537
2.272,-0.405673558647834,-0.175338774646398
2.28,-0.406296315905204,-0.16395766976265
2.288,-0.406513551191652,-0.152784399044687
2.296,-0.406325882130382,-0.141819522740484
2.304,-0.40573041059372,-0.131070029116339
2.312,-0.404723139597187,-0.120550088962939
2.32,-0.403301455815206,-0.110281052994003
2.328,-0.401466448872909,-0.100290729486262
2.336,-0.399224869811674,-0.0906120474961877
2.344,-0.396590581915707,-0.081281262342781
2.352,-0.393585419901583,-0.0723358897561886
2.36,-0.390239439579587,-0.0638125608233517
2.368,-0.386590600839648,-0.055744972989579
2.376,-0.382683974635547,-0.0481620771179275
2.384,-0.3785705945458,-0.0410865935441446
2.392,-0.37430608299519,-0.0345338990799692
2.4,-0.369949172418816,-0.028511279921487
2.408,-0.365560216234694,-0.0230175092724952
2.416,-0.3611997494926,-0.0180426878671146
2.424,-0.356927121818062,-0.01356828239704
2.432,-0.35279919303038,-0.0095673100661741
2.44,-0.348869060854036,-0.00600464312214311
2.448,-0.345184784599649,-0.00283743928637591
2.456,-0.341788079878753,-1.57352498923898E-05
2.464,-0.338712985740072,0.00251673637431627
2.472,-0.335984542507733,0.00482143712668712
2.48,-0.333617559549609,0.00696355903198068
2.488,-0.331615589259098,0.00901017408911065
2.496,-0.329970249075322,0.0110280080978222
2.504,-0.328680377611842,0.0130889893580862
2.512,-0.32770721017156,0.0152649686881604
2.52,-0.326981141536135,0.0175994247488905
2.528,-0.326445533411281,0.020126119283788
2.536,-0.326039702689954,0.0228641858491554
2.544,-0.325702766802385,0.0258173997837301
2.552,-0.325377692344122,0.0289745284654551
2.56,-0.325015220188692,0.0323108257312632
2.568,-0.324577321974703,0.0357906286158474
2.576,-0.324039860457888,0.0393709049865809
2.584,-0.323394179795292,0.0430054996289697
2.592,-0.322647436971347,0.0466497459353467
2.6,-0.321821594097384,0.0502650602641198
2.608,-0.320951112028347,0.0538231227907747
2.616,-0.320079505756223,0.0573092744539978
2.624,-0.319255028716771,0.0607248223584416
2.632,-0.318531433639402,0.0640663136623688
2.64,-0.317957983187514,0.0673916435615357
2.648,-0.317565682668251,0.0707577030649872
2.656,-0.317370576668677,0.0742289110136683
2.664,-0.317371093342079,0.0778760681488638
2.672,-0.31754669263113,0.0817714693287366
2.68,-0.317857878199996,0.0859838654067554
2.688,-0.318247535781216,0.0905736519246856
2.696,-0.31864345896849,0.0955886251417461
2.704,-0.318961840738634,0.101060583301548
2.712,-0.319111450976725,0.107002970554919
2.72,-0.318998189884407,0.113409671757708
2.728,-0.318529703874463,0.120254977263805
2.736,-0.317619771369812,0.127494655728791
2.744,-0.316192205710518,0.135068005524438
2.752,-0.314181156601636,0.142909536665245
2.76,-0.311523654677634,0.150947647842072
2.768,-0.308194932805203,0.159058264822747
2.776,-0.304187080779441,0.167143945206929
2.784,-0.29951062512602,0.175110205975332
2.792,-0.294192863419462,0.18286937319777
2.8,-0.288275396890692,0.190343858997581
2.808,-0.281811022936882,0.197468710197189
2.816,-0.274860175614004,0.204193311131386
2.824,-0.267487122177358,0.210482164825394
2.832,-0.259756136826376,0.216314722244318
2.84,-0.25172787762538,0.221684278372356
2.848,-0.243456187373619,0.226596005549347
2.856,-0.234985522104552,0.231064246809784
2.864,-0.226349180507374,0.235109241851134
2.872,-0.217568463501463,0.238753501793969
2.88,-0.20865283645116,0.242018081500154
2.888,-0.199601099943908,0.244919015655323
2.896,-0.190403503064001,0.247464183434915
2.904,-0.181044661526123,0.249650844432484
2.912,-0.171507078523167,0.251464045562769
2.92,-0.161775015373211,0.25287603725283
2.928,-0.151838427698393,0.25384676204375
2.936,-0.141696675068033,0.254325396300503
2.944,-0.131361729434278,0.254252843959436
2.952,-0.120860649100697,0.253565008292805
2.96,-0.110237146590886,0.252196610969732
2.968,-0.0995521541573891,0.250085293156026
2.976,-0.0888833717792816,0.247175724252803
2.984,-0.0783238605125542,0.243423460418409
2.992,-0.0679798105855599,0.23879833450688
3,-0.0579676618055194,0.23328721578841
3.008,-0.0483300084203395,0.226868077924054
3.016,-0.0392907581661333,0.219560415567015
3.024,-0.0309870689503591,0.211418017054968
3.032,-0.0235501561853765,0.202518210447259
3.04,-0.0171013750284938,0.19296064833852
3.048,-0.0117486540183507,0.182865566727087
3.056,-0.00758328405619126,0.172371611932521
3.064,-0.00467704872988321,0.161633290273126
3.072,-0.00307968714804855,0.150818056202816
3.08,-0.00281670605313777,0.140103025918745
3.088,-0.00388759745637138,0.129671293448838
3.096,-0.00626456189354526,0.119707839917755
3.104,-0.00989187444113952,0.110395064765514
3.112,-0.0146860502964214,0.101908026273901
3.12,-0.0205369601255494,0.0944095497218491
3.128,-0.0273104866435895,0.0880905324143601
3.136,-0.0348114125145288,0.083103261058433
3.144,-0.0428498382546444,0.0794543207459911
3.152,-0.0512492584026495,0.077194945565944
3.16,-0.0598339953595714,0.0763498803428214
3.168,-0.0684344571950837,0.0769196785567548
3.176,-0.0768914875786113,0.0788843630292815
3.184,-0.0850593911913552,0.0822081512403444
3.192,-0.0928073160028158,0.0868448096835144
3.2,-0.100018818266353,0.0927430985797152
3.208,-0.10658961399361,0.099851715153624
3.216,-0.11242371410371,0.108123150894043
3.224,-0.1174283283966,0.117515949680292
3.232,-0.121508084403263,0.12799498586095
3.24,-0.124559221391748,0.139529563360953
3.248,-0.126464472324781,0.152089351858572
3.256,-0.12720990797835,0.165658401872316
3.264,-0.126540709236233,0.180242871140716
3.272,-0.124216001798186,0.195763674662865
3.28,-0.120026129692077,0.212099457646256
3.288,-0.113760717202656,0.229084767583041
3.296,-0.105218985501872,0.246506931494424
3.304,-0.0942210391904956,0.26410561408299
3.312,-0.0806193776704075,0.281575270590395
3.32,-0.0643098555057805,0.298570494059445
3.328,-0.045241347276627,0.314714045034482
3.336,-0.0234234611903336,0.329607160411824
3.344,0.00106821774843998,0.342841582164428
3.352,0.0280897030959967,0.354012637195695
3.36,0.0574291589335783,0.362732643058962
3.368,0.0888103935254793,0.368643911939266
3.376,0.121895941984083,0.371413493911963
3.384,0.156247385356177,0.370688190599722
3.392,0.191444924130522,0.36641041707831
3.4,0.227055530332298,0.358459850471139
3.408,0.262635542805308,0.346778735127166
3.416,0.297740975568177,0.331371440210475
3.424,0.331937195753829,0.312302206679919
3.432,0.364807659585395,0.289691335117088
3.44,0.395961474725074,0.263710111550707
3.448,0.425039640275424,0.234574791395881
3.456,0.451719895791283,0.202539963575244
3.464,0.475720183134265,0.16789160056546
3.472,0.496800786255368,0.130940069419455
3.48,0.514765261851055,0.0920133379989586
3.488,0.529460307494142,0.0514505641036482
3.496,0.540774733660462,0.00959620689391127
3.504,0.548680254866227,-0.0332249721932271
3.512,0.553124857395219,-0.0766991446687648
3.52,0.55405390596624,-0.120474609913128
3.528,0.551495962470595,-0.164218647296228
3.536,0.545513247117444,-0.207611813108865
3.544,0.536198592670992,-0.250351261069236
3.552,0.52367212132878,-0.292153478835766
3.56,0.508077748961586,-0.332756427979504
3.568,0.489579620536025,-0.371921094063402
3.576,0.468358575436529,-0.409432472743216
3.584,0.444608731949653,-0.445100035928857
3.592,0.418534266528416,-0.478757737684434
3.6,0.390346446314604,-0.510263631555263
3.608,0.360260953820335,-0.53949917822914
3.616,0.328495522120051,-0.566368324386329
3.624,0.295267878941891,-0.590796429960125
3.632,0.260801002507748,-0.612708309612434
3.64,0.225310789562614,-0.632091377871027
3.648,0.189002783873299,-0.648934371760497
3.656,0.152076377307665,-0.663238831106856
3.664,0.11472374238079,-0.675020984163892
3.672,0.0771292027253034,-0.684310588227026
3.68,0.0394686690790918,-0.691149862878667
3.688,0.00190910459511653,-0.695592486196707
3.696,-0.0353920002655425,-0.697702617304514
3.704,-0.0722871461744834,-0.697553907728431
3.712,-0.108639324283763,-0.695228468738518
3.72,-0.144322471991382,-0.690815771155349
3.728,-0.179221852952402,-0.684411466464158
3.736,-0.213234326448411,-0.676116131834069
3.744,-0.24626847342359,-0.666033954904906
3.752,-0.278251606460796,-0.654276402682349
3.76,-0.309134184939358,-0.640952577268373
3.768,-0.338837126540577,-0.626147939939388
3.776,-0.367308633716679,-0.609967002479333
3.784,-0.394506437704092,-0.592513021460148
3.792,-0.420397279355237,-0.573887040099729
3.8,-0.444956269972121,-0.554186997755271
3.808,-0.468166140796992,-0.533506924221792
3.816,-0.490016390953271,-0.51193623352645
3.824,-0.510502343730036,-0.489559130453016
3.832,-0.529624120987987,-0.466454142857827
3.84,-0.54738554596904,-0.442693794038219
3.848,-0.563792986647602,-0.418344431329185
3.856,-0.578854155513422,-0.393466229198069
3.864,-0.592576887424594,-0.368113386200389
3.872,-0.6049679246241,-0.342334534312517
3.88,-0.616021504714287,-0.316171250436416
3.888,-0.625742078368752,-0.289669937254992
3.896,-0.634134555451519,-0.262870057946977
3.904,-0.64119316529712,-0.235806203630407
3.912,-0.646906476197036,-0.208512160462354
3.92,-0.651257044059626,-0.181022597377452
3.928,-0.654221418792442,-0.153374867985744
3.936,-0.655770542490232,-0.125610848933132
3.944,-0.655870554555647,-0.0977787272834502
3.952,-0.654483997172195,-0.0699346450415963
3.96,-0.651571391737287,-0.0421441104212537
3.968,-0.647093134745942,-0.0144830932586571
3.976,-0.641011642010565,0.0129612643792186
3.984,-0.633293654682587,0.0400903727064953
3.992,-0.623912610666933,0.0667943819012482
4,-0.612850981529375,0.0929528369232675
4.008,-0.600114091422396,0.11848516237612
4.016,-0.585673713995078,0.143207413485517
4.024,-0.569551311528399,0.166967054823909
4.032,-0.551787315350031,0.189607692483022
4.04,-0.532441957323062,0.210972202782966
4.048,-0.511595479837705,0.230905902932497
4.056,-0.489347762904476,0.249259626310356
4.064,-0.465815116614146,0.265889672246224
4.072,-0.441130388534388,0.280653390877461
4.08,-0.415459822605474,0.293446666020933
4.088,-0.388970248234214,0.304171047617755
4.096,-0.361839533708375,0.312744950833668
4.104,-0.334254482618708,0.319104616834289
4.112,-0.306408781732504,0.323204798432852
4.12,-0.278501020933593,0.325019237405683
4.128,-0.250747818500867,0.324521351896062
4.136,-0.223377245216464,0.321725525061852
4.144,-0.196566328765862,0.316708818030323
4.152,-0.170504348366211,0.309527392094785
4.16,-0.145375075527461,0.300253809569041
4.168,-0.121355583708423,0.288976698937613
4.176,-0.0986149247613273,0.275800399815121
4.184,-0.0773126691333832,0.260844492582989
4.192,-0.0575777418581638,0.244274539226262
4.2,-0.0395311274593335,0.226216301005066
4.208,-0.0233110511486043,0.206794664367017
4.216,-0.00903336653259838,0.186175351470703
4.224,0.00320138191411055,0.164536461788358
4.232,0.0133097287429728,0.142066918872271
4.24,0.0212268100119837,0.118964628607477
4.248,0.0269076082847196,0.0954344281344759
4.256,0.0303598845177512,0.071638039133856
4.264,0.0315320779120718,0.0478038717982933
4.272,0.030423904097207,0.0241680836033599
4.28,0.0270747248716392,0.000953156052431989
4.288,0.0215501577020805,-0.0216226598403333
4.296,0.0139421586817752,-0.0433491464349075
4.304,0.00436849086563985,-0.0640281943154369
4.312,-0.00702856455702336,-0.0834780506488416
4.32,-0.0201635351538853,-0.101364305310477
4.328,-0.0346855581769594,-0.117683784937698
4.336,-0.0503813308431051,-0.132374985195764
4.344,-0.0670479047160571,-0.145398131296532
4.352,-0.0844902456444303,-0.1567429831542
4.36,-0.1025261065639,-0.166425678532354
4.368,-0.120990042194836,-0.174484712762512
4.376,-0.139742066412376,-0.18098478443492
4.384,-0.158708336307898,-0.186029976461494
4.392,-0.177751496664578,-0.189618648444256
4.4,-0.196778065472435,-0.191824563839119
4.408,-0.215714427973297,-0.192724090754969
4.416,-0.234506065403081,-0.192391947852729
4.424,-0.253115878492542,-0.190897199003651
4.432,-0.271521659243537,-0.188299705556739
4.44,-0.289713337572251,-0.184656387010606
4.448,-0.307697897475941,-0.180010242023694
4.456,-0.325478583900631,-0.174354786945779
4.464,-0.343052474026934,-0.167688583836299
4.472,-0.360410191169617,-0.159996908635919
4.48,-0.377532398680455,-0.151254080905391
4.488,-0.394386973500731,-0.141426523383663
4.496,-0.410926997761231,-0.130476361424546
4.504,-0.427092220529789,-0.118350391408805
4.512,-0.442792955646415,-0.105013590304275
4.52,-0.457929174705843,-0.0904580278703235
4.528,-0.472394703551375,-0.0746727196845248
4.536,-0.48607332365524,-0.0576602929263126
4.544,-0.49884136749278,-0.0394391565138373
4.552,-0.510570636225344,-0.0200450860846263
4.56,-0.521131504906124,0.000467797048135
4.568,-0.530396089597296,0.0220266439292306
4.576,-0.538241366074006,0.0445400597516502
4.584,-0.544552148984752,0.0678987987059524
4.592,-0.549223861108187,0.0919769107940508
4.6,-0.552165042530562,0.116633275911075
4.608,-0.553299567138815,0.141713462595054
4.616,-0.552568547336766,0.167051855290729
4.624,-0.54993191626459,0.19247400277862
4.632,-0.545356676912785,0.217780334908722
4.64,-0.538867030167948,0.242798041704939
4.648,-0.530488800181961,0.267349706501054
4.656,-0.520264815686832,0.291257595388793
4.664,-0.508257514617456,0.314348009307463
4.672,-0.494548804701713,0.336453628645587
4.68,-0.479239649362258,0.357416027730611
4.688,-0.462447399768181,0.377093419669191
4.696,-0.444265814107542,0.395416710156688
4.704,-0.424862380195948,0.412181219326405
4.712,-0.404406339929171,0.427282186439518
4.72,-0.383090365676012,0.440629046640874
4.728,-0.361166943719638,0.452150530465818
4.736,-0.338770471641796,0.461875738437231
4.744,-0.316080658470834,0.469802999202145
4.752,-0.29327001888657,0.475951819106193
4.76,-0.270501103259621,0.480359399566653
4.768,-0.247933093771654,0.483077266915805
4.776,-0.225709519809407,0.484174151857514
4.784,-0.203960651143813,0.483730744987722
4.792,-0.182802960577874,0.481837284578265
4.8,-0.162339019714488,0.478591323327996
4.808,-0.142657730438418,0.474095743582512
4.816,-0.123833827476779,0.468457976841863
4.824,-0.105929517395124,0.461786337970335
4.832,-0.0889971562276354,0.45418893962656
4.84,-0.0730769194913802,0.44577545535739
4.848,-0.0581983572902963,0.436654990503145
4.856,-0.0443809073109568,0.426935470971065
4.864,-0.0316343147128558,0.416723105687243
4.872,-0.0199589626583658,0.406121874767563
4.88,-0.00934630000604576,0.395226286786072
4.888,0.000217667251537354,0.384137120613646
4.896,0.00875853690764642,0.372953567270995
4.904,0.0163114880263243,0.361766229040314
4.912,0.0229203372839168,0.350660092557435
4.92,0.0286371829657942,0.339713458689045
4.928,0.0335218465181052,0.328996767417938
4.936,0.0376410491263461,0.318571367846523
4.944,0.0410496290797529,0.308511561661135
4.952,0.0438495592904145,0.298847900514231
4.96,0.0461287367236779,0.289599440750478
4.968,0.0479692648047313,0.280775327559936
4.976,0.0495969829440099,0.272191637238185
4.984,0.0508666162284268,0.263914722008137
4.992,0.0517902045120704,0.255961647852202
5,0.052397916795469,0.248338563794042
5.008,0.0525635331997503,0.241655327304927
5.016,0.052790600331934,0.23536452544105
5.024,0.0532165512872085,0.229073259391649
5.032,0.0536104666804962,0.222921867940069
5.04,0.0538925381790261,0.216821775789405
5.048,0.054068025972199,0.210809793804949
5.056,0.0541074928096267,0.204870793283111
5.064,0.0539717711501426,0.199005836848284
5.072,0.053612278700167,0.19324991210385
5.08,0.0530589170421742,0.187611381952519
5.088,0.0523042691841174,0.182106689374918
5.096,0.051353392226035,0.176776809338165
5.104,0.0502398437461279,0.171663384835904
5.112,0.0489566835614455,0.166719446380114
5.12,0.0475069775263217,0.161961190791246
5.128,0.0458683855326583,0.157376110949625
5.136,0.0440136196164456,0.152990362298786
5.144,0.0420149672270172,0.14888943094896
5.152,0.0399123845217585,0.145089682011888
5.16,0.0377498028282529,0.141598263926781
5.168,0.0355726407269994,0.138412321661121
5.176,0.0334252042547914,0.135518871659535
5.184,0.0313481456833129,0.132895343289681
5.192,0.0293746235222546,0.130484336490376
5.2,0.0275146430737709,0.128257204838161
5.208,0.0257840587950341,0.126199525312537
5.216,0.0241944384645982,0.124273525371662
5.224,0.0227488178202725,0.122440357967695
5.232,0.0214416604839956,0.120662166312611
5.24,0.0202593307175274,0.118904092434592
5.248,0.0191810439613138,0.117136102984395
5.256,0.0181898222246097,0.115305905040422
5.264,0.0172325217278203,0.113413105582678
5.272,0.0162702854662514,0.111464774570689
5.28,0.0152713816067226,0.10946782668696
5.288,0.0142077747961598,0.107436758103736
5.296,0.0130567475293108,0.105392422534433
5.304,0.0118021619724594,0.103360481095366
5.312,0.0104353038734351,0.101369625711903
5.32,0.00895527650582986,0.0994496833369211
5.328,0.0073689385203996,0.0976297093612557
5.336,0.00569040392991319,0.095936173926114
5.344,0.00394014396288942,0.0943913354446501
5.352,0.00214374874973586,0.0930118825578823
5.36,0.000330421292287678,0.091807909915351
5.368,-0.0014687130320949,0.0907822755509525
5.376,-0.00322149912009278,0.0899345205876272
5.384,-0.00488448684639075,0.0892744828527476
5.392,-0.00643299541093291,0.08874848556592
5.4,-0.00784949177612699,0.0883280608640066
5.408,-0.00912368216244725,0.0879817504672491
5.416,-0.0102529485193886,0.087676966290757
5.424,-0.0112423212902867,0.0873818859352006
5.432,-0.0121039951717272,0.0870672711094773
5.44,-0.0128605016365098,0.086658442783422
5.448,-0.0135845603896055,0.0860902726435285
5.456,-0.0143080819996613,0.0854823643643663
5.464,-0.0150432041785939,0.0848456035480285
5.472,-0.0157980340523108,0.0841921722189892
5.48,-0.0165767838132486,0.0835344609037098
5.488,-0.017380161235168,0.0828841183975822
5.496,-0.018205958954329,0.0822512924455468
5.504,-0.0188942320353126,0.0819727376523235
5.512,-0.019211370607038,0.0820608931649444
5.52,-0.0192854153524573,0.0813341385432516
5.528,-0.019708596317637,0.0797539135853308
5.536,-0.0207467026197723,0.0784482636407701
5.544,-0.0220707165358447,0.0775431115490864
5.552,-0.0234821148442737,0.0768486095212218
5.56,-0.0249189495777583,0.0763770247943117
5.568,-0.0262158614818493,0.0760338714413352
5.576,-0.0274406273574623,0.0757917099491947
5.584,-0.0286243937479657,0.075674095195581
5.592,-0.0297430526356451,0.0756713251510523
5.6,-0.0307753380321587,0.0757686025741932
5.608,-0.0317037855728347,0.0759468329645634
5.616,-0.0325154920190777,0.0761835597716396
5.624,-0.0332026727715443,0.0764539949914834
5.632,-0.0336343789523273,0.0766978078726327
5.64,-0.0339509316213977,0.0768577724697603
5.648,-0.034201498812257,0.076921957819957
5.656,-0.0344168441681226,0.0768861442566306
