"Freq [GHz]","re(S(Tx_p1,Tx_p1)) []","im(S(Tx_p1,Tx_p1)) []"
3,0.3400148192,-0.1452046885
3.014,0.2576847031,-0.1943385932
3.028,0.1699986273,-0.1996542693
3.042,0.09865932594,-0.1645827646
3.056,0.06113350084,-0.1025963231
3.07,0.06631769068,-0.03403647647
3.084,0.1122064649,0.01877517658
3.098,0.1861587727,0.03699480371
3.112,0.267742691,0.009979253965
3.126,0.3335191267,-0.06187282935
3.14,0.3626515619,-0.1668736177
3.154,0.342016864,-0.2844950203
3.168,0.2695934406,-0.3899758649
3.182,0.15529706,-0.460029962
3.196,0.01902991837,-0.4783259649
3.21,-0.1136378664,-0.4394506854
3.224,-0.2171753307,-0.3504119673
3.238,-0.2718753963,-0.2293065871
3.252,-0.2683819669,-0.1014372729
3.266,-0.2099120538,0.006245243674
3.28,-0.1116556985,0.07111140365
3.294,0.00251313277,0.07987577426
3.308,0.105265449,0.03153863611
3.322,0.1717991212,-0.0624065956
3.336,0.185226072,-0.1805250135
3.35,0.1401685216,-0.2961493771
3.364,0.04379198322,-0.38316703
3.378,-0.08590531111,-0.4215826979
3.392,-0.2241060972,-0.4016341798
3.406,-0.3445441576,-0.3255948306
3.42,-0.4250086812,-0.2069419362
3.434,-0.4517730659,-0.06717083523
3.448,-0.4220255447,0.0689493083
3.462,-0.3438660027,0.1785669947
3.476,-0.2340006448,0.245228082
3.49,-0.1137775648,0.2617059098
3.504,-0.004543705303,0.230670142
3.518,0.07660253698,0.1632045194
3.532,0.1197504343,0.0756750855
3.546,0.1232620197,-0.01420438547
3.56,0.09293100942,-0.09114027292
3.574,0.03960334438,-0.1450066347
3.588,-0.02401503559,-0.1720333998
3.602,-0.08650061394,-0.174323326
3.616,-0.1400290109,-0.1580113003
3.63,-0.1813653165,-0.1306987716
3.644,-0.2114148563,-0.09893484292
3.658,-0.2336162745,-0.06644384765
3.672,-0.2517579285,-0.0335462715
3.686,-0.2679277969,0.002141301278
3.7,-0.281239505,0.04401282996
3.714,-0.28773364,0.09435544377
3.728,-0.2815031968,0.1524983169
3.742,-0.2567299019,0.2138463381
3.756,-0.210040938,0.2701732894
3.77,-0.1424768107,0.3111972767
3.784,-0.0604349901,0.3270934972
3.798,0.02479685036,0.3113145492
3.812,0.0989423477,0.2629609106
3.826,0.1477121608,0.1880117101
3.84,0.1601856268,0.09897726418
3.854,0.1317798741,0.01290936807
3.868,0.06603678623,-0.05188663349
3.882,-0.02529986375,-0.07975273751
3.896,-0.1240626825,-0.06131814638
3.91,-0.209007421,0.003980601225
3.924,-0.2600615914,0.1071387749
3.938,-0.2625710039,0.2308446185
3.952,-0.2106065445,0.3525754836
3.966,-0.1085737712,0.4489243709
3.98,0.02927621673,0.5002619523
3.994,0.1813824347,0.4947457709
4.008,0.3229566495,0.430814952
4.022,0.4307732511,0.317627392
4.036,0.4876698862,0.1733356582
4.05,0.4858231846,0.02156015332
4.064,0.4281298802,-0.1131989315
4.078,0.3274328053,-0.2102525389
4.092,0.2037903746,-0.2565514845
4.106,0.08039647548,-0.2488894361
4.12,-0.02097349778,-0.1940781714
4.134,-0.08404213302,-0.1071323803
4.148,-0.1008206202,-0.007918268165
4.162,-0.07260022932,0.08297562172
4.176,-0.009036380243,0.1482572119
4.19,0.07437454437,0.177019888
4.204,0.1598028627,0.1663244237
4.218,0.2307833095,0.1210506789
4.232,0.2753191017,0.05217943545
4.246,0.2877909149,-0.02600982996
4.26,0.2693715182,-0.09914281418
4.274,0.2269938135,-0.1556398156
4.288,0.1712325743,-0.1887026198
4.302,0.1136685576,-0.1970616304
4.316,0.06436602576,-0.1844534278
4.33,0.03000888524,-0.1580870458
4.344,0.01303640205,-0.1265627332
4.358,0.01185244212,-0.09778599802
4.372,0.02192170017,-0.0773627059
4.386,0.03737483464,-0.0677929277
4.4,0.05266173171,-0.06855164809
4.414,0.06383090226,-0.07691298773
4.428,0.06915541398,-0.08920029022
4.442,0.06902705369,-0.102067309
4.456,0.06524519914,-0.1134477624
4.47,0.05998261629,-0.122937001
4.484,0.05477749602,-0.1315517113
4.498,0.04986732294,-0.1409979023
4.512,0.04406076726,-0.1527159414
4.526,0.03517305858,-0.1670281901
4.54,0.02087713056,-0.1826758354
4.554,-0.0003037646335,-0.1969105655
4.568,-0.02818301101,-0.2061391701
4.582,-0.06055272037,-0.2069511668
4.596,-0.09343121967,-0.1972377263
4.61,-0.1218951018,-0.1770686482
4.624,-0.1413048928,-0.1490449067
4.638,-0.1486094285,-0.1179751335
4.652,-0.143371543,-0.08990292434
4.666,-0.1282102028,-0.07069034271
4.68,-0.1084896913,-0.06449477997
4.694,-0.09127226673,-0.0725266049
4.708,-0.08374185899,-0.09242761637
4.722,-0.09145282868,-0.1184734585
4.736,-0.1168215693,-0.1426100521
4.75,-0.1582423734,-0.1561303801
4.764,-0.2100776284,-0.1516333592
4.778,-0.263576509,-0.1248224243
4.792,-0.3085604315,-0.07571941171
4.806,-0.3355291443,-0.008988299978
4.82,-0.33773279,0.0667435766
4.834,-0.3127488842,0.1404557485
4.848,-0.2632015364,0.200882761
4.862,-0.1964420753,0.2387918128
4.876,-0.1232345905,0.2489049015
4.89,-0.05570678597,0.2310514329
4.904,-0.004986331757,0.1902998402
4.918,0.02098938331,0.1360329569
4.932,0.01903923305,0.08015448543
4.946,-0.008637048835,0.03479482055
4.96,-0.05489310341,0.009983564341
4.974,-0.1090267839,0.01175396492
4.988,-0.1588331657,0.04104556442
5.002,-0.1929000234,0.09359924317
5.016,-0.2026924857,0.1608326949
5.03,-0.1840349707,0.2314900983
5.044,-0.1377362661,0.2937172295
5.058,-0.06928588933,0.33714946
5.072,0.01226543512,0.3546244975
5.086,0.09598001776,0.3432317887
5.1,0.1709161993,0.3045599202
5.114,0.2278656881,0.2441678374
5.128,0.260654263,0.1704486643
5.142,0.2668287198,0.09314837107
5.156,0.2476875021,0.02183220947
5.17,0.2077381374,-0.03543893717
5.184,0.153755145,-0.0730388485
5.198,0.093653357,-0.0882312223
5.212,0.03538252181,-0.08116795906
5.226,-0.01399956656,-0.05452435975
5.24,-0.04898843597,-0.01290443899
5.254,-0.06601195009,0.03785011204
5.268,-0.063562731,0.09134267593
5.282,-0.04214591129,0.1412354149
5.296,-0.004102277916,0.1817757997
5.31,0.04665505693,0.2082446641
5.324,0.104980391,0.2173396044
5.338,0.1649224689,0.2074925806
5.352,0.2202530731,0.1790944487
5.366,0.265093628,0.1345745634
5.38,0.2946014383,0.0782740544
5.394,0.3056371735,0.0160647876
5.408,0.2973030684,-0.04529617095
5.422,0.2712313845,-0.09903108314
5.436,0.2315228162,-0.1393195018
5.45,0.1842852375,-0.1622361706
5.464,0.1367962561,-0.1664743236
5.478,0.09639349399,-0.1536957015
5.492,0.06926514869,-0.1284024853
5.506,0.05935267203,-0.09730936732
5.52,0.06757564424,-0.0682900724
5.534,0.09154340301,-0.04906166753
5.548,0.1258348517,-0.04583202477
5.562,0.1628231036,-0.06215529693
5.576,0.1939169223,-0.09821137824
5.59,0.2110078475,-0.1506526963
5.604,0.2078680269,-0.2130587722
5.618,0.181249141,-0.2769265174
5.632,0.1314863927,-0.3330250046
5.646,0.06250246514,-0.3728771666
5.66,-0.01878360737,-0.3901104397
5.674,-0.1035308588,-0.3814470639
5.688,-0.1823394271,-0.3471752865
5.702,-0.2466636918,-0.2910401813
5.716,-0.2900391331,-0.2195971268
5.73,-0.3089319063,-0.1411614323
5.744,-0.303096495,-0.06454803977
5.758,-0.2754183364,0.002182964095
5.772,-0.2313068839,0.05277787045
5.786,-0.1777730202,0.08349302827
5.8,-0.1223621788,0.09337736469
5.814,-0.0721186242,0.08413636097
5.828,-0.03272976362,0.05964642143
5.842,-0.007950832562,0.02523375038
5.856,0.0006471815708,-0.01314924614
5.87,-0.006381584829,-0.04972286464
5.884,-0.02667320565,-0.07955252663
5.898,-0.05654485122,-0.0990295018
5.912,-0.09157346549,-0.1061330249
5.926,-0.1271815773,-0.1004795995
5.94,-0.1591663823,-0.08318879043
5.954,-0.1841285105,-0.05660681298
5.968,-0.1997746066,-0.02393258432
5.982,-0.2050818452,0.01121038594
5.996,-0.2003222836,0.04521633959
6.01,-0.1869516267,0.07491668706
6.024,-0.1673735176,0.09794016189
6.038,-0.1445993323,0.1129783787
6.052,-0.1218344365,0.1199250141
6.066,-0.1020339599,0.1198649851
6.08,-0.08748173795,0.1149044105
6.094,-0.07945091475,0.1078528051
6.108,-0.07800041162,0.101792148
6.122,-0.08194713927,0.09958917617
6.136,-0.08902981592,0.1034227879
6.15,-0.0962495044,0.1144027007
6.164,-0.1003409189,0.132345899
6.178,-0.09830297744,0.1557548306
6.192,-0.0879028052,0.1820088076
6.206,-0.06806805296,0.2077431695
6.22,-0.03909943446,0.2293569134
6.234,-0.002665353898,0.2435658303
6.248,0.03842187384,0.247909182
6.262,0.0806104381,0.2411257539
6.276,0.1201251162,0.2233387808
6.29,0.1535080365,0.1960232798
6.304,0.1780950569,0.1617677433
6.318,0.192353148,0.1238771583
6.332,0.1960317288,0.08588931879
6.346,0.1901152256,0.05108677567
6.36,0.1765987295,0.02208205476
6.374,0.1581368801,0.000534965204
6.388,0.1376324076,-0.01296671823
6.402,0.1178340483,-0.01886205939
6.416,0.1010042892,-0.01843348027
6.43,0.08869818705,-0.01353103133
6.444,0.08167024328,-0.006259012766
6.458,0.07990292132,0.001322924602
6.472,0.08273189921,0.00744316991
6.486,0.08903220176,0.01078157061
6.5,0.09742714804,0.01054605322
6.514,0.1064868375,0.006470597382
6.528,0.1148925917,-0.001247010005
6.542,0.1215554471,-0.01204513143
6.556,0.125687019,-0.02511490778
6.57,0.1268279225,-0.03951728583
6.584,0.1248422639,-0.05428995214
6.598,0.1198868419,-0.06853909533
6.612,0.1123615298,-0.08151413799
6.626,0.1028451422,-0.09266425609
6.64,0.09202008979,-0.1016748405
6.654,0.08058959512,-0.1084809554
6.668,0.06919330839,-0.1132544164
6.682,0.05833006436,-0.1163626793
6.696,0.04829830953,-0.1183015047
6.71,0.03916453225,-0.1196080968
6.724,0.0307673301,-0.120766356
6.738,0.02275936159,-0.1221194414
6.752,0.0146822829,-0.1238053435
6.766,0.006063070245,-0.1257281677
6.78,-0.003484985826,-0.1275720684
6.794,-0.01417541878,-0.1288566708
6.808,-0.02599256052,-0.1290243867
6.822,-0.03867724884,-0.1275436189
6.836,-0.05175725912,-0.1240084447
6.85,-0.06461633899,-0.1182158916
6.864,-0.0765881084,-0.1102069722
6.878,-0.0870568638,-0.1002651731
6.892,-0.09554675294,-0.08887447312
6.906,-0.1017839294,-0.07664680904
6.92,-0.1057228465,-0.06423424677
6.934,-0.1075357358,-0.05224240066
6.948,-0.1075712151,-0.04115949355
6.962,-0.1062931412,-0.03131063993
6.976,-0.1042128296,-0.02284049622
6.99,-0.1018264153,-0.01572131118
7.004,-0.09956540539,-0.009779357885
7.018,-0.09776382076,-0.004730899618
7.032,-0.09664049496,-0.0002197104748
7.046,-0.09629216446,0.004148554999
7.06,-0.09669254007,0.008776273626
7.074,-0.09769388347,0.01404625658
7.088,-0.09903046957,0.02029331454
7.102,-0.1003264591,0.02777231744
7.116,-0.1011128321,0.03662285575
7.13,-0.1008578787,0.04683404906
7.144,-0.09901377342,0.05821627459
7.158,-0.09507768075,0.07038843214
7.172,-0.0886609383,0.08278855618
7.186,-0.07955600103,0.0947121405
7.2,-0.06778867975,0.1053775361
7.214,-0.0536437971,0.1140115922
7.228,-0.03765621443,0.1199433014
7.242,-0.02056536912,0.1226903181
7.256,-0.003238233344,0.1220232741
7.27,0.01342777915,0.1179960358
7.284,0.02860622047,0.1109362997
7.298,0.04163058455,0.1013982842
7.312,0.05205664876,0.09008634867
7.326,0.0596891811,0.07776351704
7.34,0.06457122878,0.06516117495
7.354,0.06694131047,0.05290475503
7.368,0.06716930731,0.04146603305
7.382,0.06568485355,0.03114664079
7.396,0.06291187966,0.02209079063
7.41,0.05921981896,0.01431987103
7.424,0.05489725429,0.007778512102
7.438,0.05014847682,0.002381020379
7.452,0.04510858618,-0.001950993752
7.466,0.03986998089,-0.005265224968
7.48,0.03451249838,-0.00757111961
7.494,0.02913031355,-0.008846377517
7.508,0.02385102706,-0.00905332448
7.522,0.01884520492,-0.008160421626
7.536,0.01432660076,-0.006165031459
7.55,0.01054421295,-0.003114707023
7.564,0.007767557611,0.0008745829978
7.578,0.006265953069,0.005604221795
7.592,0.006281944999,0.01078394475
7.606,0.007999062006,0.01603033824
7.62,0.01150521058,0.02087615809
7.634,0.01675514747,0.02479406026
7.648,0.0235380612,0.02723719229
7.662,0.03145828254,0.02769607872
7.676,0.03993719323,0.02576727363
7.69,0.04824293044,0.02122527596
7.704,0.0555506546,0.01408532142
7.718,0.06102996135,0.004643150645
7.732,0.06394941928,-0.006520343694
7.746,0.06378285713,-0.01857687177
7.76,0.060298971,-0.03053097899
7.774,0.05361640967,-0.04133441646
7.788,0.0442110336,-0.05001858259
7.802,0.0328699037,-0.05582389023
7.816,0.0205962816,-0.05830365416
7.83,0.008479591453,-0.05738358108
7.844,-0.00244853956,-0.05336551311
7.858,-0.01134784896,-0.04687412299
7.872,-0.01766982926,-0.03875594477
7.886,-0.02120842871,-0.0299491249
7.9,-0.02209421073,-0.02134743748
7.914,-0.02073589736,-0.01368239564
7.928,-0.01772282066,-0.007442974536
7.942,-0.01370860769,-0.002844426362
7.956,-0.009298767921,0.0001525160498
7.97,-0.004962283245,0.001780494646
7.984,-0.0009811056533,0.002378144582
7.998,0.002557172087,0.002295882649
8.012,0.005727110906,0.001813537911
8.026,0.008704450869,0.001084150105
8.04,0.0116913981,0.0001116605843
8.054,0.01484396417,-0.001237246391
8.068,0.01821453485,-0.00319330853
8.082,0.02171808847,-0.006027076864
8.096,0.0251251235,-0.009985108014
8.11,0.02807945033,-0.01523056954
8.124,0.03013557884,-0.02179598476
8.138,0.03080919862,-0.02955248286
8.152,0.02963445986,-0.03819723351
8.166,0.02622274478,-0.04725891352
8.18,0.02031891696,-0.05612040005
8.194,0.01185147167,-0.06405815391
8.208,0.0009724490841,-0.07029785418
8.222,-0.01191820062,-0.07408502058
8.236,-0.02617010009,-0.0747673928
8.25,-0.04090816192,-0.07188255051
8.264,-0.05509083944,-0.06524052616
8.278,-0.06760113077,-0.05498830689
8.292,-0.07736475331,-0.04164200321
8.306,-0.08348301079,-0.02607421012
8.32,-0.08536179015,-0.009449643802
8.334,-0.08281509182,0.006889460919
8.348,-0.0761222813,0.02157726302
8.362,-0.0660233102,0.03339750534
8.376,-0.05364549462,0.04144940002
8.39,-0.04036741866,0.04527780302
8.404,-0.0276377491,0.04494300243
8.418,-0.01677655913,0.04101452364
8.432,-0.008791857898,0.03448627811
8.446,-0.004242961859,0.02662464355
8.46,-0.003175189915,0.01877381435
8.474,-0.005137984959,0.012151515
8.488,-0.00928325252,0.007670570245
8.502,-0.01452586883,0.005817167257
8.516,-0.01973697676,0.006606158911
8.53,-0.02393481222,0.00961934927
8.544,-0.02643882565,0.01411704091
8.558,-0.02696070467,0.01919961902
8.572,-0.02561862881,0.02398744138
8.586,-0.02287590722,0.02778508092
8.6,-0.01941941688,0.03020036084
8.614,-0.01600382466,0.03119872256
8.628,-0.01329244067,0.03108677821
8.642,-0.01172416586,0.03043244313
8.656,-0.01142912856,0.0299402903
8.67,-0.01220491555,0.03030753248
8.684,-0.01355330818,0.03208743711
8.698,-0.01476660809,0.03558309326
8.712,-0.01504508593,0.04078675395
8.726,-0.01362392737,0.04737029278
8.74,-0.009889438383,0.05472314375
8.754,-0.003468986744,0.06202704683
8.768,0.005714142121,0.06835307042
8.782,0.01742285095,0.07276603352
8.796,0.03112182077,0.07442401992
8.81,0.04602011063,0.07266451853
8.824,0.06113357485,0.06707263088
8.838,0.0753609758,0.05752973444
8.852,0.08756965419,0.04424213673
8.866,0.09668795063,0.02774861681
8.88,0.1018014558,0.008904415861
8.894,0.1022484463,-0.01116187179
8.908,0.09770677405,-0.03112168041
8.922,0.08826137527,-0.0495506758
8.936,0.07443960881,-0.06505970555
8.95,0.0572020016,-0.07644225443
8.964,0.0378796066,-0.08282174426
8.978,0.01805636039,-0.08377725509
8.992,-0.0005956608789,-0.07942513785
9.006,-0.01651031193,-0.07043730066
9.02,-0.02842465037,-0.0579847417
9.034,-0.03554874472,-0.04360654553
9.048,-0.03767829341,-0.02901775695
9.062,-0.0352270839,-0.01588190042
9.076,-0.02916842876,-0.005582796481
9.09,-0.02089022828,0.0009668982955
9.104,-0.01198385171,0.003447152814
9.118,-0.004000023137,0.002159288918
9.132,0.001787593302,-0.002044970344
9.146,0.004570567651,-0.00792312225
9.16,0.004113084261,-0.01406296574
9.174,0.0007601540192,-0.01912642727
9.188,-0.004653711839,-0.02207298537
9.202,-0.01097731162,-0.02232336213
9.216,-0.01696408822,-0.01983575709
9.23,-0.0215007387,-0.01508360668
9.244,-0.02380149047,-0.008942446013
9.258,-0.02353421264,-0.00251022512
9.272,-0.02085868743,0.003103068623
9.286,-0.0163747891,0.006976579861
9.3,-0.01099543413,0.008534575502
9.314,-0.005772386923,0.007632190327
9.328,-0.001709710956,0.004560967891
9.342,0.000400970381,-1.992260481E-05
9.356,9.655073902E-05,-0.005207396933
9.37,-0.002704643204,-0.01000540731
9.384,-0.00771372662,-0.01347409032
9.398,-0.01433459628,-0.01485275752
9.412,-0.02176028961,-0.0136413901
9.426,-0.02908031349,-0.009636549689
9.44,-0.03538007951,-0.002927772664
9.454,-0.03982069527,0.006132997408
9.468,-0.0416960073,0.01697464222
9.482,-0.0404713437,0.0288514119
9.496,-0.03581268542,0.04088365783
9.51,-0.0276148159,0.05209688831
9.524,-0.01603245702,0.0614668726
9.538,-0.001511298764,0.06798027521
9.552,0.01519148483,0.07071736208
9.566,0.03301227951,0.06895612161
9.58,0.05062676886,0.06228777882
9.594,0.06654624884,0.0507246081
9.608,0.07926418331,0.0347751197
9.622,0.08743960879,0.01546168431
9.636,0.09009156821,-0.005737429655
9.65,0.08677034387,-0.02702682099
9.664,0.07766956653,-0.04650222192
9.678,0.06364978505,-0.06240047415
9.692,0.0461581338,-0.07335095885
9.706,0.02704785704,-0.07858309745
9.72,0.008321875958,-0.07804870119
9.734,-0.008158354493,-0.07243142311
9.748,-0.02094787479,-0.06303585224
9.762,-0.02922670571,-0.05157189511
9.776,-0.03290221881,-0.03987121145
9.79,-0.03258539293,-0.02958683545
9.804,-0.02944523181,-0.02193135053
9.818,-0.02496950411,-0.01750188315
9.832,-0.02067829273,-0.01622310819
9.846,-0.01784572355,-0.01741591949
9.86,-0.01728263319,-0.01997440738
9.874,-0.0192194789,-0.02261266746
9.888,-0.0233074411,-0.02413022662
9.902,-0.0287310949,-0.02364319374
9.916,-0.03440376216,-0.02073773296
9.93,-0.039201415,-0.01552063247
9.944,-0.04218577034,-0.008564371635
9.958,-0.04277281395,-0.0007661548586
9.972,-0.04081785451,0.006843193766
9.986,-0.03660815903,0.0132972138
10,-0.0307746441,0.01785794485
