"Freq [GHz]","re(S(Tx_p1,Tx_p1)) []","im(S(Tx_p1,Tx_p1)) []"
3,0.43293477,-0.005950066884
3.014,0.3999717485,-0.08679007843
3.028,0.3463031227,-0.1418973006
3.042,0.2871004713,-0.1665016368
3.056,0.2376691209,-0.1637252315
3.07,0.2096556778,-0.1436680488
3.084,0.2081354652,-0.1207902306
3.098,0.2302899639,-0.1102045819
3.112,0.2660125725,-0.1237599815
3.126,0.3003248271,-0.1668574471
3.14,0.3170519876,-0.2367787279
3.154,0.302899148,-0.3229589729
3.168,0.2509603857,-0.4091806238
3.182,0.1628112981,-0.4772110521
3.196,0.04865397054,-0.5110581422
3.21,-0.07456962552,-0.5008583264
3.224,-0.1867075307,-0.4454793795
3.238,-0.2687944901,-0.3532018143
3.252,-0.3073251894,-0.2402747227
3.266,-0.2974252341,-0.1276260847
3.28,-0.2441768151,-0.03643311919
3.294,-0.1617636579,0.01647265129
3.308,-0.07058742692,0.02234063299
3.322,0.007035151245,-0.0174673469
3.336,0.05166220343,-0.0916211795
3.35,0.05095588652,-0.1811342963
3.364,0.002421221161,-0.2633556929
3.378,-0.08594985196,-0.316783091
3.392,-0.1972747252,-0.3256574786
3.406,-0.3092726244,-0.2833490185
3.42,-0.3988982744,-0.1938120518
3.434,-0.4471200653,-0.07081135528
3.448,-0.4428258735,0.06489303858
3.462,-0.3850425318,0.1897777511
3.476,-0.2830324782,0.2822865969
3.49,-0.1542965485,0.3270548391
3.504,-0.02096019217,0.3177571369
3.518,0.09464765989,0.2580307629
3.532,0.1742691498,0.160357619
3.546,0.2069610217,0.04323145268
3.56,0.1906841831,-0.07270888752
3.574,0.1320046952,-0.1687099298
3.588,0.04409455508,-0.2312399118
3.602,-0.05641902112,-0.2539765362
3.616,-0.1529890797,-0.2381319288
3.63,-0.2322706627,-0.1911933887
3.644,-0.2861837514,-0.1245104547
3.658,-0.3125665112,-0.05038932597
3.672,-0.3144264229,0.02058395465
3.686,-0.2981309339,0.08138625236
3.7,-0.2711091083,0.129216849
3.714,-0.2397098025,0.1649514473
3.728,-0.2077685017,0.1916817531
3.742,-0.1762044441,0.2128530802
3.756,-0.1436658632,0.2305887182
3.77,-0.1079446993,0.2447058994
3.784,-0.0676701149,0.2527098655
3.798,-0.0237169494,0.250759669
3.812,0.02015119885,0.2353103437
3.826,0.05766694996,0.2049278764
3.84,0.08144054963,0.1617018573
3.854,0.08501244817,0.1117664865
3.868,0.06503675882,0.0646640371
3.882,0.02297755415,0.03159040147
3.896,-0.03421608262,0.02287246247
3.91,-0.09476103311,0.04526148284
3.924,-0.1440008914,0.09972266186
3.938,-0.1673253392,0.18032899
3.952,-0.1534315842,0.2746391058
3.966,-0.09718367765,0.3656046261
3.98,-0.00137193837,0.434690197
3.994,0.1231099659,0.4655857548
4.008,0.2588143604,0.4477196302
4.022,0.3847741811,0.3787874661
4.036,0.4804383433,0.2656987488
4.05,0.529702236,0.1236711215
4.064,0.5241820087,-0.02639990007
4.078,0.4650242338,-0.1617908322
4.092,0.3628442098,-0.2622428905
4.106,0.235780365,-0.3138159557
4.12,0.1060515815,-0.3115090327
4.134,-0.004279546007,-0.2601111846
4.148,-0.07747075679,-0.1731202266
4.162,-0.1033481172,-0.06997157954
4.176,-0.08099777458,0.02783226646
4.19,-0.01859706279,0.1008849974
4.204,0.068526564,0.1354855614
4.218,0.1611567388,0.1259865177
4.232,0.2400610302,0.07546040249
4.246,0.2896694583,-0.005373047699
4.26,0.3008295239,-0.1006545873
4.274,0.2721360723,-0.1927430728
4.288,0.2096566665,-0.26569489
4.302,0.1252161467,-0.3081560285
4.316,0.03369225441,-0.3151261492
4.33,-0.05005200448,-0.2883271556
4.344,-0.1139453265,-0.2352208089
4.358,-0.1506547939,-0.1670000805
4.372,-0.1583849929,-0.09606770364
4.386,-0.140485969,-0.03357730087
4.4,-0.1040867371,0.01245710382
4.414,-0.05816056204,0.03815292664
4.428,-0.01150945796,0.04375548133
4.442,0.02888161152,0.03277573525
4.456,0.05880729455,0.0105853997
4.47,0.07700424824,-0.01712682559
4.484,0.08460110377,-0.04565098947
4.498,0.08410659953,-0.07202560872
4.512,0.07827130936,-0.09517006753
4.526,0.06915043113,-0.1154470365
4.54,0.05760351546,-0.1338670359
4.554,0.04332124766,-0.1512237531
4.568,0.02531080374,-0.1674417538
4.582,0.002642185228,-0.1813347026
4.596,-0.02480905206,-0.1908383288
4.61,-0.0558769468,-0.1936362163
4.624,-0.08805041659,-0.1879779557
4.638,-0.1178913992,-0.173429563
4.652,-0.1418274855,-0.1513104119
4.666,-0.1571063236,-0.1246546064
4.68,-0.1626422061,-0.09766505813
4.694,-0.1595014031,-0.07477081027
4.708,-0.1508584331,-0.05951464009
4.722,-0.1413890209,-0.05355763387
4.736,-0.1362131308,-0.0560736736
4.75,-0.1396254347,-0.06372155154
4.764,-0.1539187796,-0.07124575594
4.778,-0.1786000909,-0.07260199717
4.792,-0.2102174109,-0.06236838494
4.806,-0.2428794604,-0.03712150032
4.82,-0.2693872535,0.003550471636
4.834,-0.2827492214,0.05665451095
4.848,-0.2777524754,0.1161428085
4.862,-0.2522374275,0.1739633812
4.876,-0.2077781072,0.2216081005
4.89,-0.1495945932,0.2518371793
4.904,-0.08568955188,0.2602113847
4.918,-0.02537086277,0.2460969646
4.932,0.0225413887,0.212916428
4.946,0.05145307361,0.1675770853
4.96,0.05831669824,0.1191836059
4.974,0.0442578456,0.077292558
4.988,0.01437536612,0.0500631402
5.002,-0.02324494786,0.04267890177
5.016,-0.05910191181,0.05635682398
5.03,-0.08411726834,0.08813655775
5.044,-0.09137339241,0.1314814252
5.058,-0.07741084998,0.1775588755
5.072,-0.04284280262,0.2169358195
5.086,0.007814004271,0.2413501101
5.1,0.06703432194,0.2452164587
5.114,0.1257088074,0.2265908075
5.128,0.1748075702,0.1874348294
5.142,0.2069617969,0.1331649825
5.156,0.2176766763,0.07160787735
5.17,0.2059771328,0.01158813889
5.184,0.1744084816,-0.03857230889
5.198,0.1284402674,-0.07237017463
5.212,0.0754273978,-0.08603645706
5.226,0.02334883571,-0.07893010423
5.24,-0.0204387503,-0.05339524719
5.254,-0.0502250357,-0.01416543119
5.268,-0.0626061427,0.03253189732
5.282,-0.05672272287,0.07998608344
5.296,-0.0341000137,0.1219528274
5.31,0.001822095138,0.153406498
5.324,0.04634516291,0.1710176836
5.338,0.0942255381,0.1733399546
5.352,0.1403366548,0.1607404903
5.366,0.1802082961,0.1351402827
5.38,0.210410736,0.09963865857
5.394,0.2287845375,0.0580874725
5.408,0.2345359898,0.01466040178
5.422,0.2282223669,-0.02655835733
5.436,0.2116440102,-0.06195608595
5.45,0.1876486596,-0.08873773854
5.464,0.159845202,-0.1052226909
5.478,0.1322250302,-0.1110652948
5.492,0.1087017748,-0.1073606656
5.506,0.09260199805,-0.09659392927
5.52,0.08616436975,-0.08240167976
5.534,0.09012447189,-0.06913964136
5.548,0.1034686739,-0.06128673684
5.562,0.1234281394,-0.06275519773
5.576,0.1457521661,-0.07620907888
5.59,0.1652531243,-0.1025099916
5.604,0.1765621345,-0.1404024792
5.618,0.1749867327,-0.1865205658
5.632,0.1573304548,-0.2357456479
5.646,0.1225279891,-0.2818831908
5.66,0.07197179635,-0.3185640214
5.674,0.009454246707,-0.3402283387
5.688,-0.05928498896,-0.3430274843
5.702,-0.1273457941,-0.3254858501
5.716,-0.1876662726,-0.2888026484
5.73,-0.2340700758,-0.2367341057
5.744,-0.2621880471,-0.1750695067
5.758,-0.2701005013,-0.1107854746
5.772,-0.2585950053,-0.05101844993
5.786,-0.2310015521,-0.002025186535
5.8,-0.1926396517,0.03169989773
5.814,-0.1499765202,0.04801250185
5.828,-0.109640628,0.04732733486
5.842,-0.07745299931,0.03243046387
5.856,-0.05762791507,0.007943616812
5.87,-0.05225862661,-0.02045692864
5.884,-0.06115038635,-0.04693095281
5.898,-0.08200318728,-0.06633035504
5.912,-0.1108910317,-0.0748930141
5.926,-0.14294249,-0.07068268236
5.94,-0.1731046118,-0.05373053416
5.954,-0.1968706919,-0.02588365518
5.968,-0.2108697682,0.009590811794
5.982,-0.2132468489,0.04856626379
5.996,-0.2038008931,0.08668731982
6.01,-0.1838855362,0.1199768007
6.024,-0.1561096421,0.1453394395
6.038,-0.1238971476,0.1609060235
6.052,-0.09097683319,0.1661890572
6.066,-0.06087314338,0.162048053
6.08,-0.03646096507,0.1504857832
6.094,-0.01963308182,0.134314239
6.108,-0.01111157031,0.116739925
6.122,-0.01041599997,0.1009226895
6.136,-0.01598359244,0.08956131412
6.15,-0.02542061208,0.08455337493
6.164,-0.03585099412,0.08676724308
6.178,-0.04431826916,0.09595117504
6.192,-0.04819100165,0.1107889829
6.206,-0.04552105288,0.1290948078
6.22,-0.03530866711,0.148122511
6.234,-0.01763887194,0.1649500651
6.248,0.00633058538,0.1768882457
6.262,0.03453008035,0.1818579313
6.276,0.06426727827,0.1786828626
6.29,0.09260516037,0.1672551763
6.304,0.116775352,0.1485484558
6.318,0.1345666862,0.1244751549
6.332,0.1446315646,0.09760868606
6.346,0.1466644859,0.07081140749
6.36,0.1414264794,0.04682452902
6.374,0.1306130442,0.02788194142
6.388,0.116587609,0.01540594533
6.402,0.1020233275,0.00982939278
6.416,0.08950964186,0.01056815409
6.43,0.08118423327,0.01614366419
6.444,0.07844516072,0.02443176074
6.458,0.08178342495,0.03299509864
6.472,0.09075562778,0.03944516772
6.486,0.1040935594,0.04177796077
6.5,0.1199264088,0.03863452045
6.514,0.1360753031,0.02945221707
6.528,0.1503713904,0.01449177632
6.542,0.1609485919,-0.005254710762
6.556,0.1664698468,-0.02825173812
6.57,0.166259239,-0.05266853976
6.584,0.1603290822,-0.07664571987
6.598,0.1493078843,-0.09853970662
6.612,0.1342893744,-0.1171116331
6.626,0.1166324859,-0.1316388515
6.64,0.09774634918,-0.1419409421
6.654,0.07889297398,-0.1483254463
6.668,0.06103426965,-0.1514696496
6.682,0.04474085262,-0.1522622078
6.696,0.03016945206,-0.1516316246
6.71,0.01710536346,-0.1503876653
6.724,0.005057682993,-0.1490974014
6.738,-0.00661107507,-0.1480107646
6.752,-0.0185424637,-0.1470424164
6.766,-0.03124820358,-0.1458085561
6.78,-0.0450037133,-0.1437099958
6.794,-0.05978304545,-0.1400471573
6.808,-0.07524292662,-0.1341491067
6.822,-0.09075667031,-0.1254976084
6.836,-0.1054919678,-0.113828479
6.85,-0.1185207379,-0.09919604614
6.864,-0.1289450112,-0.08199182128
6.878,-0.1360207688,-0.06291495928
6.892,-0.1392620681,-0.04289887957
6.906,-0.1385106822,-0.02300463876
6.92,-0.1339614945,-0.004296388685
6.934,-0.126140382,0.01228321165
6.948,-0.115838337,0.0260198906
6.962,-0.1040120319,0.03650206124
6.976,-0.09166588626,0.04365275757
6.99,-0.07973313267,0.04771606484
7.004,-0.06897300562,0.0492019155
7.018,-0.05989805422,0.04879935494
7.032,-0.05274028686,0.04727277439
7.046,-0.04745835101,0.04535745957
7.06,-0.04378139544,0.0436698711
7.074,-0.04127980526,0.04264463547
7.088,-0.03944953809,0.04250501602
7.102,-0.03779581781,0.04326767219
7.116,-0.03590345947,0.04477691943
7.13,-0.03348463469,0.04675943236
7.144,-0.03039964021,0.04888803535
7.158,-0.02665123738,0.05084312385
7.172,-0.02235746279,0.05236215201
7.186,-0.01771075885,0.05327094461
7.2,-0.01293247268,0.05349457181
7.214,-0.008231224896,0.05304936937
7.228,-0.003771676441,0.05202070891
7.242,0.0003426088829,0.0505328841
7.256,0.004071558533,0.04871785856
7.27,0.007428289195,0.04668876013
7.284,0.01046006932,0.04452225963
7.298,0.01322544471,0.0422517908
7.312,0.01577238404,0.03987139357
7.326,0.01812145931,0.03734816974
7.34,0.02025672665,0.03464014527
7.354,0.02212540919,0.03171580361
7.368,0.02364597237,0.02857165068
7.382,0.02472291962,0.02524476691
7.396,0.02526573637,0.02181823209
7.41,0.02520890715,0.01841842045
7.424,0.02452982665,0.01520433407
7.438,0.02326170179,0.01235025876
7.452,0.02149915944,0.01002399818
7.466,0.0193952017,0.008363681981
7.48,0.01714932486,0.007456539714
7.494,0.01498792473,0.007322989173
7.508,0.01313939046,0.007908836862
7.522,0.01180732445,0.009087324636
7.536,0.0111458989,0.01067128918
7.55,0.01124129557,0.01243402454
7.564,0.01210238169,0.01413584828
7.578,0.01366231889,0.01555220162
7.592,0.01579089741,0.01649864618
7.606,0.01831537865,0.01684853774
7.62,0.02104593547,0.0165404622
7.634,0.02380080417,0.01557451598
7.648,0.02642629058,0.01399880756
7.662,0.02880786503,0.01188964933
7.676,0.03087056134,0.009330314676
7.69,0.03256936659,0.006393583395
7.704,0.03387270647,0.003132443789
7.718,0.0347439234,-0.0004186166345
7.732,0.03512634019,-0.004231915037
7.746,0.03493688803,-0.008267361228
7.76,0.03407142458,-0.0124507966
7.774,0.03242212948,-0.01665605189
7.788,0.02990433755,-0.02069658485
7.802,0.02648755114,-0.02433083952
7.816,0.02222379371,-0.02728266289
7.83,0.01726633066,-0.02927481501
7.844,0.01187318297,-0.03007052434
7.858,0.006392554138,-0.02951585949
7.872,0.001230740432,-0.02757491935
7.886,-0.003193412331,-0.02435068911
7.9,-0.006500642267,-0.02008673143
7.914,-0.008401609989,-0.01514821368
7.928,-0.008737122985,-0.009984449941
7.942,-0.007501574313,-0.005078426243
7.956,-0.004845803409,-0.0008910204879
7.97,-0.001059100336,0.002191580265
7.984,0.003466472797,0.003899527421
7.998,0.008283541729,0.004104386761
8.012,0.01294122359,0.00282495661
8.026,0.01703367983,0.0002143312434
8.04,0.02023894922,-0.003468458614
8.054,0.02234366732,-0.007896893157
8.068,0.02325183091,-0.01271924754
8.082,0.02297828136,-0.01759864663
8.096,0.02162963916,-0.0222459105
8.11,0.01937675551,-0.02644186208
8.124,0.01642328665,-0.03004760328
8.138,0.01297484158,-0.03300296604
8.152,0.009212497153,-0.03531470423
8.166,0.005273553234,-0.03703693109
8.18,0.001241394363,-0.03824688415
8.194,-0.002854688678,-0.03901939727
8.208,-0.007029870745,-0.0394035499
8.222,-0.01132554845,-0.03940485875
8.236,-0.01578475818,-0.03897601677
8.25,-0.02042462276,-0.038018462
8.264,-0.02521013666,-0.03639587493
8.278,-0.03003415339,-0.0339590467
8.292,-0.03470833989,-0.03057956312
8.306,-0.03896889298,-0.02618769041
8.32,-0.04249889324,-0.02080814434
8.334,-0.04496643856,-0.01458654325
8.348,-0.04607453302,-0.007799697278
8.362,-0.0456156988,-0.0008446770141
8.376,-0.04352210308,0.005795249659
8.39,-0.03990127761,0.01160563524
8.404,-0.03504865757,0.01611032765
8.418,-0.02943122401,0.01894521904
8.432,-0.02364114472,0.01992388605
8.446,-0.01832372523,0.01908267978
8.46,-0.01408919488,0.01669516726
8.474,-0.01142178824,0.01325036301
8.488,-0.01060131953,0.009395219756
8.502,-0.01165145562,0.005848300345
8.516,-0.01432515079,0.003297189742
8.53,-0.01813176274,0.002295855771
8.544,-0.02240326422,0.003179004694
8.558,-0.02639002061,0.006008209789
8.572,-0.02937116245,0.01055954375
8.586,-0.03076171005,0.01635550228
8.6,-0.03019890277,0.02273643074
8.614,-0.02759363544,0.02895987929
8.628,-0.02313886833,0.03431158914
8.642,-0.01727422759,0.03821001072
8.656,-0.0106133804,0.04028765587
8.67,-0.003846814346,0.04043685844
8.684,0.002363679584,0.03881380133
8.698,0.007481789744,0.03580174249
8.712,0.01116987581,0.03194094191
8.726,0.01332823361,0.02783774322
8.74,0.01409601714,0.02406786396
8.754,0.01381561445,0.02108894906
8.768,0.0129677204,0.01917507101
8.782,0.0120882145,0.01838174754
8.796,0.01167981362,0.01854504585
8.81,0.01213129376,0.01931331671
8.824,0.01365516281,0.02020579625
8.838,0.01625155243,0.02068921511
8.852,0.01970237345,0.02026186018
8.866,0.02359598497,0.01853420246
8.88,0.02737916409,0.01529602659
8.894,0.03043027173,0.01056170429
8.908,0.03214529549,0.004587591497
8.922,0.03202694924,-0.002141680181
8.936,0.02976626706,-0.008958125782
8.95,0.02530623064,-0.01508331193
8.964,0.01887804593,-0.01972261682
8.978,0.01100286632,-0.02217103064
8.992,0.002455105317,-0.02191808861
9.006,-0.005812105265,-0.0187380223
9.02,-0.01277362907,-0.01275130926
9.034,-0.01746030795,-0.004445867741
9.048,-0.01909280702,0.005349700591
9.062,-0.01720302879,0.01554241842
9.076,-0.01172433646,0.02489521098
9.09,-0.003034295526,0.03217824328
9.104,0.008060910031,0.0363321886
9.118,0.02040333788,0.03662044961
9.132,0.03261509633,0.03274685523
9.146,0.04326958445,0.02491870875
9.16,0.0510791865,0.01384208993
9.174,0.0550722115,0.0006461216788
9.188,0.05473189055,-0.01325600774
9.202,0.050074832,-0.02635099222
9.216,0.04165497562,-0.03722806352
9.23,0.03049046564,-0.04477016051
9.244,0.0179230876,-0.04830441155
9.258,0.005430854983,-0.04768865291
9.272,-0.005577979593,-0.0433206362
9.286,-0.01395817725,-0.03606882796
9.3,-0.01897889704,-0.02713614341
9.314,-0.0204110756,-0.01787840489
9.328,-0.01853919557,-0.009605979549
9.342,-0.01409799279,-0.003398863605
9.356,-0.008146282012,3.771202501E-05
9.37,-0.001899212487,0.000457507662
9.384,0.003454519406,-0.001912147932
9.398,0.006923292499,-0.006423903102
9.412,0.007847422655,-0.0121205818
9.426,0.005981589481,-0.0178832337
9.44,0.001516895813,-0.02259443815
9.454,-0.004956431218,-0.0252941695
9.468,-0.01253696803,-0.02530863851
9.482,-0.02013640472,-0.02233785705
9.496,-0.02662308631,-0.01649404458
9.51,-0.03096720827,-0.008289305756
9.524,-0.03237161321,0.001423545186
9.538,-0.03037491182,0.01154894989
9.552,-0.02491704473,0.0208743939
9.566,-0.01636098857,0.02821121968
9.58,-0.005467926836,0.03253663653
9.594,0.006673090846,0.03312270366
9.608,0.01875605303,0.02963834851
9.622,0.02940032969,0.02221172512
9.636,0.03731112161,0.01144278704
9.65,0.04144095995,-0.001639855344
9.664,0.04113273385,-0.01567786693
9.678,0.03622437718,-0.0291308616
9.692,0.02709781566,-0.04045824712
9.706,0.01466035253,-0.04831398986
9.72,0.0002550310629,-0.0517286106
9.734,-0.01449333264,-0.05025175818
9.748,-0.02787934738,-0.04403197182
9.762,-0.03833958057,-0.03381775097
9.776,-0.04466513854,-0.02087496939
9.79,-0.04617235592,-0.006828396387
9.804,-0.04280431505,0.006552507517
9.818,-0.0351454616,0.0175935319
9.832,-0.02434461944,0.02494610098
9.846,-0.01195608919,0.02777320419
9.86,0.0002782614757,0.02586224182
9.874,0.01067332831,0.01964736024
9.888,0.01783458305,0.01013811006
9.902,0.0208462235,-0.001233910942
9.916,0.01938613853,-0.01282597414
9.93,0.01375221794,-0.02301969232
9.944,0.004798842091,-0.03044514106
9.958,-0.006203599834,-0.03416080887
9.972,-0.01776200965,-0.03376486236
9.986,-0.02837575423,-0.02942504245
10,-0.03674137849,-0.02182762831
