"Freq [GHz]","re(S(Tx_p1,Tx_p1)) []","im(S(Tx_p1,Tx_p1)) []"
3,0.342447009,-0.06041941809
3.014,0.2936009778,-0.1056976814
3.028,0.238346579,-0.1215232684
3.042,0.1921499563,-0.1088058285
3.056,0.1684307752,-0.07595314103
3.07,0.1751354747,-0.03716229821
3.084,0.2124582726,-0.009234326627
3.098,0.2723000746,-0.007604645273
3.112,0.3396666393,-0.04249140958
3.126,0.3957601502,-0.1160672974
3.14,0.4221165083,-0.2213524165
3.154,0.4048787351,-0.3431510473
3.168,0.3382381276,-0.4608965171
3.182,0.2262363857,-0.5528306904
3.196,0.0824705348,-0.6006279462
3.21,-0.07229859659,-0.5934521305
3.224,-0.2141668128,-0.5305389032
3.238,-0.32089911,-0.4217043064
3.252,-0.376509479,-0.285625849
3.266,-0.3746194273,-0.1462266418
3.28,-0.3198607704,-0.02790877855
3.294,-0.2270046823,0.04936298147
3.308,-0.117986271,0.07408872752
3.322,-0.01744486278,0.04552161703
3.336,0.05228387972,-0.02626199322
3.35,0.07567525695,-0.1225160703
3.364,0.04708711312,-0.219736739
3.378,-0.0282265247,-0.2945006611
3.392,-0.1353399591,-0.3282144797
3.406,-0.2528252789,-0.3107960054
3.42,-0.3571718389,-0.2425521482
3.434,-0.4275161709,-0.1339139371
3.448,-0.4497044344,-0.003146349574
3.462,-0.4188802953,0.1274304308
3.476,-0.3401281555,0.2358808005
3.49,-0.2271263751,0.3048231061
3.504,-0.09918237963,0.3244961465
3.518,0.022659452,0.2941630787
3.532,0.1195911171,0.221672413
3.546,0.1782849943,0.1213938209
3.56,0.1928069801,0.01107430985
3.574,0.1649244147,-0.09165126837
3.588,0.1029001439,-0.1723471088
3.602,0.01918330093,-0.221865588
3.616,-0.07239007517,-0.2371189494
3.63,-0.1592272201,-0.2205402317
3.644,-0.2318910858,-0.1785376435
3.658,-0.2849778095,-0.1194462035
3.672,-0.3169297734,-0.05154026496
3.686,-0.3290245557,0.0184152554
3.7,-0.323964908,0.08579792764
3.714,-0.3045522948,0.1479256425
3.728,-0.2728481642,0.2032434894
3.742,-0.2300399972,0.250289438
3.756,-0.1769880363,0.2868735003
3.77,-0.1152014252,0.309819836
3.784,-0.04784272039,0.3154312855
3.798,0.01967024321,0.3005945219
3.812,0.07979615919,0.2642189745
3.826,0.1238616149,0.2085578433
3.84,0.1437811702,0.1399385073
3.854,0.1341358459,0.06854409224
3.868,0.09408409241,0.007113889308
3.882,0.02855453772,-0.03128669016
3.896,-0.05170945402,-0.03600746672
3.91,-0.1314393894,-0.001463912694
3.924,-0.1933388425,0.07095104918
3.938,-0.221354876,0.1722294968
3.952,-0.2040654082,0.2866695626
3.966,-0.1374405924,0.3943022036
3.98,-0.02632130281,0.4744238846
3.994,0.115800349,0.5095602422
4.008,0.2687644691,0.4890497128
4.022,0.4091766151,0.4114757628
4.036,0.5146507201,0.2853887601
4.05,0.5680249967,0.1281008926
4.064,0.5606937454,-0.03726331933
4.078,0.4943618172,-0.1859096267
4.092,0.3808430721,-0.2959014814
4.106,0.2399225078,-0.3521756145
4.12,0.09569797406,-0.3492492236
4.134,-0.02787356342,-0.2920892111
4.148,-0.1113441078,-0.1949898331
4.162,-0.1432044108,-0.07870875253
4.176,-0.1217270149,0.03354314556
4.19,-0.05490748686,0.1204475357
4.204,0.04142211415,0.1664063175
4.218,0.1468719513,0.1641305531
4.232,0.2404705548,0.1155455307
4.246,0.3045371683,0.03092150847
4.26,0.3277109352,-0.07350395358
4.274,0.3066067753,-0.1788626686
4.288,0.2458729111,-0.2672468785
4.302,0.1567567131,-0.3248481846
4.316,0.05457276043,-0.3440802229
4.33,-0.04434751099,-0.3243680438
4.344,-0.1255932436,-0.2715795253
4.358,-0.178949689,-0.1963465292
4.372,-0.1996510523,-0.1117196714
4.386,-0.1884945578,-0.030685258
4.4,-0.1509430639,0.0359619139
4.414,-0.0955329513,0.08103152741
4.428,-0.03200326057,0.1014740829
4.442,0.03044135828,0.09808478199
4.456,0.08441531161,0.07458857342
4.47,0.1250183707,0.03641760375
4.484,0.1498862663,-0.0104962353
4.498,0.1587705004,-0.06065813827
4.512,0.1528764852,-0.109540833
4.526,0.1342007748,-0.1537085739
4.54,0.1050527368,-0.1906488932
4.554,0.06784596241,-0.2184905622
4.568,0.02513253773,-0.2357876222
4.582,-0.02023757349,-0.2414928756
4.596,-0.06499379487,-0.2351506744
4.61,-0.1055065397,-0.2172383387
4.624,-0.1381143514,-0.1895092734
4.638,-0.1596993856,-0.1551624899
4.652,-0.1683933598,-0.1186927491
4.666,-0.1642237927,-0.08535636422
4.68,-0.1494896208,-0.06029857578
4.694,-0.128695634,-0.047499057
4.708,-0.1079696586,-0.04877106845
4.722,-0.09401306894,-0.0630728582
4.736,-0.09276250817,-0.08634655968
4.75,-0.1080353059,-0.1119964257
4.764,-0.1404664686,-0.1319768416
4.778,-0.1870084012,-0.1383139103
4.792,-0.241160035,-0.1247680339
4.806,-0.293940908,-0.08828858887
4.82,-0.3354610685,-0.02993201716
4.834,-0.3567970667,0.04498947169
4.848,-0.3518010596,0.1276085393
4.862,-0.3184651881,0.2069552165
4.876,-0.2595405483,0.2719005775
4.89,-0.1822545186,0.3132183268
4.904,-0.09715195101,0.3253548512
4.918,-0.01626607056,0.3075477009
4.932,0.04903479712,0.2640579651
4.946,0.09010851802,0.2034575086
4.96,0.1026074769,0.1371006154
4.974,0.08724988627,0.07707178
4.988,0.04964807783,0.034003702
5.002,-0.0007664251297,0.01518158839
5.016,-0.0525062234,0.02328846739
5.03,-0.09413606847,0.05601567647
5.044,-0.116324148,0.1065912782
5.058,-0.1134578175,0.1651026878
5.072,-0.08454056475,0.2203437503
5.086,-0.03323345232,0.2618287259
5.1,0.03292982371,0.2816007333
5.114,0.1039735316,0.2755192893
5.128,0.1692670397,0.2438251603
5.142,0.219332467,0.1909250444
5.156,0.2473561551,0.1244834489
5.17,0.2501639856,0.05402655246
5.184,0.2285351406,-0.01066743753
5.198,0.1868559581,-0.06110391248
5.212,0.1322295743,-0.09128653648
5.226,0.07323783383,-0.09844466585
5.24,0.01858815081,-0.08320798863
5.254,-0.02413150673,-0.04926226828
5.268,-0.04941345722,-0.002599704024
5.282,-0.05440120603,0.04947461315
5.296,-0.03904118919,0.09940611257
5.31,-0.005853548067,0.1403687493
5.324,0.04059230962,0.1670426019
5.338,0.0943882386,0.1761255399
5.352,0.1490739506,0.166560594
5.366,0.1984049294,0.1394972828
5.38,0.2370300777,0.09802773859
5.394,0.2610307333,0.04674805469
5.408,0.2682908831,-0.008803690232
5.422,0.2586800749,-0.06278323454
5.436,0.2340377032,-0.1097005065
5.45,0.1979541712,-0.145051817
5.464,0.1553552711,-0.1658651239
5.478,0.1119136111,-0.1710950751
5.492,0.07333465102,-0.161806695
5.506,0.04459115152,-0.141100055
5.52,0.02920217682,-0.1137551131
5.534,0.02866393772,-0.08561446095
5.548,0.04213357468,-0.06276634278
5.562,0.06644055189,-0.05063238746
5.576,0.09645527661,-0.05309430043
5.59,0.1257872088,-0.07180282486
5.604,0.1477252577,-0.1057956872
5.618,0.1562835072,-0.1515092155
5.632,0.1471863462,-0.2032066216
5.646,0.1186264512,-0.2537751004
5.66,0.07165902498,-0.295777105
5.674,0.01015228594,-0.3225916339
5.688,-0.05971210655,-0.329459494
5.702,-0.1303176292,-0.314257497
5.716,-0.1937328076,-0.2778692972
5.73,-0.2428916621,-0.2240876774
5.744,-0.2726424852,-0.159062376
5.758,-0.2804952743,-0.09038439561
5.772,-0.2669503002,-0.02595809863
5.786,-0.2353621804,0.02715451072
5.8,-0.1913720488,0.06373251139
5.814,-0.1420107182,0.08108437517
5.828,-0.09462593109,0.07932889403
5.842,-0.05580885568,0.06124221034
5.856,-0.03048648256,0.0317158353
5.87,-0.02131072118,-0.003069608385
5.884,-0.02841977384,-0.03661146952
5.898,-0.04958361733,-0.06303705893
5.912,-0.08068464719,-0.07789842879
5.926,-0.1164366651,-0.07870330485
5.94,-0.1512171609,-0.06512478609
5.954,-0.1798819136,-0.03888597766
5.968,-0.1984458584,-0.003364428406
5.982,-0.2045451311,0.03700210199
5.996,-0.1976353797,0.07740667763
6.01,-0.1789234427,0.11335609
6.024,-0.1510667984,0.1412529947
6.038,-0.1177030541,0.1588082754
6.052,-0.08288765277,0.1652445881
6.066,-0.0505216375,0.1612832597
6.08,-0.02384421016,0.1489349862
6.094,-0.005049514299,0.1311371043
6.108,0.004933393149,0.1112949724
6.122,0.006481098452,0.09279171688
6.136,0.001142974715,0.07852969057
6.15,-0.008639075931,0.07055942697
6.164,-0.01991620881,0.06983888819
6.178,-0.02967049919,0.07614878165
6.192,-0.03524702354,0.08817021993
6.206,-0.03472366814,0.1037108406
6.22,-0.02717040559,0.1200467603
6.234,-0.01276413226,0.1343326172
6.248,0.007255720145,0.1440225434
6.262,0.03078384782,0.1472428454
6.276,0.05516954193,0.1430632895
6.29,0.07761433253,0.1316278336
6.304,0.09558833122,0.1141258237
6.318,0.107203455,0.09260828323
6.332,0.1114877923,0.06967737694
6.346,0.1085202903,0.04809665026
6.36,0.09940652856,0.03038189723
6.374,0.08610118744,0.01843525661
6.388,0.07110678454,0.01327780033
6.402,0.05709731853,0.01491959782
6.416,0.04652638764,0.02238377965
6.43,0.04128034936,0.03387632346
6.444,0.04242811066,0.04707041768
6.458,0.05010193864,0.05945716369
6.472,0.06352139439,0.06870586232
6.486,0.08114916907,0.07297833219
6.5,0.1009472407,0.07115201324
6.514,0.120687723,0.06292381742
6.528,0.1382670915,0.04878748361
6.542,0.1519756205,0.02989782505
6.556,0.1606847279,0.007852197356
6.57,0.1639310962,-0.01556985028
6.584,0.1618947275,-0.03866477525
6.598,0.1552852322,-0.06002159197
6.612,0.1451638453,-0.07866778882
6.626,0.1327360941,-0.09412984557
6.64,0.1191510239,-0.1064087642
6.654,0.1053379424,-0.1158845457
6.668,0.09190222445,-0.1231733348
6.682,0.07908990869,-0.128965841
6.696,0.06681879562,-0.1338754306
6.71,0.05476347442,-0.1383196276
6.724,0.04247454712,-0.1424509383
6.738,0.02950899557,-0.146143521
6.752,0.01554919213,-0.1490328756
6.766,0.0004919046186,-0.1505978173
6.78,-0.01550517559,-0.1502684703
6.794,-0.032024478,-0.1475413652
6.808,-0.04843482565,-0.1420829566
6.822,-0.06397405478,-0.1338056991
6.836,-0.0778542302,-0.1229056248
6.85,-0.08937298937,-0.1098563998
6.864,-0.09801419318,-0.09536126927
6.878,-0.1035229785,-0.08027031431
6.892,-0.1059442174,-0.06547532493
6.906,-0.1056187643,-0.05179771797
6.92,-0.1031380264,-0.03988588587
6.934,-0.09926350069,-0.03013698315
6.948,-0.0948231152,-0.02265457441
6.962,-0.0905997188,-0.01724824647
6.976,-0.08722829972,-0.01347495469
6.99,-0.08511719475,-0.0107154788
7.004,-0.08440481048,-0.008273927853
7.018,-0.08495774143,-0.005484678142
7.032,-0.08640955425,-0.001810102557
7.046,-0.08823300214,0.003085856588
7.06,-0.08983314816,0.00929903945
7.074,-0.09064572315,0.01668615654
7.088,-0.09022460127,0.02490371039
7.102,-0.0883046,0.03347658057
7.116,-0.08483048491,0.04188338007
7.13,-0.07994918456,0.04964336177
7.144,-0.07396867546,0.05639006002
7.158,-0.06729259646,0.06191986697
7.172,-0.06034340129,0.06620871194
7.186,-0.05348816237,0.06939595294
7.2,-0.04697987091,0.07174038056
7.214,-0.04092361184,0.07355782866
7.228,-0.03527207989,0.07515254058
7.242,-0.02984950789,0.07675479244
7.256,-0.02439819567,0.07847541912
7.27,-0.0186382975,0.0802843078
7.284,-0.0123298488,0.08201539739
7.298,-0.00532632854,0.08339610735
7.312,0.002388882012,0.08409519649
7.326,0.01068845542,0.08378043357
7.34,0.019310904,0.08217643053
7.354,0.02789181189,0.07911356194
7.368,0.03601101873,0.07456079408
7.382,0.0432482186,0.06863805507
7.396,0.04923865455,0.06160698493
7.41,0.0537210326,0.0538420145
7.424,0.05657126243,0.04578632629
7.438,0.05781784698,0.0378990581
7.452,0.05763734256,0.0306009867
7.466,0.05633096434,0.02422584874
7.48,0.05428580435,0.018983489
7.494,0.05192600819,0.01493932968
7.508,0.04966040231,0.01201244572
7.522,0.04783338574,0.009992100972
7.536,0.04668535987,0.008570210472
7.55,0.04632763025,0.007385145512
7.564,0.04673471752,0.006070843897
7.578,0.04775460475,0.004304559241
7.592,0.04913496315,0.001846890075
7.606,0.05056119949,-0.001431047126
7.62,0.05170059313,-0.005536473659
7.634,0.0522460782,-0.01036058129
7.648,0.05195351256,-0.01569917268
7.662,0.05066753581,-0.02128433915
7.676,0.04833314843,-0.02682170998
7.69,0.0449925777,-0.03202727011
7.704,0.04076940458,-0.03665824746
7.718,0.03584386486,-0.04053400154
7.732,0.0304243847,-0.04354491712
7.746,0.02472054928,-0.04564961909
7.76,0.01892185106,-0.04686290988
7.774,0.01318492982,-0.04723827721
7.788,0.007629988781,-0.04684936531
7.802,0.002345095429,-0.04577439595
7.816,-0.002604443442,-0.0440863178
7.83,-0.007165209601,-0.04184974903
7.844,-0.01128675759,-0.03912396463
7.858,-0.01491716084,-0.03596968999
7.872,-0.01800401495,-0.03245665104
7.886,-0.02050023611,-0.02866886478
7.9,-0.02237260001,-0.02470547304
7.914,-0.02361017287,-0.02067629298
7.928,-0.02422976521,-0.01669282998
7.942,-0.02427629835,-0.01285687465
7.956,-0.02381732716,-0.009249640351
7.97,-0.02293257452,-0.00592443453
7.984,-0.02170075572,-0.002905091432
7.998,-0.02018685285,-0.0001910153687
8.012,-0.01843310851,0.002231969236
8.026,-0.0164563116,0.004377299231
8.04,-0.01425257638,0.006243277817
8.054,-0.01180906355,0.007802288441
8.068,-0.009120359039,0.008996723036
8.082,-0.00620594268,0.009743373095
8.096,-0.003124661514,0.009946211698
8.11,1.750460867E-05,0.00951561184
8.124,0.003068904964,0.008390515809
8.138,0.005843655495,0.006559217474
8.152,0.008141812646,0.004074439239
8.166,0.009775255115,0.001059295984
8.18,0.01059505083,-0.002297669411
8.194,0.01051569578,-0.005758252927
8.208,0.009532091711,-0.009059146087
8.222,0.007726328035,-0.01194180213
8.236,0.005262980485,-0.0141833156
8.25,0.002373410868,-0.01562395789
8.264,-0.0006688882758,-0.01618764044
8.278,-0.00357874882,-0.01589269706
8.292,-0.006091874299,-0.01485172411
8.306,-0.007995748479,-0.0132605422
8.32,-0.009155557516,-0.01137746224
8.334,-0.00953239125,-0.009494882568
8.348,-0.009191697616,-0.007905831344
8.362,-0.008300691331,-0.006868486885
8.376,-0.007114168581,-0.00657202423
8.39,-0.005949042573,-0.00710740371
8.404,-0.005148976263,-0.008446830735
8.418,-0.005041774422,-0.01043544445
8.432,-0.005893624609,-0.01279811593
8.446,-0.007865605073,-0.01516290114
8.46,-0.01097876371,-0.0171006665
8.474,-0.01509413051,-0.01817785461
8.488,-0.0199129635,-0.01801666469
8.502,-0.02500023863,-0.01635461753
8.516,-0.02983104005,-0.01309415235
8.53,-0.03385554688,-0.008333073004
8.544,-0.03657446025,-0.002368599569
8.558,-0.03761378903,0.004328597215
8.572,-0.03678668291,0.01116917172
8.586,-0.03413095047,0.01752228944
8.6,-0.02991408382,0.02280425785
8.614,-0.02460265232,0.02656468676
8.628,-0.01879898096,0.02855566792
8.642,-0.01315398069,0.02877154073
8.656,-0.008269664269,0.02745131839
8.67,-0.004607287753,0.02504205061
8.684,-0.002416632583,0.02212817221
8.698,-0.001698666046,0.01933794346
8.712,-0.00220825635,0.01724225393
8.726,-0.003496788731,0.01626253061
8.74,-0.004987710237,0.01660296664
8.754,-0.006072501551,0.01821809372
8.768,-0.006211304017,0.02082067289
8.782,-0.005021953624,0.02392811456
8.796,-0.002343475573,0.02693939469
8.81,0.001735360134,0.02922977874
8.824,0.006885940526,0.03024833977
8.838,0.0125855821,0.02960348452
8.852,0.01819128905,0.02712425475
8.866,0.02302991816,0.02288941726
8.88,0.02649151427,0.01722146064
8.894,0.02811299927,0.01064768611
8.908,0.02764158421,0.003834847624
8.922,0.02507066244,-0.002493268147
8.936,0.02064486141,-0.007644528478
8.95,0.01483478352,-0.0110426639
8.964,0.008285312372,-0.01229748911
8.978,0.001743930386,-0.01125370319
8.992,-0.004022820462,-0.008013404182
9.006,-0.008315791091,-0.002930205913
9.02,-0.01058359749,0.003424455801
9.034,-0.0104885162,0.01031969196
9.048,-0.007950687532,0.01694274909
9.062,-0.003165165483,0.02248833182
9.076,0.003411294589,0.02625057368
9.09,0.01110392975,0.02770762514
9.104,0.01909107325,0.02658875305
9.118,0.02649616422,0.02291487386
9.132,0.03249097716,0.01700571465
9.146,0.03639796592,0.009450298699
9.16,0.03777848753,0.00104192119
9.174,0.03649426337,-0.007316288939
9.188,0.03273195156,-0.01472443447
9.202,0.02698505756,-0.02040310102
9.216,0.01999315705,-0.02379849101
9.23,0.01264478669,-0.02465963385
9.244,0.005856353388,-0.02307494657
9.258,0.0004439416226,-0.01946083452
9.272,-0.00299296621,-0.0145020659
9.286,-0.004157684967,-0.009051258802
9.3,-0.003098188738,-0.004001700176
9.314,-0.0001969377404,-0.0001526093208
9.328,0.003890857544,0.001912140863
9.342,0.008341630912,0.001912432254
9.356,0.01229442754,-8.701319858E-05
9.37,0.01498774386,-0.003689772809
9.384,0.01588038527,-0.008233129254
9.398,0.01473706712,-0.01289516983
9.412,0.01166538048,-0.01682619315
9.426,0.007098896596,-0.01928326451
9.44,0.00173008875,-0.01974668141
9.454,-0.003595213973,-0.01800066462
9.468,-0.008004390277,-0.01416701052
9.482,-0.01072564145,-0.008688454599
9.496,-0.01119767794,-0.002266572959
9.51,-0.009146571748,0.004234261354
9.524,-0.004621054657,0.009901141491
9.538,0.002015486745,0.01388817569
9.552,0.01013165221,0.01551805043
9.566,0.01890385989,0.01435818772
9.58,0.02740940407,0.01026507453
9.594,0.03472454979,0.003395347651
9.608,0.04001708442,-0.00581369739
9.622,0.04262540445,-0.01668887834
9.636,0.04211906489,-0.02838478421
9.65,0.03833805715,-0.03995999396
9.664,0.03140956884,-0.05046015542
9.678,0.02174167079,-0.05900276984
9.692,0.009993682587,-0.06485853919
9.706,-0.002976517555,-0.06752353092
9.72,-0.01618672866,-0.0667755035
9.734,-0.02862247747,-0.06270712394
9.748,-0.03934010892,-0.05572918851
9.762,-0.0475708535,-0.04653890223
9.776,-0.05281315548,-0.03605198343
9.79,-0.05489950915,-0.02530252889
9.804,-0.05402537943,-0.01532037517
9.818,-0.05073178021,-0.007000940858
9.832,-0.04583943011,-0.0009859463893
9.846,-0.04034015849,0.002426081209
9.86,-0.03525899091,0.0033235532
9.874,-0.03150649579,0.002170091337
9.888,-0.02974411322,-0.0002637656291
9.902,-0.03028440529,-0.003016999229
9.916,-0.0330433446,-0.005085679615
9.93,-0.03755357663,-0.005578705567
9.944,-0.04303748114,-0.003856734559
9.958,-0.04852868431,0.0003682528363
9.972,-0.05302239396,0.006988798878
9.986,-0.05563011823,0.01551987192
10,-0.05571389753,0.02517496529
