"Freq [GHz]","re(S(Rx_p1,Tx_p1)) []","im(S(Rx_p1,Tx_p1)) []"
1,0.002273682899,0.005264155302
1.01,0.003816323984,0.004240826997
1.02,0.004944363766,0.002781659947
1.03,0.005540116431,0.001044999353
1.04,0.005544308869,-0.0007810450817
1.05,0.004962758002,-0.002499754959
1.06,0.003865430657,-0.003928034674
1.07,0.002377965873,-0.004916966602
1.08,0.0006667412701,-0.005368149054
1.09,-0.001080588575,-0.005243853101
1.1,-0.002676594851,-0.00456988397
1.11,-0.003954940263,-0.003431016323
1.12,-0.004788121151,-0.001959833329
1.13,-0.005100122828,-0.0003205923634
1.14,-0.004872778019,0.001309741544
1.15,-0.004145469307,0.002760961418
1.16,-0.003008632127,0.003887377553
1.17,-0.001592184448,0.004582053296
1.18,-5.046246591E-05,0.004786259753
1.19,0.001454545558,0.004493519826
1.2,0.002769884382,0.003748217746
1.21,0.003766636795,0.002639267927
1.22,0.004351948505,0.00128973262
1.23,0.004477131513,-0.0001564536544
1.24,0.004141282621,-0.001549339725
1.25,0.003390229636,-0.002748018389
1.26,0.002310985088,-0.003634533742
1.27,0.001022244866,-0.004125369232
1.28,-0.000338188673,-0.004179426491
1.29,-0.001627871646,-0.003801677023
1.3,-0.00271464461,-0.003042042631
1.31,-0.003490465855,-0.001989524373
1.32,-0.003882628773,-0.0007621178552
1.33,-0.003861057307,0.0005064354364
1.34,-0.003440779588,0.001681581764
1.35,-0.002679241439,0.002642826228
1.36,-0.001668769516,0.00329674819
1.37,-0.0005251335669,0.003586574363
1.38,0.0006263154744,0.003497167389
1.39,0.00166513248,0.003054910765
1.4,0.002489034117,0.002322676556
1.41,0.003024290562,0.001390735131
1.42,0.003232085578,0.0003649938267
1.43,0.003110305072,-0.0006457523198
1.44,0.002690892445,-0.001541853039
1.45,0.002033520438,-0.00224265804
1.46,0.001216772922,-0.002693186794
1.47,0.0003282419523,-0.00286717114
1.48,-0.0005450908649,-0.00276659989
1.49,-0.001325071394,-0.00241836809
1.5,-0.001948466787,-0.001868935596
1.51,-0.002370661029,-0.001177997447
1.52,-0.002567081534,-0.0004120747741
1.53,-0.002532775285,0.0003612997756
1.54,-0.002280688069,0.001078429019
1.55,-0.001839181854,0.001683245467
1.56,-0.001249189555,0.002130176991
1.57,-0.0005612129406,0.002386301267
1.58,0.0001678150284,0.002432979953
1.59,0.0008779007496,0.002267046159
1.6,0.001509710183,0.001901461285
1.61,0.002008672281,0.001365218411
1.62,0.002329339255,0.0007022002955
1.63,0.002439687486,-3.126816489E-05
1.64,0.002324879011,-0.0007702966656
1.65,0.001989915743,-0.001446641105
1.66,0.001460640267,-0.001994900929
1.67,0.0007826765229,-0.002359116034
1.68,1.814374128E-05,-0.002499010399
1.69,-0.0007597214013,-0.002395072362
1.7,-0.001473587882,-0.002051731548
1.71,-0.002049984417,-0.001498083894
1.72,-0.002427291719,-0.0007859017026
1.73,-0.002562820316,1.499756321E-05
1.74,-0.002438089925,0.0008236112843
1.75,-0.002061613425,0.001556134963
1.76,-0.001468767805,0.002134954554
1.77,-0.000718669135,0.0024972347
1.78,0.0001116828138,0.002602110794
1.79,0.0009354029605,0.002435629788
1.8,0.001665015881,0.002012821193
1.81,0.002222032504,0.001376590014
1.82,0.002545734846,0.0005934751128
1.83,0.002600154487,-0.0002533267944
1.84,0.002378405803,-0.001072947532
1.85,0.00190381241,-0.00177686637
1.86,0.001227619444,-0.002288831851
1.87,0.0004234787642,-0.002553531432
1.88,-0.0004207156116,-0.002542966024
1.89,-0.001212727394,-0.002259731681
1.9,-0.001866461381,-0.001736766316
1.91,-0.002311778153,-0.001033545482
1.92,-0.002502446099,-0.0002291545212
1.93,-0.002421253217,0.0005869351184
1.94,-0.002081652269,0.00132525757
1.95,-0.001525753601,0.00190663046
1.96,-0.0008189495231,0.002271054789
1.97,-4.188561726E-05,0.002384161349
1.98,0.0007191747274,0.002240461899
1.99,0.001382363048,0.001863092475
2,0.001879354943,0.001300197376
2.01,0.002162572231,0.0006185277891
2.02,0.00220965206,-0.0001048412004
2.03,0.002024784669,-0.0007915802033
2.04,0.001636938998,-0.001370833157
2.05,0.001095381446,-0.001786592439
2.06,0.0004631960185,-0.00200295186
2.07,-0.0001903005569,-0.002006787294
2.08,-0.0007973009482,-0.001807760809
2.09,-0.001298528231,-0.0014358676
2.1,-0.00164882642,-0.0009370058348
2.11,-0.001820844663,-0.0003672225336
2.12,-0.001806599018,0.00021363543
2.13,-0.001616946442,0.0007481517128
2.14,-0.00127921958,0.001186829802
2.15,-0.0008334305011,0.001492362829
2.16,-0.0003275488529,0.001642378815
2.17,0.0001876045217,0.001630537007
2.18,0.0006633272599,0.001466021116
2.19,0.001057412797,0.001171621549
2.2,0.001337579689,0.0007807117706
2.21,0.001483719848,0.0003334979574
2.22,0.001488865396,-0.0001270467969
2.23,0.001358904436,-0.0005591622754
2.24,0.001111192132,-0.0009258418988
2.25,0.000772293786,-0.001197661398
2.26,0.0003751524719,-0.001354723094
2.27,-4.400930696E-05,-0.001387651312
2.28,-0.0004487654109,-0.001297674493
2.29,-0.0008053024234,-0.001095908471
2.3,-0.001084809814,-0.0008020036938
2.31,-0.001265350598,-0.0004423342012
2.32,-0.001333181203,-4.78918666E-05
2.33,-0.001283528997,0.0003479831897
2.34,-0.001120849173,0.0007119416758
2.35,-0.0008585733034,0.001012965009
2.36,-0.000518340829,0.001224641413
2.37,-0.0001286876731,0.001327292733
2.38,0.0002768314478,0.001309826156
2.39,0.000662077334,0.001171138964
2.4,0.0009912411299,0.0009208715671
2.41,0.001232071565,0.0005793034277
2.42,0.001359146486,0.000176232102
2.43,0.001356836513,-0.0002512283461
2.44,0.001221565682,-0.0006618550185
2.45,0.0009629918771,-0.001014295114
2.46,0.000603818031,-0.001271427936
2.47,0.0001780983146,-0.001404607267
2.48,-0.0002718975166,-0.001397233578
2.49,-0.0006999851495,-0.001247141741
2.5,-0.001061064901,-0.0009674123651
2.51,-0.001316219228,-0.000585409164
2.52,-0.001437260816,-0.0001400821627
2.53,-0.001410132381,0.0003221811431
2.54,-0.001236699871,0.0007526672149
2.55,-0.0009346913289,0.001105782954
2.56,-0.000535780649,0.001344162805
2.57,-8.20594285E-05,0.001442812187
2.58,0.0003786562927,0.001391799312
2.59,0.0007981031973,0.001197205477
2.6,0.001132800803,0.0008802706084
2.61,0.001348639106,0.0004748914368
2.62,0.001424336283,2.38140048E-05
2.63,0.001353436976,-0.0004260106931
2.64,0.001144702994,-0.0008283785638
2.65,0.0008209274457,-0.001142566497
2.66,0.0004163599519,-0.001337381701
2.67,-2.694806389E-05,-0.001394156519
2.68,-0.0004634882377,-0.00130843893
2.69,-0.0008488995744,-0.001090257862
2.7,-0.001144396468,-0.0007629701814
2.71,-0.001320610846,-0.0003608163348
2.72,-0.001360492533,7.458009744E-05
2.73,-0.001260990991,0.0004984411848
2.74,-0.001033344204,0.0008673925033
2.75,-0.0007019238497,0.001143907389
2.76,-0.0003017234942,0.00130018777
2.77,0.000125282022,0.001321068077
2.78,0.0005345478534,0.001205612088
2.79,0.0008836818004,0.0009672002798
2.8,0.00113696407,0.0006320671236
2.81,0.001269153946,0.0002364259767
2.82,0.001268141693,-0.0001775092432
2.83,0.001136132525,-0.0005661564428
2.84,0.000889223336,-0.0008893161777
2.85,0.0005554290286,-0.001114487258
2.86,0.0001714060618,-0.001220248354
2.87,-0.0002217214293,-0.001198327575
2.88,-0.0005829254636,-0.001054151014
2.89,-0.0008756875865,-0.0008058534448
2.9,-0.001071760044,-0.0004819217069
2.91,-0.001153874481,-0.0001177977343
2.92,-0.001117144247,0.0002481261164
2.93,-0.0009690743679,0.0005786423728
2.94,-0.0007282585129,0.0008415347779
2.95,-0.0004219835249,0.001012666775
2.96,-8.306428064E-05,0.001078072298
2.97,0.0002537128846,0.001034898193
2.98,0.0005551511907,0.0008911790605
2.99,0.0007928540258,0.0006645442265
3,0.0009457938145,0.0003800524281
3.01,0.001002031742,6.741711933E-05
3.02,0.0009594749388,-0.0002420776419
3.03,0.0008256529977,-0.0005186626516
3.04,0.0006165853183,-0.0007368803936
3.05,0.0003548891613,-0.0008778441566
3.06,6.734093873E-05,-0.0009307701923
3.07,-0.0002178540825,-0.000893668091
3.08,-0.0004738093978,-0.0007731580753
3.09,-0.0006774549413,-0.0005834696408
3.1,-0.0008115511523,-0.0003447556846
3.11,-0.000866043517,-8.092118678E-05
3.12,-0.0008386577464,0.0001827924031
3.13,-0.0007347211716,0.0004222123454
3.14,-0.0005662796343,0.0006163914447
3.15,-0.0003506498371,0.0007493230924
3.16,-0.0001085953519,0.0008110859027
3.17,0.0001376653423,0.0007983639
3.18,0.0003664188941,0.000714360536
3.19,0.0005582178252,0.0005681839916
3.2,0.0006973224974,0.0003738196604
3.21,0.0007727572136,0.0001488207251
3.22,0.0007789598884,-8.715820312E-05
3.23,0.0007160378089,-0.0003138794442
3.24,0.0005896585865,-0.0005120126333
3.25,0.000410607442,-0.000664537989
3.26,0.0001940356146,-0.000758013641
3.27,-4.158158309E-05,-0.0007836559517
3.28,-0.0002757565601,-0.0007381698572
3.29,-0.0004875349128,-0.0006242517553
3.3,-0.0006572082009,-0.0004506796353
3.31,-0.0007680873779,-0.0002319128619
3.32,-0.0008081886964,1.284690958E-05
3.33,-0.0007716525256,0.0002611310174
3.34,-0.0006597054462,0.0004891443614
3.35,-0.0004809952732,0.0006740253408
3.36,-0.0002511800506,0.0007962111328
3.37,8.268194528E-06,0.0008416472291
3.38,0.0002719859882,0.0008035658421
3.39,0.0005132062143,0.0006835828658
3.4,0.0007065606108,0.0004919274927
3.41,0.0008308846709,0.0002467153993
3.42,0.0008716901754,-2.770711914E-05
3.43,0.0008229927035,-0.0003032009531
3.44,0.0006882467479,-0.0005508010255
3.45,0.0004802414872,-0.0007438827274
3.46,0.000219932792,-0.0008611621461
3.47,-6.568436504E-05,-0.000889173419
3.48,-0.0003464407806,-0.0008239202174
3.49,-0.0005922800077,-0.0006714899285
3.5,-0.0007765960454,-0.0004475373888
3.51,-0.0008792374254,-0.0001756759594
3.52,-0.0008888254713,0.0001150579545
3.53,-0.000804108205,0.0003933899207
3.54,-0.0006341787921,0.0006292844057
3.55,-0.0003975169478,0.0007973154284
3.56,-0.0001199490706,0.0008795379515
3.57,0.0001682476769,0.0008675188122
3.58,0.0004357661572,0.0007632799846
3.59,0.0006538150432,0.0005790335431
3.6,0.0007993684246,0.0003357326135
3.61,0.0008577289501,6.060826312E-05
3.62,0.0008240955225,-0.0002160101951
3.63,0.0007039494852,-0.0004642023399
3.64,0.0005122225532,-0.0006578600062
3.65,0.0002713655395,-0.0007775705223
3.66,8.57736489E-06,-0.0008126344986
3.67,-0.0002474414635,-0.0007619907499
3.68,-0.0004697932562,-0.0006339689087
3.69,-0.000636333329,-0.0004449464842
3.7,-0.0007319169391,-0.0002171281888
3.71,-0.0007497037625,2.422959875E-05
3.72,-0.000691419115,0.000253772112
3.73,-0.0005666156511,0.0004488027069
3.74,-0.0003911072914,0.0005915239988
3.75,-0.0001848398286,0.0006705418797
3.76,3.049160863E-05,0.0006815299416
3.77,0.0002337720609,0.0006270725139
3.78,0.0004064846367,0.000515807158
3.79,0.0005342362169,0.0003610577452
3.8,0.000607701586,0.000179180311
3.81,0.0006229836768,-1.21630488E-05
3.82,0.0005814564359,-0.0001956237075
3.83,0.0004891991197,-0.0003555547762
3.84,0.0003561451228,-0.0004791004937
3.85,0.0001950594781,-0.0005569674687
3.86,2.043594901E-05,-0.0005838906281
3.87,-0.0001526223328,-0.0005588206676
3.88,-0.0003094962754,-0.0004848588415
3.89,-0.0004370863554,-0.0003689560084
3.9,-0.0005247567756,-0.0002213841909
3.91,-0.0005651445416,-5.498751729E-05
3.92,-0.0005547773232,0.0001157708248
3.93,-0.000494436698,0.0002759283649
3.94,-0.0003892073372,0.000411245245
3.95,-0.0002481709114,0.0005094363525
3.96,-8.373510893E-05,0.0005613021138
3.97,8.937134709E-05,0.0005616404319
3.98,0.000255364439,0.0005098333415
3.99,0.000398821586,0.0004100296656
4,0.000506115525,0.0002708854153
4.01,0.000566723892,0.0001048706103
4.02,0.0005742827065,-7.280250986E-05
4.03,0.0005272766084,-0.0002455356152
4.04,0.0004292939244,-0.0003968625595
4.05,0.0002888152199,-0.0005119929045
4.06,0.0001185451549,-0.000579241918
4.07,-6.566421218E-05,-0.0005912173002
4.08,-0.0002462168621,-0.0005456505448
4.09,-0.0004053927838,-0.0004457853384
4.1,-0.0005270514075,-0.0003002659675
4.11,-0.0005982689194,-0.0001225053469
4.12,-0.0006107517058,7.044490437E-05
4.13,-0.0005618715286,0.0002594518883
4.14,-0.0004551865796,0.0004251655739
4.15,-0.0003003491827,0.0005500216209
4.16,-0.0001123561943,0.0006201781091
4.17,8.983088274E-05,0.0006271635763
4.18,0.0002851894939,0.0005690222737
4.19,0.000452879351,0.0004507817043
4.2,0.0005745790896,0.0002841368158
4.21,0.0006366350642,8.633833093E-05
4.22,0.0006317434103,-0.0001216222103
4.23,0.0005599300237,-0.0003173367823
4.24,0.0004286748893,-0.0004795400045
4.25,0.0002521370383,-0.0005905833782
4.26,4.955835389E-05,-0.0006385050605
4.27,-0.0001569606995,-0.0006184232297
4.28,-0.00034503135,-0.0005330702346
4.29,-0.0004945624426,-0.0003924019176
4.3,-0.0005900321033,-0.0002123432175
4.31,-0.0006221639945,-1.284718857E-05
4.32,-0.0005888154072,0.0001844682197
4.33,-0.0004949972244,0.0003587955898
4.34,-0.0003520642218,0.0004924166149
4.35,-0.0001762195659,0.0005725193659
4.36,1.344542987E-05,0.0005923678141
4.37,0.0001971153865,0.0005517337263
4.38,0.0003563573314,0.0004565996123
4.39,0.0004759420746,0.000318227111
4.4,0.0005452115559,0.00015174735
4.41,0.0005588939521,-2.553667254E-05
4.42,0.0005173390371,-0.0001959401545
4.43,0.0004262073084,-0.0003431008705
4.44,0.000295692029,-0.0004534522195
4.45,0.0001393820884,-0.000517358697
4.46,-2.711256683E-05,-0.0005298471523
4.47,-0.0001876483126,-0.0004909029205
4.48,-0.0003270272942,-0.0004053305308
4.49,-0.0004323557683,-0.0002822051325
4.5,-0.0004941783043,-0.0001339649566
4.51,-0.000507298306,2.478147067E-05
4.52,-0.0004712141393,0.0001786370032
4.53,-0.0003901262222,0.0003128701059
4.54,-0.0002725044154,0.0004148115364
4.55,-0.000130245428,0.0004750600002
4.56,2.250716097E-05,0.0004883738748
4.57,0.000170768063,0.0004541522275
4.58,0.0003001986138,0.0003764488182
4.59,0.0003985220583,0.0002635133509
4.6,0.000456714564,0.0001269082363
4.61,0.0004698454284,-1.970134788E-05
4.62,0.0004374813271,-0.0001619488363
4.63,0.0003636215678,-0.0002862040766
4.64,0.000256186364,-0.0003808931675
4.65,0.0001261300404,-0.0004375661353
4.66,-1.371102106E-05,-0.0004516139601
4.67,-0.0001499043356,-0.0004225814244
4.68,-0.0002697059176,-0.00035406931
4.69,-0.0003622203167,-0.0002532620212
4.7,-0.0004193368874,-0.0001301498776
4.71,-0.0004363739332,3.463413851E-06
4.72,-0.000412394965,0.0001350683334
4.73,-0.0003501916187,0.0002525733482
4.74,-0.0002559533685,0.0003453544655
4.75,-0.0001386642881,0.0004051529044
4.76,-9.282232525E-06,0.0004267583433
4.77,0.0001202329866,0.0004084313624
4.78,0.0002379676691,0.0003520357784
4.79,0.000333098349,0.0002628699906
4.8,0.0003968497285,0.0001492066518
4.81,0.0004232867778,2.157176939E-05
4.82,0.0004098700176,-0.0001081833998
4.83,0.0003577186922,-0.0002279437051
4.84,0.0002715491786,-0.0003264345843
4.85,0.0001592841486,-0.0003942706334
4.86,3.135902107E-05,-0.000424849732
4.87,-0.0001002174577,-0.000415005069
4.88,-0.000222965888,-0.0003653480773
4.89,-0.0003251015727,-0.0002802636296
4.9,-0.000396654085,-0.0001675516762
4.91,-0.0004304355135,-3.774306409E-05
4.92,-0.0004227649926,9.685201717E-05
4.93,-0.0003738786703,0.0002232795825
4.94,-0.0002879817529,0.0003291607669
4.95,-0.0001729300906,0.0004038848346
4.96,-3.956051187E-05,0.0004396670705
4.97,9.928021288E-05,0.0004323707578
4.98,0.0002299300004,0.0003820087222
4.99,0.0003392283943,0.0002928635087
5,0.0004158371998,0.0001731955159
5.01,0.0004514371273,3.454425989E-05
5.02,0.0004416741908,-0.0001093325067
5.03,0.0003867435496,-0.0002437968457
5.04,0.0002915260208,-0.0003548241478
5.05,0.0001652331548,-0.0004305022521
5.06,2.056790812E-05,-0.0004623719754
5.07,-0.0001275353705,-0.0004464487242
5.08,-0.0002634726415,-0.0003837893441
5.09,-0.0003726687159,-0.0002805130165
5.1,-0.0004432192055,-0.0001472460109
5.11,-0.0004672772794,1.969601947E-06
5.12,-0.0004420079288,0.0001511929911
5.13,-0.0003699792971,0.0002843574073
5.14,-0.0002589279003,0.0003870892871
5.15,-0.0001209134177,0.0004483515847
5.16,2.904195597E-05,0.0004617069413
5.17,0.0001746665399,0.000426042435
5.18,0.0003002949058,0.0003456660879
5.19,0.0003926384873,0.0002297662466
5.2,0.0004422560746,9.130663275E-05
5.21,0.0004445508329,-5.449945159E-05
5.22,0.0004001842971,-0.000191942407
5.23,0.0003148740685,-0.0003065810144
5.24,0.0001986195502,-0.0003868088182
5.25,6.446829264E-05,-0.0004250456728
5.26,-7.301424595E-05,-0.0004184317028
5.27,-0.000199381886,-0.0003689668037
5.28,-0.0003018604679,-0.0002831073036
5.29,-0.0003706461826,-0.0001708935987
5.3,-0.0003998193974,-4.473136788E-05
5.31,-0.0003877956484,8.202023754E-05
5.32,-0.0003372919268,0.0001964890453
5.33,-0.0002548406967,0.0002876026513
5.34,-0.0001499305303,0.0003471416146
5.35,-3.388667721E-05,0.000370437646
5.36,8.137514603E-05,0.0003566651954
5.37,0.0001845837806,0.0003087209527
5.38,0.0002662084592,0.000232729428
5.39,0.0003193101627,0.0001372497794
5.4,0.000340075753,3.228600355E-05
5.41,0.0003280007241,-7.178289086E-05
5.42,0.0002857266914,-0.0001652351934
5.43,0.0002185771297,-0.0002398961527
5.44,0.0001338650374,-0.0002898037312
5.45,4.006562801E-05,-0.0003116012591
5.46,-5.404631269E-05,-0.0003046435795
5.47,-0.0001402014536,-0.0002708377521
5.48,-0.0002113086031,-0.0002142676932
5.49,-0.0002619465939,-0.0001406704447
5.5,-0.0002886564133,-5.683802391E-05
5.51,-0.0002900421474,2.998686447E-05
5.52,-0.0002667101987,0.0001126681872
5.53,-0.0002210874122,0.0001846545784
5.54,-0.0001571592969,0.000240366526
5.55,-8.016101399E-05,0.0002754978022
5.56,3.760199117E-06,0.0002872446721
5.57,8.790711175E-05,0.0002744755056
5.58,0.0001654253557,0.0002378443039
5.59,0.000229735577,0.0001798377976
5.6,0.000275006023,0.0001047321922
5.61,0.0002966507841,1.842759394E-05
5.62,0.0002918181449,-7.18700958E-05
5.63,0.0002598134356,-0.0001581364884
5.64,0.0002023875064,-0.00023217746
5.65,0.0001238207401,-0.0002864001638
5.66,3.074634947E-05,-0.000314634867
5.67,-6.831455546E-05,-0.0003129103265
5.68,-0.0001636935515,-0.0002800726746
5.69,-0.0002455335338,-0.0002181427953
5.7,-0.0003048659765,-0.0001323313527
5.71,-0.000334677033,-3.06716609E-05
5.72,-0.0003308204126,7.671734508E-05
5.73,-0.0002926444399,0.0001786709557
5.74,-0.0002232317243,0.0002642059267
5.75,-0.0001291983722,0.0003237862619
5.76,-2.005837268E-05,0.0003504662076
5.77,9.278144034E-05,0.0003407601144
5.78,0.0001972789459,0.0002951218342
5.79,0.0002821145555,0.0002179663218
5.8,0.000337982929,0.0001172254224
5.81,0.0003586609401,3.489584893E-06
5.82,0.0003417237957,-0.0001111610798
5.83,0.0002888265887,-0.0002144961921
5.84,0.0002055228331,-0.0002954870154
5.85,0.0001006470601,-0.0003455154208
5.86,-1.466170842E-05,-0.0003593054001
5.87,-0.0001281804329,-0.0003354781457
5.88,-0.0002279278361,-0.0002766765422
5.89,-0.0003034496483,-0.0001892533452
5.9,-0.0003469259814,-8.256400803E-05
5.91,-0.0003539856679,3.20544206E-05
5.92,-0.0003241452517,0.0001425060693
5.93,-0.0002608303234,0.000237229457
5.94,-0.0001709803045,0.0003064240622
5.95,-6.42807969E-05,0.0003430807244
5.96,4.789357347E-05,0.0003437067385
5.97,0.0001537119141,0.000308668194
5.98,0.0002421617108,0.00024211252
5.99,0.0003042256262,0.0001514796829
6,0.0003338299939,4.665642825E-05
