"Freq [GHz]","re(S(Antenna1_1_1,Antenna1_1_1)) []","im(S(Antenna1_1_1,Antenna1_1_1)) []"
3,-0.243235604549063,-0.180674964860029
3.01,-0.247859545491218,-0.170054242378217
3.02,-0.252066843156938,-0.159500877403962
3.03,-0.255918704205336,-0.149010474368912
3.04,-0.25946907732331,-0.138560374850912
3.05,-0.26275939023089,-0.128112280510398
3.06,-0.265814214703641,-0.117616456087638
3.07,-0.26863835414098,-0.107017162433015
3.08,-0.271215709064056,-0.0962588097415896
3.09,-0.273510084099586,-0.0852922213195494
3.1,-0.275467881331246,-0.0740803702014
3.11,-0.277022409278972,-0.0626030049410422
3.12,-0.278099353536557,-0.0508597087401656
3.13,-0.278622827037593,-0.0388711215068041
3.14,-0.278521371110693,-0.0266782722514813
3.15,-0.277733306125871,-0.0143401888241581
3.16,-0.2762109422491,-0.00193014243660107
3.17,-0.273923325818453,0.0104689806413244
3.18,-0.270857400529458,0.0227696258341755
3.19,-0.26701766579511,0.0348842990646189
3.2,-0.262424592642711,0.0467296333382933
3.21,-0.25711218052607,0.0582294964207837
3.22,-0.251125092400655,0.0693170207521799
3.23,-0.244515783605952,0.0799356145576501
3.24,-0.237341951936933,0.0900391603566301
3.25,-0.229664499769973,0.0995916992649123
3.26,-0.221546040644598,0.108566926045208
3.27,-0.213049835790354,0.116947771923631
3.28,-0.204238934492964,0.124726251040755
3.29,-0.195175241717921,0.131903601414809
3.3,-0.185918255358788,0.138490603398078
3.31,-0.176523301083996,0.14450782955429
3.32,-0.167039232252278,0.149985501922052
3.33,-0.157505727139,0.154962623620947
3.34,-0.147950477077034,0.159485117288426
3.35,-0.138386683060588,0.163602837657219
3.36,-0.128811338762098,0.167365509845373
3.37,-0.119204758900802,0.170817846236097
3.38,-0.109531706202021,0.173994284311335
3.39,-0.0997442955256972,0.176913925059556
3.4,-0.089786625122948,0.179576315329673
3.41,-0.0796008433017757,0.181958688811192
3.42,-0.069134137337111,0.184015159180488
3.43,-0.0583459638303211,0.185678158280156
3.44,-0.0472147576315597,0.186862160027424
3.45,-0.0357433705191391,0.187469458728358
3.46,-0.0239626034414894,0.187397520828748
3.47,-0.0119323915830348,0.186547233848807
3.48,0.00025954607807029,0.184831264034581
3.49,0.0125015066581763,0.182181717598095
3.5,0.0246637077832649,0.178556380837166
3.51,0.0366057417214697,0.173942977669218
3.52,0.0481848860711147,0.168361101184543
3.53,0.0592645280452621,0.161861721919326
3.54,0.0697219941359224,0.154524412857556
3.55,0.0794551840079341,0.146452629852955
3.56,0.0883875691195123,0.137767530741737
3.57,0.0964712986159363,0.128600889052951
3.58,0.103688339396015,0.119087667840823
3.59,0.110049733715427,0.109358769959796
3.6,0.115593176199397,0.09953439659661
3.61,0.120379186577808,0.0897183423367083
3.62,0.124486185621562,0.0799934545880882
3.63,0.128004783882992,0.0704183978330439
3.64,0.131031576459233,0.0610258028687577
3.65,0.133662719797284,0.0518218367912261
3.66,0.135987556089743,0.0427872063925101
3.67,0.138082556308477,0.0338795810756951
3.68,0.14000586752069,0.0250373915349222
3.69,0.14179277227361,0.0161849086262624
3.7,0.14345237839451,0.00723843410494044
3.71,0.144965847415901,-0.00188665931940161
3.72,0.146286424452402,-0.0112684035198425
3.73,0.147341445890602,-0.0209706915894908
3.74,0.148036372146368,-0.0310362552812874
3.75,0.148260731808025,-0.0414807389500835
3.76,0.147895682947954,-0.0522884244914477
3.77,0.146822722387407,-0.0634100798587725
3.78,0.144932922735415,-0.0747632607374125
3.79,0.142135977592478,-0.086235199803991
3.8,0.138368299864579,-0.0976881960637187
3.81,0.133599458058752,-0.108967181503983
3.82,0.127836352022153,-0.119908931145757
3.83,0.121124709205707,-0.130352214656097
3.84,0.113547711667862,-0.140148082863991
3.85,0.105221813648595,-0.149169457694527
3.86,0.0962900569099218,-0.157319247360339
3.87,0.086913406941426,-0.164536337201497
3.88,0.077260796474361,-0.170798992699344
3.89,0.0674986595726352,-0.176125437831157
3.9,0.0577807619182531,-0.180571607425837
3.91,0.0482390825403675,-0.184226302941345
3.92,0.0389763908242149,-0.187204174026886
3.93,0.0300610031076048,-0.189637097869342
3.94,0.0215240152933979,-0.191664617918507
3.95,0.0133591155419441,-0.193424135256875
3.96,0.005524890913602,-0.19504152345905
3.97,-0.0020506171487232,-0.196622767442469
3.98,-0.0094634852112986,-0.198247123844624
3.99,-0.0168260766243737,-0.199962177481413
4,-0.0242583319975912,-0.201781033253424
4.01,-0.0318787265572862,-0.203681749941135
4.02,-0.0397954340768333,-0.205608997786689
4.03,-0.0480982057581441,-0.207477803729706
4.04,-0.0568514232307381,-0.209179147768843
4.05,-0.0660887198321447,-0.210587082349141
4.06,-0.0758094857941205,-0.211566970442704
4.07,-0.0859774793812453,-0.21198437641899
4.08,-0.09652166234469,-0.211714096010306
4.09,-0.107339258533384,-0.210648788521338
4.1,-0.118300909965942,-0.208706671751563
4.11,-0.129257671277321,-0.205837771455497
4.12,-0.140049458255232,-0.202028279335856
4.13,-0.150514449995821,-0.197302670383475
4.14,-0.160498854451256,-0.191723363558951
4.15,-0.16986639051963,-0.185387863311459
4.16,-0.178506828703856,-0.178423497529728
4.17,-0.186342968111166,-0.170980042380199
4.18,-0.193335516670341,-0.163220694058165
4.19,-0.199485476179497,-0.155311984942953
4.2,-0.204833809043932,-0.147413341694941
4.21,-0.209458360518943,-0.139667027445096
4.22,-0.2134682203976,-0.132189198903195
4.23,-0.216995902875053,-0.125062734228256
4.24,-0.220187895602778,-0.118332362425945
4.25,-0.223194255069616,-0.112002450903283
4.26,-0.226157996303649,-0.106037608545211
4.27,-0.2292050392429,-0.100366048634817
4.28,-0.232435422312717,-0.0948854503141069
4.29,-0.235916391110289,-0.0894708762071088
4.3,-0.239677821042851,-0.0839841629022786
4.31,-0.243710252195493,-0.0782841073912507
4.32,-0.247965623034666,-0.0722367348336464
4.33,-0.252360597011009,-0.0657249505278066
4.34,-0.256782200723135,-0.0586569432379282
4.35,-0.261095350866298,-0.0509728153713622
4.36,-0.265151734257318,-0.0426490516529099
4.37,-0.268799443705442,-0.0337005913958501
4.38,-0.271892745630107,-0.0241804291464457
4.39,-0.274301373466086,-0.01417682113231
4.4,-0.275918788996221,-0.00380831384258441
4.41,-0.276668931904967,0.00678306909331741
4.42,-0.276511078083696,0.0174400524558639
4.43,-0.275442538385197,0.0279992491802049
4.44,-0.273499051869524,0.0383006738559714
4.45,-0.270752853406947,0.0481970742392453
4.46,-0.267308521859492,0.0575625353472999
4.47,-0.263296832384823,0.0662998436866061
4.48,-0.258866954954483,0.0743461622522374
4.49,-0.254177436438598,0.0816766467348936
4.5,-0.249386490649074,0.0883057441503654
4.51,-0.244642176796838,0.0942860388022946
4.52,-0.240073081062442,0.0997046559661513
4.53,-0.235780105402603,0.104677384882972
4.54,-0.231829930654685,0.109340837026296
4.55,-0.228250631040974,0.113843099112246
4.56,-0.225029797363684,0.118333462853721
4.57,-0.222115367535207,0.122951903211299
4.58,-0.219419181191487,0.127819023144638
4.59,-0.216823080862235,0.133027178172739
4.6,-0.214187190153863,0.138633434741082
4.61,-0.211359827672138,0.144654903586184
4.62,-0.208188375633347,0.151066828041132
4.63,-0.204530335517347,0.157803611051394
4.64,-0.200263769265775,0.164762746812891
4.65,-0.19529636014925,0.171811399818072
4.66,-0.189572420256391,0.178795172269393
4.67,-0.183077323656481,0.185548426551516
4.68,-0.175839039142146,0.191905409356356
4.69,-0.167926656045994,0.197711363935502
4.7,-0.159446029019879,0.202832818585928
4.71,-0.150532881942215,0.207166312162703
4.72,-0.141343902795916,0.21064494338239
4.73,-0.132046498638489,0.213242304816581
4.74,-0.122807970915971,0.214973567040826
4.75,-0.113784891820112,0.215893695856896
4.76,-0.105113426984161,0.216092995299116
4.77,-0.096901258123165,0.215690358750667
4.78,-0.0892216205892743,0.214824760534202
4.79,-0.0821098020108541,0.213645627575433
4.8,-0.0755622614837806,0.212302780823791
4.81,-0.0695383404807258,0.210936640160313
4.82,-0.0639643627516261,0.209669335150673
4.83,-0.0587397667558912,0.208597276515446
4.84,-0.053744798578502,0.207785619940734
4.85,-0.0488492115342128,0.207264909843262
4.86,-0.0439213820689467,0.207030040111519
4.87,-0.0388372499817313,0.207041512120198
4.88,-0.0334885311252678,0.20722883242646
4.89,-0.0277897174149673,0.207495764228948
4.9,-0.0216834769265187,0.207727048696094
4.91,-0.0151441739781137,0.207796137793977
4.92,-0.00817935738008918,0.207573440248202
4.93,-0.00082918729516596,0.206934566194092
4.94,0.0068361048171999,0.205768080269179
4.95,0.0147205159617338,0.20398231247496
4.96,0.0227080290513504,0.201510850414523
4.97,0.0306694498467111,0.1983164224983
4.98,0.0384698922821774,0.194392986012023
4.99,0.0459764602636111,0.189765942877745
5,0.0530656719570763,0.184490516703564
5.01,0.0596302044531256,0.178648430860588
5.02,0.0655845870242492,0.172343118571732
5.03,0.0708695423765615,0.165693772958716
5.04,0.0754547620495868,0.158828601263456
5.05,0.0793399934858041,0.151877678356766
5.06,0.0825544143711973,0.144965806240813
5.07,0.0851543613528255,0.138205771354588
5.08,0.0872195635225812,0.131692362154548
5.09,0.0888481085201608,0.125497458784164
5.1,0.0901504225187369,0.119666447029253
5.11,0.0912425947058376,0.114216138363681
5.12,0.0922394022650984,0.109134302975396
5.13,0.0932474079682128,0.104380843087278
5.14,0.094358499582747,0.099890556557659
5.15,0.095644225844798,0.0955773591501767
5.16,0.097151251032945,0.0913397618773646
5.17,0.098898205802497,0.0870673249225126
5.18,0.100874148595489,0.0826477515053646
5.19,0.103038774416571,0.0779742291555036
5.2,0.105324415936352,0.072952595134349
5.21,0.107639779644026,0.0675078867247731
5.22,0.10987524736628,0.061589850300747
5.23,0.111909467080296,0.0551770234567923
5.24,0.113616854374821,0.0482790773137224
5.25,0.11487554439215,0.0409372045478214
5.26,0.115575276916025,0.0332224649629767
5.27,0.115624681714125,0.0252321402255171
5.28,0.114957446500664,0.0170842958238637
5.29,0.113536917661765,0.00891088632215482
5.3,0.111358783643442,0.00084986031030479
5.31,0.108451627655084,-0.00696319494199515
5.32,0.104875293906484,-0.014403283857659
5.33,0.100717175160352,-0.0213635274379196
5.34,0.0960866882500139,-0.0277614533601209
5.35,0.0911083401338407,-0.033543620704281
5.36,0.0859138863968939,-0.0386882766189083
5.37,0.0806341419538632,-0.043205899121292
5.38,0.0753910129710073,-0.0471376387893453
5.39,0.0702902819653533,-0.0505518247313201
5.4,0.0654155982745779,-0.0535388321066126
5.41,0.0608240207490776,-0.0562047064507833
5.42,0.0565433308565835,-0.0586640009715041
5.43,0.0525712044124669,-0.0610323042285216
5.44,0.0488762069217287,-0.063418920137004
5.45,0.0454004711243058,-0.0659201174031007
5.46,0.0420638298269495,-0.0686132997601382
5.47,0.0387691218789862,-0.0715523729190378
5.48,0.0354083506143013,-0.0747645014744153
5.49,0.0318693602887923,-0.078248377527194
5.5,0.0280426934677285,-0.0819740503733634
5.51,0.0238282985026361,-0.0858843060421024
5.52,0.0191417692034169,-0.0898975315713353
5.53,0.0139198116724514,-0.0939119414254206
5.54,0.0081246548397919,-0.0978109914874783
5.55,0.0017471454724664,-0.101469747518504
5.56,-0.0051916890357659,-0.104761914711704
5.57,-0.0126407732041719,-0.107567175472687
5.58,-0.0205208965000567,-0.109778434460794
5.59,-0.028728394695783,-0.111308530159393
5.6,-0.0371404752348189,-0.112095967031155
5.61,-0.045621938901678,-0.112109240445511
5.62,-0.054032927756989,-0.111349390765673
5.63,-0.0622372252856921,-0.109850518708517
5.64,-0.0701105556909325,-0.107678130548851
5.65,-0.0775482932700255,-0.104925338128904
5.66,-0.0844720043837086,-0.101707108955726
5.67,-0.0908343116726741,-0.0981529249547732
5.68,-0.0966216808592056,-0.0943983508124889
5.69,-0.101854889955605,-0.0905761128737452
5.7,-0.106587118867116,-0.0868073421075884
5.71,-0.110899789436163,-0.0831936279339715
5.72,-0.114896465258156,-0.0798104648768949
5.73,-0.118695271893624,-0.0767025603835627
5.74,-0.122420408334483,-0.0738813170279816
5.75,-0.126193373022747,-0.0713246264137236
5.76,-0.130124533610192,-0.0689789303132252
5.77,-0.134305613258247,-0.0667633380578851
5.78,-0.138803573225731,-0.0645754472530727
5.79,-0.143656245478159,-0.0622984139468013
5.8,-0.148869923364182,-0.0598087619353035
5.81,-0.154418976413991,-0.0569844041879727
5.82,-0.160247419732189,-0.0537123774584111
5.83,-0.166272255824084,-0.0498958431144533
5.84,-0.172388317692807,-0.0454599867618894
5.85,-0.178474281993071,-0.0403565350318569
5.86,-0.184399485755432,-0.0345666985928214
5.87,-0.190031162787233,-0.0281024376087035
5.88,-0.19524171975752,-0.0210060271308645
5.89,-0.199915683612626,-0.0133479731064644
5.9,-0.20395597307551,-0.00522339755626578
5.91,-0.20728917869977,0.00325292348615668
5.92,-0.209869571268071,0.0119526272091048
5.93,-0.211681611492859,0.0207406358743465
5.94,-0.212740792695704,0.0294824826805696
5.95,-0.213092726757123,0.038051699807126
5.96,-0.212810474272368,0.0463368501028524
5.97,-0.211990218586009,0.054247783415597
5.98,-0.210745492842449,0.061720715529404
5.99,-0.209200267923528,0.0687217858172466
6,-0.207481300241719,0.0752488250866195
6.01,-0.205710206635168,0.0813311763894525
6.02,-0.203995768123492,0.0870275344666547
6.03,-0.20242696559338,0.0924219058238766
6.04,-0.201067212385766,0.0976179220623205
6.05,-0.199950174795812,0.102731858289463
6.06,-0.19907746501484,0.107884800197464
6.07,-0.198418365159413,0.113194463818521
6.08,-0.197911604095335,0.118767195043021
6.09,-0.197469069846486,0.124690657963429
6.1,-0.196981217177998,0.131027672772762
6.11,-0.196323823977603,0.137811579667428
6.12,-0.195365672569141,0.145043404511832
6.13,-0.193976686123014,0.152690985476442
6.14,-0.192036030398256,0.160690100903263
6.15,-0.189439706254546,0.168947521555962
6.16,-0.186107193512837,0.177345804666287
6.17,-0.181986764235645,0.185749554611159
6.18,-0.177059159986064,0.194012796868308
6.19,-0.171339411851872,0.201987055759063
6.2,-0.164876681441229,0.209529684025737
6.21,-0.157752100960904,0.216511976213359
6.22,-0.150074699243396,0.222826593777809
6.23,-0.141975605949161,0.228393858557999
6.24,-0.133600830383579,0.233166515012045
6.25,-0.125103004323957,0.237132633277029
6.26,-0.116632558106134,0.240316422660893
6.27,-0.108328856200034,0.242776837149626
6.28,-0.100311845315882,0.244603992583033
6.29,-0.092674763426155,0.245913552353394
6.3,-0.0854784123256971,0.246839382199978
6.31,-0.0787474141544476,0.247524903385387
6.32,-0.0724687538105171,0.248113679403458
6.33,-0.0665927625354287,0.248739846034578
6.34,-0.0610365307089845,0.249519023077216
6.35,-0.0556895689022922,0.250540331486275
6.36,-0.0504213707197771,0.251860076057381
6.37,-0.0450903903428351,0.253497544526536
6.38,-0.0395538431725802,0.255433232026383
6.39,-0.0336776703284905,0.257609629029474
6.4,-0.0273459994976173,0.259934533725808
6.41,-0.0204694646766239,0.262286672463602
6.42,-0.0129918341027251,0.264523253882251
6.43,-0.00489451180406861,0.26648895547185
6.44,0.0038013713540284,0.268025749761421
6.45,0.013035398484819,0.268982930604475
6.46,0.0227107939148782,0.269226700459861
6.47,0.0326996348912335,0.268648715833213
6.48,0.0428500059816185,0.267173069270816
6.49,0.0529946425815643,0.264761287927375
6.5,0.0629605306101916,0.26141505845366
6.51,0.072578878946812,0.257176524762601
6.52,0.0816948727335068,0.252126146500663
6.53,0.0901766278651076,0.246378246935914
6.54,0.0979228192999638,0.240074505235572
6.55,0.104868528583575,0.233375764592363
6.56,0.110988949810286,0.22645262151873
6.57,0.11630071126165,0.219475337348142
6.58,0.120860697720918,0.212603657537319
6.59,0.124762398184156,0.205977146517863
6.6,0.128129946422966,0.199706630513223
6.61,0.1311101646543,0.193867296895324
6.62,0.133863050504518,0.188493917874042
6.63,0.136551260087682,0.18357855410806
6.64,0.139329225530459,0.179070954703933
6.65,0.142332595584033,0.174881702219598
6.66,0.145668694265026,0.170887980370718
6.67,0.149408653221209,0.166941656508633
6.68,0.153581788389157,0.162879208618698
6.69,0.15817265542959,0.158532878108235
6.7,0.163121053380352,0.153742326982898
6.71,0.168325043601152,0.148366016074952
6.72,0.173646844582183,0.142291520845328
6.73,0.178921253166564,0.135444051284716
6.74,0.183966055858863,0.127792559765439
6.75,0.188593740186768,0.119352974014875
6.76,0.192623712375211,0.110188296393029
6.77,0.19589418056899,0.100405527530789
6.78,0.198272878717564,0.0901496022083455
6.79,0.199665883240348,0.0795947377074861
6.8,0.2000239087387,0.0689337811616921
6.81,0.199345646861925,0.058366285146788
6.82,0.197677920964168,0.0480861261207509
6.83,0.195112655403578,0.038269511966552
6.84,0.191780877833006,0.0290641866606133
6.85,0.187844176223194,0.0205805538120552
6.86,0.183484201884566,0.0128852990547471
6.87,0.178890932702946,0.0059979137001301
6.88,0.17425048712124,-0.0001096767397932
6.89,0.169733291848544,-0.00551038736197918
6.9,0.165483374746131,-0.0103163632380607
6.91,0.16160946522107,-0.0146708786588583
6.92,0.158178456521077,-0.0187382972569146
6.93,0.155211625186282,-0.0226927588488521
6.94,0.152683820256214,-0.0267063287404437
6.95,0.150525644125357,-0.0309373680571334
6.96,0.148628461180014,-0.03551986247095
6.97,0.146851892959398,-0.0405543715403889
6.98,0.145033310672363,-0.0461011608455311
6.99,0.142998715336617,-0.0521759320241553
7,0.140574314833038,-0.0587484071501193
7.01,0.137598068997117,-0.0657438417365681
7.02,0.133930477748808,-0.0730473630063922
7.03,0.129463937846947,-0.0805108525990236
7.04,0.124130083152248,-0.0879619374093469
7.05,0.117904650170427,-0.0952145190986514
7.06,0.110809563133333,-0.102080178878557
7.07,0.102912111682846,-0.108379737725959
7.08,0.0943212732361986,-0.113954241426778
7.09,0.0851814139605835,-0.118674676899449
7.1,0.0756637706123742,-0.122449805231044
7.11,0.065956254931643,-0.125231617956828
7.12,0.056252228754611,-0.12701807324298
7.13,0.0467389662113947,-0.127852944844439
7.14,0.0375865335035759,-0.12782280050115
7.15,0.0289377914261516,-0.127051311091818
7.16,0.0209001493691825,-0.125691260971019
7.17,0.0135395845739437,-0.123914775261198
7.18,0.0068772933459038,-0.121902391363997
7.19,0.0008891716583883,-0.11983166854262
7.2,-0.00449186055042697,-0.117866055450744
7.21,-0.00937085280856154,-0.116144712706511
7.22,-0.0138834658606631,-0.114773919933007
7.23,-0.018186735128546,-0.113820594240541
7.24,-0.0224485412613991,-0.113308309034471
7.25,-0.0268364469802475,-0.113216046339251
7.26,-0.0315065927684865,-0.11347974468632
7.27,-0.0365933344803199,-0.113996535256637
7.28,-0.0422002569055305,-0.114631397280298
7.29,-0.048393108551145,-0.115225816069768
7.3,-0.0551950888474021,-0.115607914163998
7.31,-0.0625847716533269,-0.115603434726442
7.32,-0.0704967977362434,-0.115046908403462
7.33,-0.0788252973230895,-0.113792322036984
7.34,-0.0874298446429849,-0.111722635618597
7.35,-0.096143592442804,-0.108757560052448
7.36,-0.104783100041396,-0.104859107092566
7.37,-0.113159263554145,-0.100034554895449
7.38,-0.121088680008023,-0.0943366236603068
7.39,-0.128404747812343,-0.0878608261636459
7.4,-0.134967806304211,-0.0807401296611204
7.41,-0.140673670974743,-0.0731372365155885
7.42,-0.145460010770038,-0.0652349436765812
7.43,-0.149310139148603,-0.0572251694292253
7.44,-0.152253950995405,-0.0492973329344778
7.45,-0.154365915778168,-0.0416268196198159
7.46,-0.155760224663218,-0.0343642771878659
7.47,-0.156583379070904,-0.0276264385773728
7.48,-0.157004676877577,-0.0214890806286793
7.49,-0.15720519802681,-0.0159825953503895
7.5,-0.157365998720545,-0.0110904788324178
7.51,-0.15765627952994,-0.0067508567515762
7.52,-0.158222304821026,-0.00286096241254424
7.53,-0.159177803672748,0.00071571635887632
7.54,-0.160596487176046,0.00414008085248487
7.55,-0.162507179325439,0.0075864687326112
7.56,-0.164891883076887,0.0112308216281906
7.57,-0.167686907937356,0.0152387518753447
7.58,-0.17078698248076,0.0197542905400046
7.59,-0.17405207550294,0.0248900514784475
7.6,-0.177316472569123,0.0307194506795267
7.61,-0.180399508927552,0.037271479307536
7.62,-0.183117255520573,0.0445283586787934
7.63,-0.185294394904328,0.0524262158797875
7.64,-0.186775524260671,0.0608587195551477
7.65,-0.187435159013487,0.0696834265495533
7.66,-0.187185807144065,0.0787304178672372
