"Freq [GHz]","re(S(Antenna1_1_1,Antenna1_1_1)) []","im(S(Antenna1_1_1,Antenna1_1_1)) []"
3,-0.243673706069233,-0.185171808532529
3.01,-0.249427792779018,-0.174344942928717
3.02,-0.254693567088938,-0.163297103932662
3.03,-0.259455731794436,-0.152045773996512
3.04,-0.26369806683861,-0.140611986517812
3.05,-0.26740505044819,-0.129021042561738
3.06,-0.270563730822841,-0.117302387096568
3.07,-0.27316541712878,-0.105488599604315
3.08,-0.275206780503456,-0.0936136664664896
3.09,-0.276690077333486,-0.0817108818229494
3.1,-0.277622401685006,-0.069810826085
3.11,-0.278014096876352,-0.0579398698763422
3.12,-0.277876654878687,-0.0461195436818656
3.13,-0.277220559315793,-0.0343669226341041
3.14,-0.276053549993593,-0.0226959449477813
3.15,-0.274379697563871,-0.0111193654155581
3.16,-0.2721994933716,0.000349105813438926
3.17,-0.269510924064453,0.0116929766322344
3.18,-0.266311267545358,0.0228918862996955
3.19,-0.26259917240491,0.0339215130203189
3.2,-0.258376510150511,0.0447544920229933
3.21,-0.25364953881197,0.0553621128378837
3.22,-0.248429079164355,0.0657163673201799
3.23,-0.242729645265552,0.0757918216185501
3.24,-0.236567733384553,0.0855668132245301
3.25,-0.229959695440763,0.0950236257253123
3.26,-0.222919749312698,0.104147536776508
3.27,-0.215458675010054,0.112924914494231
3.28,-0.207583608235964,0.121340787382755
3.29,-0.199299098744721,0.129376473212709
3.3,-0.190609303412688,0.137007879609438
3.31,-0.181520902015496,0.1442049725525
3.32,-0.172046123312278,0.150932668906952
3.33,-0.1622052016265,0.157153097141947
3.34,-0.152027669774734,0.162828855568426
3.35,-0.141552119702388,0.167926652818119
3.36,-0.130824381022498,0.172420598882073
3.37,-0.119894409739102,0.176294458778097
3.38,-0.108812468852521,0.179542378789635
3.39,-0.0976253516591972,0.182167908019656
3.4,-0.086373406834448,0.184181497805273
3.41,-0.0750889661169757,0.185596989080282
3.42,-0.063796482789111,0.186427819141488
3.43,-0.0525143251369211,0.186683743784756
3.44,-0.0412578137574597,0.186368761440024
3.45,-0.0300428239359391,0.185480665883958
3.46,-0.0188891545095094,0.184012299243448
3.47,-0.00782292005197483,0.181954206366407
3.48,0.00312255777214029,0.179298086695781
3.49,0.0139075499967863,0.176040269133895
3.5,0.0244882269673849,0.172184436387266
3.51,0.0348199553067697,0.167742997394718
3.52,0.0448608534741147,0.162736811058943
3.53,0.0545748222054621,0.157193332663026
3.54,0.0639333884451224,0.151143604138356
3.55,0.0729159696639341,0.144618763148855
3.56,0.0815085181836123,0.137646847894587
3.57,0.0897008637750363,0.130250604081731
3.58,0.0974833574497154,0.122446774852523
3.59,0.104843568424627,0.114247025938996
3.6,0.111763768541497,0.10566030070121
3.61,0.118219760977108,0.0966960925505083
3.62,0.124181315220923,0.0873679317792882
3.63,0.129614124754992,0.0776963495913439
3.64,0.134482885467533,0.0677107072302577
3.65,0.138754869808884,0.0574495312855261
3.66,0.142403290516343,0.0469593171966101
3.67,0.145409820886077,0.0362920799689351
3.68,0.14776584445639,0.0255021734561222
3.69,0.14947229437381,0.0146430175982624
3.7,0.15053824456331,0.00376434567364044
3.71,0.150978662559301,-0.00708957633290161
3.72,0.150811874419502,-0.0178805560157425
3.73,0.150057298624039,-0.0285759826476908
3.74,0.148733883529468,-0.0391475544937874
3.75,0.146859466392125,-0.0495696921154835
3.76,0.144451017418654,-0.0598181306790477
3.77,0.141525502175307,-0.0698690863199725
3.78,0.138100945615515,-0.0796991978231125
3.79,0.134197245386078,-0.089286206141401
3.8,0.129836367794779,-0.0986101105507187
3.81,0.125041743329552,-0.107654388576983
3.82,0.119836913944753,-0.116406823875457
3.83,0.114243712416507,-0.124859564481797
3.84,0.108280417635862,-0.133008215242191
3.85,0.101960387222455,-0.140850009706827
3.86,0.0952916029967218,-0.148381351274839
3.87,0.088277387930726,-0.155595201935097
3.88,0.080918303433161,-0.162478882885544
3.89,0.0732149694524352,-0.169012811073857
3.9,0.0651713267609531,-0.175170535250137
3.91,0.0567977334056675,-0.180920185932755
3.92,0.0481132855042149,-0.186227170262786
3.93,0.0391468799549048,-0.191057685042042
3.94,0.0299367674617979,-0.195382446417707
3.95,0.0205286301470441,-0.199179979970575
3.96,0.010972499370717,-0.20243889306645
3.97,0.0013190463484768,-0.205158745266769
3.98,-0.0083841133212986,-0.207349400977724
3.99,-0.0180954811093737,-0.209029034546513
4,-0.0277816266464912,-0.210221202225624
4.01,-0.0374177852922862,-0.210951547785035
4.02,-0.0469871301939333,-0.211244740817399
4.03,-0.0564789984207441,-0.211122156646706
4.04,-0.0658865301070381,-0.210600617834843
4.05,-0.0752042526358447,-0.209692274847841
4.06,-0.0844260977006205,-0.208405461284904
4.07,-0.0935441938308453,-0.20674616975919
4.08,-0.10254856718609,-0.204719697007406
4.09,-0.111427659142584,-0.202332017035338
4.1,-0.120169381889142,-0.199590552342963
4.11,-0.128762322936831,-0.196504194055097
4.12,-0.137196698513632,-0.193082628531656
4.13,-0.145464742638821,-0.189335210735175
4.14,-0.153560378841956,-0.185269741908171
4.15,-0.16147821597723,-0.180891535452159
4.16,-0.169212090515356,-0.176203086041028
4.17,-0.176753503880566,-0.171204511592499
4.18,-0.184090345023441,-0.165894750829865
4.19,-0.191206237576497,-0.160273315279453
4.2,-0.198080720041732,-0.154342256343841
4.21,-0.204690287570643,-0.148107946719796
4.22,-0.2110101366007,-0.141582304766395
4.23,-0.217016301706853,-0.134783202234956
4.24,-0.222687790900978,-0.127733964237945
4.25,-0.228008329402816,-0.120462056745383
4.26,-0.232967409904049,-0.112997218977771
4.27,-0.2375604979134,-0.105369400714317
4.28,-0.241788419502817,-0.0976068856983069
4.29,-0.245656123983789,-0.0897349200073088
4.3,-0.249171129629251,-0.0817750345737786
4.31,-0.252342001636793,-0.0737450856144507
4.32,-0.255177170927486,-0.0656598746690464
4.33,-0.257684292000809,-0.0575320882315066
4.34,-0.259870186042235,-0.0493732433350282
4.35,-0.261741257803098,-0.0411943509668622
4.36,-0.263304150523818,-0.0330061057407099
4.37,-0.264566340661442,-0.0248185548759501
4.38,-0.265536389344807,-0.0166403558944457
4.39,-0.266223656386486,-0.00847786362703004
4.4,-0.266637425412221,-0.000334360372984412
4.41,-0.266785551703867,0.00779026033371741
4.42,-0.266672889454896,0.0158991269858639
4.43,-0.266299848178697,0.0239972539275049
4.44,-0.265661444871124,0.0320897231553714
4.45,-0.264747153112817,0.0401794377122453
4.46,-0.263541713648492,0.0482648223285999
4.47,-0.262026890473823,0.0563378968134061
4.48,-0.260183968985883,0.0643831113019374
4.49,-0.257996637210798,0.0723772170532936
4.5,-0.255453800161074,0.0802902718677754
4.51,-0.252551870075238,0.0880876815430946
4.52,-0.249296153718142,0.0957329955895513
4.53,-0.245701106798803,0.103191043716072
4.54,-0.241789415299685,0.110430943033796
4.55,-0.237590057256874,0.117428535410246
4.56,-0.233135659312554,0.124167920617721
4.57,-0.228459561109507,0.130641912115299
4.58,-0.223593021545887,0.136851425004538
4.59,-0.218562944176635,0.142803974610539
4.6,-0.213390380928013,0.148511588165982
4.61,-0.208089920062738,0.153988490960984
4.62,-0.202669908941347,0.159248916528632
4.63,-0.197133334717847,0.164305316337794
4.64,-0.191479109001775,0.169167129835691
4.65,-0.18570348579355,0.173840147502672
4.66,-0.179801382202991,0.178326386776893
4.67,-0.173767452316961,0.182624325276016
4.68,-0.167596863481546,0.186729310076356
4.69,-0.161285815434494,0.190633985567802
4.7,-0.154831904182879,0.194328643826928
4.71,-0.148234452775115,0.197801480623903
4.72,-0.141494906923016,0.20103881392149
4.73,-0.134617335528989,0.204025370079791
4.74,-0.127609001430571,0.206744752136726
4.75,-0.120480898543512,0.209180172491796
4.76,-0.113248107338561,0.211315466636616
4.77,-0.105929815706365,0.213136321852267
4.78,-0.0985488901179743,0.214631576715002
4.79,-0.0911309567932541,0.215794393953133
4.8,-0.0837030474437806,0.216623096596691
4.81,-0.0762919590500258,0.217121491014613
4.82,-0.0689225487923261,0.217298576035373
4.83,-0.0616162172616912,0.217167640670846
4.84,-0.054389815391902,0.216744862387034
4.85,-0.0472551453659128,0.216047610879919
4.86,-0.0402191250869467,0.215092718011419
4.87,-0.0332845690494313,0.213894981379798
4.88,-0.0264514303414678,0.21246612354406
4.89,-0.0197182704217673,0.210814341013148
4.9,-0.0130836916789187,0.208944463706294
4.91,-0.00654748915936369,0.206858630843177
4.92,-0.000111347180389179,0.204557295709802
4.93,0.00622099111833404,0.202040319666192
4.94,0.0124440387843999,0.199307914575579
4.95,0.0185512210926338,0.19636124255116
4.96,0.0245356612796504,0.193202571348223
4.97,0.0303908653269111,0.1898349932641
4.98,0.0361111073200774,0.186261820963263
4.99,0.0416913937496111,0.182485853448445
5,0.0471269898286763,0.178508740535264
5.01,0.0524126006966256,0.174330658475888
5.02,0.0575413916983492,0.169950444520332
5.03,0.0625040845991615,0.165366238288416
5.04,0.0672883685812768,0.160576563600956
5.05,0.0718788151753341,0.155581679712966
5.06,0.0762573937514973,0.150384958521513
5.07,0.0804045679470255,0.144994019393288
5.08,0.0843008361962812,0.139421382370948
5.09,0.0879284858470608,0.133684478666264
5.1,0.0912732791674369,0.127804968987633
5.11,0.0943257912565376,0.121807444340281
5.12,0.0970821752099984,0.115717695405896
5.13,0.0995442273991128,0.109560813892378
5.14,0.101718746537047,0.103359417256659
5.15,0.103616300984998,0.0971322622551767
5.16,0.105249615281681,0.0908934381594646
5.17,0.106631841923197,0.0846522234900126
5.18,0.107774987351689,0.0784135717652646
5.19,0.108688714079671,0.0721790861538036
5.2,0.109379654265852,0.065948270330149
5.21,0.109851263562726,0.0597198164937731
5.22,0.11010414013718,0.0534927144238647
5.23,0.110136653947896,0.0472670309757923
5.24,0.109945691494021,0.0410443006818224
5.25,0.10952732827405,0.0348275646541214
5.26,0.108877290863625,0.0286211742350767
5.27,0.107991150510925,0.0224305209997171
5.28,0.106864279780444,0.0162618551657637
5.29,0.105491681939065,0.0101223119447548
5.3,0.103867849642042,0.00402018987580479
5.31,0.101986813631484,-0.00203456446969515
5.32,0.0998425009257842,-0.00802979268695895
5.33,0.0974294445043516,-0.0139506619382196
5.34,0.0947437895515139,-0.0197794934261109
5.35,0.0917844482923207,-0.025496032911181
5.36,0.0885541882846939,-0.0310782331720083
5.37,0.0850604162874632,-0.036503511093492
5.38,0.0813154494434073,-0.0417503317398453
5.39,0.0773361446243533,-0.0467998833940201
5.4,0.0731428713976369,-0.0516375623120126
5.41,0.0687579407495776,-0.0562539964261833
5.42,0.0642037139704835,-0.0606454045322041
5.43,0.0595006894923669,-0.0648132003634216
5.44,0.0546658819569287,-0.068762887069804
5.45,0.0497117624301058,-0.0725024198401007
5.46,0.0446459284884495,-0.0760403147669282
5.47,0.0394715376417862,-0.0793838283966378
5.48,0.0341883943601013,-0.0825375148284153
5.49,0.0287944605304923,-0.085502387488994
5.5,0.0232874858962285,-0.0882757880525634
5.51,0.0176664457732361,-0.0908519207855024
5.52,0.0119325293994669,-0.0932228782296353
5.53,0.00608953155645144,-0.0953798920779206
5.54,0.0001436388122919,-0.0973145109754883
5.55,-0.0058972614720336,-0.0990194423924035
5.56,-0.0120245165734659,-0.100488889487304
5.57,-0.0182296071061719,-0.101718345503587
5.58,-0.0245047463970567,-0.102703946895104
5.59,-0.030843000021583,-0.103441599781893
5.6,-0.0372378712239189,-0.103926156355155
5.61,-0.043682439603778,-0.104150912173511
5.62,-0.050168263809289,-0.104107622866073
5.63,-0.0566843345610921,-0.103787114870717
5.64,-0.0632163726074325,-0.103180417840351
5.65,-0.0697467034040975,-0.102280210092804
5.66,-0.0762548189690086,-0.101082276078926
5.67,-0.0827185839079741,-0.0995866489962732
5.68,-0.0891158918857056,-0.0977981609825889
5.69,-0.095426466217005,-0.0957262389281452
5.7,-0.101633450635716,-0.0933839410019884
5.71,-0.107724466943163,-0.0907863929623015
5.72,-0.113691920265156,-0.0879489166402949
5.73,-0.119532488110524,-0.0848852144428627
5.74,-0.125245902168883,-0.0816059658598816
5.75,-0.130833282756847,-0.0781181043674236
5.76,-0.136295380249682,-0.0744248953028252
5.77,-0.141631093146787,-0.0705267591170851
5.78,-0.146836564245531,-0.0664226207115727
5.79,-0.151905019407559,-0.0621114517738013
5.8,-0.156827338126982,-0.0575936362069035
5.81,-0.161593172875091,-0.0528718383960727
5.82,-0.166192304210989,-0.0479511795129111
5.83,-0.170615863319484,-0.0428386998748833
5.84,-0.174857086221407,-0.0375422652114494
5.85,-0.178911379003871,-0.0320692191787769
5.86,-0.182775644891032,-0.0264251580909214
5.87,-0.186447012370433,-0.0206131874102035
5.88,-0.18992126433562,-0.0146339149277645
5.89,-0.193191362393726,-0.00848626444776444
5.9,-0.19624646328971,-0.00216899527946578
5.91,-0.19907173256457,0.00431736731945668
5.92,-0.201649092149471,0.0109686046052048
5.93,-0.203958830433859,0.0177753211930465
5.94,-0.205981802233804,0.0247222750959696
5.95,-0.207701798494623,0.031788729725126
5.96,-0.209107606801568,0.0389498233903924
5.97,-0.210194329660709,0.046178732309597
5.98,-0.210963670282049,0.053449225978804
5.99,-0.211423105698028,0.0607381204832466
6,-0.211584098645319,0.0680271474272195
6.01,-0.211459702087118,0.0753038731462525
6.02,-0.211062037980692,0.0825615000665547
6.03,-0.21040015645518,0.0897976166216766
6.04,-0.209478696399066,0.0970121825065205
6.05,-0.208297592548712,0.104205193734463
6.06,-0.20685284564464,0.111374531990964
6.07,-0.205138142204613,0.118514451916561
6.08,-0.203146929586135,0.125615010014721
6.09,-0.200874460181486,0.132662523300929
6.1,-0.198319336123798,0.139640913169362
6.11,-0.195484207751803,0.146533591862228
6.12,-0.192375477903941,0.153325429889632
6.13,-0.189002094727414,0.160004328324042
6.14,-0.185373726309456,0.166562013571463
6.15,-0.181498754159926,0.172993851501362
6.16,-0.177382567434497,0.179297703154587
6.17,-0.173026576191445,0.185472064522659
6.18,-0.168428204678764,0.191513899211808
6.19,-0.163581909692172,0.197416648831563
6.2,-0.158481042805429,0.203168874721037
6.21,-0.153120188142404,0.208753854280969
6.22,-0.147497500263996,0.214150254389339
6.23,-0.141616562368961,0.219333777840799
6.24,-0.135487382839779,0.224279475698545
6.25,-0.129126325962357,0.228964282177629
6.26,-0.122554991047434,0.233369287677193
6.27,-0.115798265176874,0.237481326234026
6.28,-0.108881934311782,0.241293601317533
6.29,-0.101830312278455,0.244805274026794
6.3,-0.0946643243695971,0.248020146989278
6.31,-0.0874003698055476,0.250944750225887
6.32,-0.0800501126973171,0.253586236773898
6.33,-0.0726211540416287,0.255950507053898
6.34,-0.0651183609840845,0.258040903486216
6.35,-0.0575455112518922,0.259857671268475
6.36,-0.0499068730311771,0.261398202899581
6.37,-0.0422083878691351,0.262657912915836
6.38,-0.0344582418663802,0.263631463355483
6.39,-0.0266667683984585,0.264314005027474
6.4,-0.0188457871112073,0.264702123775008
6.41,-0.0110076114339239,0.264794275395302
6.42,-0.00316402366732512,0.264590632740951
6.43,0.00467449048933139,0.26409242024205
6.44,0.0124990325551284,0.263300938488721
6.45,0.020302017124719,0.262216556586645
6.46,0.0280763871238782,0.26083795669332
6.47,0.0358145012156335,0.259161853503113
6.48,0.0435069596720185,0.257183297989316
6.49,0.0511416555117643,0.254896536040875
6.5,0.0587032910732916,0.25229626170806
6.51,0.066173498709022,0.249379010963401
6.52,0.0735315717193868,0.246144406309363
6.53,0.0807556781776076,0.242595992013714
6.54,0.0878243266043638,0.238741486820872
6.55,0.0947178004666752,0.234592405089163
6.56,0.101419289328286,0.23016312995613
6.57,0.10791551414175,0.225469634207892
6.58,0.114196756170318,0.220528111061059
6.59,0.120256327345756,0.215353785008263
6.6,0.126089635853466,0.209960121500123
6.61,0.1316930790246,0.204358556918624
6.62,0.137063019699418,0.198558749536142
6.63,0.142195068395682,0.19256923572466
6.64,0.147083810764429,0.186398289556833
6.65,0.151723008171923,0.180054746431498
6.66,0.156106184056626,0.173548570195918
6.67,0.160227416782709,0.166891012469033
6.68,0.164082110833057,0.160094316558598
6.69,0.16766752320509,0.153171031745735
6.7,0.170982878729152,0.146133101913598
6.71,0.174029003729052,0.138990952685252
6.72,0.176807520068383,0.131752811005398
6.73,0.179319746343364,0.124424447664216
6.74,0.181565526394563,0.117009447295939
6.75,0.183542232044168,0.109509999769775
6.76,0.185244160851511,0.101928096577529
6.77,0.18666247725701,0.094266928552189
6.78,0.187785741938874,0.0865322356046455
6.79,0.188600961897448,0.0787333639699861
6.8,0.1890949960194,0.0708838397459921
6.81,0.189256086964525,0.063001357261188
6.82,0.189075272667668,0.0551071875034509
6.83,0.188547460682778,0.047225113620402
6.84,0.187672018541006,0.0393800765946133
6.85,0.186452826185594,0.0315967511225552
6.86,0.184897833000666,0.0238982641494471
6.87,0.183018241547146,0.0163052210619301
6.88,0.18082748794904,0.0088351305632068
6.89,0.178340197757524,0.00150223568502082
6.9,0.175571267785831,-0.00568231515006074
6.91,0.17253516861807,-0.0127100720684583
6.92,0.169245494880777,-0.0195747935532146
6.93,0.165714728029282,-0.0262719750865521
6.94,0.161954133860214,-0.0327984660358437
6.95,0.157973703550657,-0.0391521885399034
6.96,0.153782064008714,-0.04533191999685
6.97,0.149386323986798,-0.0513370666032889
6.98,0.144791874951063,-0.0571673486675311
6.99,0.140002214257817,-0.0628223407480553
7,0.135018888871638,-0.0683008560802193
7.01,0.129841660433857,-0.0736002225758681
7.02,0.124468964329108,-0.0787155525427922
7.03,0.118898681072347,-0.0836391441582236
7.04,0.113129169495248,-0.0883601591989469
7.05,0.107160443532427,-0.0928646938154514
7.06,0.100995324222833,-0.0971363008686167
7.07,0.0946403789256463,-0.101156944059539
7.08,0.0881064771520986,-0.104908282198978
7.09,0.0814088459389835,-0.108373113501349
7.1,0.0745665877253742,-0.111536770221744
7.11,0.067601714963943,-0.114388252877728
7.12,0.060537839934321,-0.11692093215398
7.13,0.0533987183916547,-0.119132718631139
7.14,0.0462068690116759,-0.12102569196355
7.15,0.0389824726280516,-0.122605273793418
7.16,0.0317426990589825,-0.123879104240419
7.17,0.0245015268964437,-0.124855825407798
7.18,0.0172700293913038,-0.125543978730787
7.19,0.0100570164897883,-0.12595118629985
7.2,0.00286986546037303,-0.126083718126244
7.21,-0.00428464835546154,-0.125946462394011
7.22,-0.0113996905307631,-0.125543232095407
7.23,-0.018467993086816,-0.124877276634641
7.24,-0.0254818083171991,-0.123951833769971
7.25,-0.0324331524005475,-0.122770561825951
7.26,-0.0393142321157365,-0.12133773219242
7.27,-0.0461179067419199,-0.119658127976437
7.28,-0.0528380307951305,-0.117736671324698
7.29,-0.059469552724545,-0.115577871981368
7.3,-0.0660083028097021,-0.113185238431098
7.31,-0.0724504770389269,-0.110560809173302
7.32,-0.0787918969002434,-0.107704942899572
7.33,-0.0850271811579895,-0.104616456195184
7.34,-0.0911489938488849,-0.101293127399997
7.35,-0.097147526033504,-0.0977325100581476
7.36,-0.103010329921496,-0.0939329349656664
7.37,-0.108722560531145,-0.0898945395225487
7.38,-0.114267605983683,-0.0856201545573068
7.39,-0.119628017865643,-0.0811159035128459
7.4,-0.124786601807611,-0.0763914204499204
7.41,-0.129727505083443,-0.0714596610265885
7.42,-0.134437146466438,-0.0663363498518812
7.43,-0.138904869788103,-0.0610391647016953
7.44,-0.143123258601305,-0.0555867923886278
7.45,-0.147088111792068,-0.0499979968957159
7.46,-0.150798135910818,-0.0442908192284659
7.47,-0.154254448407704,-0.0384819863263728
7.48,-0.157460000152177,-0.0325865548121793
7.49,-0.1604190147277,-0.0266177660956895
7.5,-0.163136511335925,-0.0205870534273178
7.51,-0.16561793620504,-0.0145041264418762
7.52,-0.167868886397526,-0.00837706596744424
7.53,-0.169894879605748,-0.00221238805762368
7.54,-0.171701111994446,0.00398492661818487
7.55,-0.173292156070539,0.0102114049204112
7.56,-0.174671578699887,0.0164649948529306
7.57,-0.175841498981856,0.0227448524443447
7.58,-0.17680214590956,0.0290509471972046
7.59,-0.17755150544854,0.0353834649993475
7.6,-0.178085157588123,0.0417420342463267
7.61,-0.178396390664412,0.048124850173036
7.62,-0.178476644043123,0.0545278127488934
7.63,-0.178316276599628,0.0609438147950875
7.64,-0.177905598437871,0.0673623120250477
7.65,-0.177236048181287,0.0737692753955533
7.66,-0.176301360909065,0.0801475719513372
