"Freq [GHz]","re(S(Antenna1_1_1,Antenna1_1_1)) []","im(S(Antenna1_1_1,Antenna1_1_1)) []"
3,-0.243657071562813,-0.183736616764029
3.01,-0.249043742392618,-0.172999519973217
3.02,-0.253988602447738,-0.162130089944962
3.03,-0.258496257787236,-0.151128013852912
3.04,-0.26256455935391,-0.139992339670712
3.05,-0.26618529507139,-0.128723906896998
3.06,-0.269345606091041,-0.117327241051458
3.07,-0.27202985751928,-0.105811726037815
3.08,-0.274221658526856,-0.0941919827892896
3.09,-0.275905734495586,-0.0824874979863494
3.1,-0.277069401592446,-0.0707216472293
3.11,-0.277703472726672,-0.0589203310531422
3.12,-0.277802520766187,-0.0471104810063656
3.13,-0.277364526315083,-0.0353186935773041
3.14,-0.276390030114493,-0.0235702141551813
3.15,-0.274880980913171,-0.0118884272534581
3.16,-0.2728395117014,-0.000294923607801074
3.17,-0.270266883788953,0.0111898794452244
3.18,-0.267162810935458,0.0225456770069755
3.19,-0.26352531724291,0.0337509608105189
3.2,-0.259351201701411,0.0447816810522933
3.21,-0.25463708897547,0.0556101325095437
3.22,-0.249380952995955,0.0662042907895799
3.23,-0.243583919345452,0.0765277707287501
3.24,-0.237252095458833,0.0865404980252301
3.25,-0.230398153253273,0.0962000867321123
3.26,-0.223042401182698,0.105463812534408
3.27,-0.215213132894234,0.114290976504631
3.28,-0.206946122641764,0.122645382034755
3.29,-0.198283244339521,0.130497607530809
3.3,-0.189270308879288,0.137826758785978
3.31,-0.179954327584996,0.14462142916149
3.32,-0.170380503036278,0.150879679891852
3.33,-0.160589307432,0.156607968980947
3.34,-0.150614023430034,0.161819090188626
3.35,-0.140479087289188,0.166529317983219
3.36,-0.130199491397998,0.170755070594373
3.37,-0.119781381138102,0.174509484649097
3.38,-0.109223833437231,0.177799328653335
3.39,-0.0985216515484972,0.180622660419556
3.4,-0.087668871560648,0.182967556884673
3.41,-0.0766625722767757,0.184812120508392
3.42,-0.065506526619111,0.186125810529188
3.43,-0.0542142383613211,0.186871979669786
3.44,-0.0428109751495597,0.187011340666524
3.45,-0.0313345286711391,0.186505963539058
3.46,-0.0198345906878894,0.185323332767448
3.47,-0.00837080758893483,0.183439983029807
3.48,0.00299025734337029,0.180844286229581
3.49,0.0141788894345763,0.177538072877095
3.5,0.0251262659882349,0.173536922770166
3.51,0.0357683037836697,0.168869131151718
3.52,0.0460488770781147,0.163573522744443
3.53,0.0559220697602621,0.157696424107226
3.54,0.0653532641609224,0.151288195270556
3.55,0.0743190277619341,0.144399753714355
3.56,0.0828059150037123,0.137079495023617
3.57,0.0908084304960363,0.129370932086751
3.58,0.0983264864011154,0.121311254039223
3.59,0.105362719380227,0.112930866902096
3.6,0.111920010621397,0.10425384314061
3.61,0.117999484332208,0.0952990962087083
3.62,0.123599159522262,0.0860820245620882
3.63,0.128713316271692,0.0766163438992439
3.64,0.133332530712733,0.0669158469468577
3.65,0.137444248980484,0.0569958867200461
3.66,0.141033721096443,0.0468744591864101
3.67,0.144085104763677,0.0365728463035951
3.68,0.14658257288879,0.0261158550844222
3.69,0.14851130758451,0.0155317393794624
3.7,0.14985832329841,0.00485191232014044
3.71,0.150613117759621,-0.00588945147430161
3.72,0.150768189292702,-0.0166558565186425
3.73,0.150319474469302,-0.0274089459849908
3.74,0.149266749694868,-0.0381089978515874
3.75,0.147614009064325,-0.0487155028093835
3.76,0.145369788517254,-0.0591878734484477
3.77,0.142547366697407,-0.0694863133231825
3.78,0.139164748119115,-0.0795728314811825
3.79,0.135244335129278,-0.089412333210491
3.8,0.130812225354879,-0.0989736646428187
3.81,0.125897128537752,-0.108230452132383
3.82,0.120528971730153,-0.117161569509557
3.83,0.114737339307257,-0.125751094948097
3.84,0.108549957780982,-0.133987683592191
3.85,0.101991467852415,-0.141863375002027
3.86,0.0950827162278618,-0.149371960053539
3.87,0.087840743001666,-0.156507131171797
3.88,0.080279541006791,-0.163260711407244
3.89,0.0724115359831722,-0.169621284538957
3.9,0.0642496003801031,-0.175573518984737
3.91,0.0558092946482675,-0.181098391677345
3.92,0.0471109513969149,-0.186174383203686
3.93,0.0381811989302048,-0.190779552111742
3.94,0.0290535713705979,-0.194894230453807
3.95,0.0197679708594441,-0.198503943879475
3.96,0.010368918807002,-0.2016020751887
3.97,0.0009027336295768,-0.204191780039569
3.98,-0.0085860311888986,-0.206286736152024
3.99,-0.0180583955212737,-0.207910457899613
4,-0.0274844231846912,-0.209094117274824
4.01,-0.0368457677527862,-0.209873049818135
4.02,-0.0461367998253033,-0.210282352697689
4.03,-0.0553640035552441,-0.210352163041706
4.04,-0.0645435752443381,-0.210103305105643
4.05,-0.0736974311481447,-0.209543993053441
4.06,-0.0828480920691205,-0.208668165740004
4.07,-0.0920131161772453,-0.20745582235628
4.08,-0.10119986470469,-0.205875450357706
4.09,-0.110401382829384,-0.203888329870038
4.1,-0.119594057540242,-0.201454208575563
4.11,-0.128737486918931,-0.198537613381497
4.12,-0.137776693145902,-0.195113938031856
4.13,-0.146646477816021,-0.191174441819475
4.14,-0.155277402454256,-0.186729419487951
4.15,-0.16360262832063,-0.181809039135459
4.16,-0.171564706483856,-0.176461662853328
4.17,-0.179121395691166,-0.170749815595937
4.18,-0.186249705734341,-0.164744301811865
4.19,-0.192947602038497,-0.158517234117953
4.2,-0.199233128781932,-0.152134896823941
4.21,-0.205141065493443,-0.145651392086096
4.22,-0.21071757415639,-0.139103907026195
4.23,-0.216013568453153,-0.132510209878256
4.24,-0.221077705755378,-0.125868668523945
4.25,-0.225949940001616,-0.119160730902283
4.26,-0.230656476997649,-0.112355467770711
4.27,-0.2352067583899,-0.105415501704517
4.28,-0.239592800218717,-0.0983034732982069
4.29,-0.243790872309289,-0.0909881482989088
4.3,-0.247765177067151,-0.0834493530472786
4.31,-0.251472917292993,-0.0756811236392507
4.32,-0.254869972026566,-0.0676927351916464
4.33,-0.257916348399909,-0.0595075972548066
4.34,-0.260580650424035,-0.0511603111349282
4.35,-0.262842988710998,-0.0426924390745622
4.36,-0.264696015748918,-0.0341476976238099
4.37,-0.266144070054442,-0.0255673363355501
4.38,-0.267200701443607,-0.0169863948927457
4.39,-0.267885086304086,-0.00843136016551004
4.4,-0.268217991262321,8.0500794215588E-05
4.41,-0.268217985823667,0.00854013592811741
4.42,-0.267898535853196,0.0169443065351639
4.43,-0.267266442781597,0.0252922840688049
4.44,-0.266321856717624,0.0335822770410714
4.45,-0.265059822396047,0.0418082531571453
4.46,-0.263473057525492,0.0499577481422999
4.47,-0.261555453360373,0.0580110842268061
4.48,-0.259305659771183,0.0659421855123374
4.49,-0.256730090954398,0.0737209094131936
4.5,-0.253844767419474,0.0813165559717654
4.51,-0.250675583527138,0.0887020080796946
4.52,-0.247256832859442,0.0958578292032513
4.53,-0.243628097568603,0.102775620021672
4.54,-0.239829875893685,0.109460018379536
4.55,-0.235898539557974,0.115928906549846
4.56,-0.231861349463684,0.122211641803421
4.57,-0.227732290667207,0.128345415893299
4.58,-0.223509408390587,0.134370133032638
4.59,-0.219174145147335,0.140322435384739
4.6,-0.214692917559413,0.146229661421082
4.61,-0.210020866446938,0.152104573428184
4.62,-0.205107405550347,0.157941624233132
4.63,-0.199902929174347,0.163715357101194
4.64,-0.194365851807775,0.169381267658391
4.65,-0.18846907538225,0.174879137786372
4.66,-0.182205022044391,0.180138522296293
4.67,-0.175588531631481,0.185085773182516
4.68,-0.168657182487146,0.189651767324356
4.69,-0.161468917712294,0.193779390313502
4.7,-0.154097205282979,0.197429841073928
4.71,-0.146624279551715,0.200586956939703
4.72,-0.139133264215316,0.20325900230039
4.73,-0.131700123963489,0.205477680215581
4.74,-0.124386417574971,0.207294477450726
4.75,-0.117233721776112,0.208774787580906
4.76,-0.110260381102161,0.209990532347016
4.77,-0.103460940530165,0.211012180707667
4.78,-0.0968082782232743,0.211901124500502
4.79,-0.0902581199219541,0.212703304476433
4.8,-0.0837553310581806,0.213444800940791
4.81,-0.0772411822360258,0.214129836908313
4.82,-0.0706606956856261,0.214741326901673
4.83,-0.0639692097728912,0.215243784945446
4.84,-0.057137438738502,0.215588124537434
4.85,-0.0501545314275128,0.215717677731062
4.86,-0.0430289097639467,0.215574653474219
4.87,-0.0357869562527313,0.215106256222298
4.88,-0.0284698784072678,0.21426978838546
4.89,-0.0211292745759673,0.213036242003948
4.9,-0.0138220366072187,0.211392117803094
4.91,-0.00660524270555369,0.209339453580477
4.92,0.000468376600210821,0.206894268595202
4.93,0.00735395622563404,0.204083801624092
4.94,0.0140167389191999,0.200943023165179
4.95,0.0204329782107338,0.19751092665466
4.96,0.0265896172153504,0.193827056161823
4.97,0.0324829960197111,0.18992862464184
4.98,0.0381169221941774,0.185848439146523
4.99,0.0435004602196111,0.181613702922845
5,0.0486457613333763,0.177245633096564
5.01,0.0535661803278256,0.172759733850588
5.02,0.0582748267346492,0.168166509588732
5.03,0.0627835964161515,0.163472392212516
5.04,0.0671026417387868,0.158680685139456
5.05,0.0712401771765041,0.153792382515766
5.06,0.0752024883411973,0.148806790206113
5.07,0.0789940147355255,0.143721941117788
5.08,0.0826174040765812,0.138534850054348
5.09,0.0860734782721608,0.133241683460064
5.1,0.0893610974803369,0.127837928699253
5.11,0.0924769485268376,0.122318634334181
5.12,0.0954153119350984,0.116678767958096
5.13,0.0981678729151128,0.110913705810878
5.14,0.100723639130547,0.105019838528659
5.15,0.103069013423998,0.0989952544221767
5.16,0.105188051004095,0.0928404483505646
5.17,0.107062909980497,0.0865590003365126
5.18,0.108674488782589,0.0801581710303646
5.19,0.110003231771771,0.0736493668415036
5.2,0.111030077865352,0.067048433397649
5.21,0.111737520688026,0.0603757383750731
5.22,0.11211074146458,0.053656006494347
5.23,0.112138763629296,0.0469178699700923
5.24,0.111815561580821,0.0401931030714224
5.25,0.11114103575115,0.0335155232187214
5.26,0.110121747622625,0.0269195653809767
5.27,0.108771297155825,0.0204385732255171
5.28,0.107110227512764,0.0141028961338637
5.29,0.105165363966765,0.00793792976805482
5.3,0.102968536962942,0.00196228130430479
5.31,0.100554702220084,-0.00381373138399515
5.32,0.0979595472194842,-0.00938903337775895
5.33,0.0952167538733516,-0.0147720111594196
5.34,0.0923551587930139,-0.0199798658032209
5.35,0.0893961020339207,-0.025037055998581
5.36,0.0863512734908939,-0.0299728901990083
5.37,0.0832213431918632,-0.034818437391292
5.38,0.0799955995902073,-0.0396030259673453
5.39,0.0766527208617533,-0.0443506755113201
5.4,0.0731626813136779,-0.0490768420416126
5.41,0.0694896615354776,-0.0537858491782833
5.42,0.0655957066655835,-0.0584693196995041
5.43,0.0614447778504669,-0.0631058235585216
5.44,0.0570067819407287,-0.067661828273204
5.45,0.0522611537113058,-0.0720938933751007
5.46,0.0471996045549495,-0.0763519095690382
5.47,0.0418277372889862,-0.0803830647519378
5.48,0.0361653490477013,-0.0841361359424153
5.49,0.0302453858877923,-0.087565670258194
5.5,0.0241116578168285,-0.0906356323113634
5.51,0.0178155538928061,-0.0933221565341024
5.52,0.0114120973969169,-0.0956151433303353
5.53,0.00495574292945144,-0.0975185640524206
5.54,-0.0015036677292081,-0.0990494764921883
5.55,-0.0079244033165336,-0.100235883801604
5.56,-0.0142754760557659,-0.101113681963204
5.57,-0.0205381904871719,-0.101723022244587
5.58,-0.0267065066940567,-0.102104458996094
5.59,-0.032786237028783,-0.102295257152393
5.6,-0.0387932103125189,-0.102326199641155
5.61,-0.044750630145478,-0.102219167948511
5.62,-0.050685921382589,-0.101985679113673
5.63,-0.0566273908614921,-0.101626457759517
5.64,-0.0626010277731325,-0.101132016034851
5.65,-0.0686277336810255,-0.100484116450904
5.66,-0.0747212105047086,-0.099657913622726
5.67,-0.0808866515096741,-0.0986245172020732
5.68,-0.0871202881502056,-0.0973536957211889
5.69,-0.093409751587605,-0.0958164497464452
5.7,-0.099735126109116,-0.0939872215648884
5.71,-0.106070508702163,-0.0918455713579715
5.72,-0.112385853160656,-0.0893772281868949
5.73,-0.118648871896224,-0.0865745075105627
5.74,-0.124826792216683,-0.0834361646009816
5.75,-0.130887814549547,-0.0799668137917236
5.76,-0.136802185665092,-0.0761760803962252
5.77,-0.142542874538347,-0.0720776584248851
5.78,-0.148085905323731,-0.0676884260081727
5.79,-0.153410453902159,-0.0630277230001013
5.8,-0.158498840466182,-0.0581168329348035
5.81,-0.163336547252991,-0.0529786447728627
5.82,-0.167912358586189,-0.0476374112049111
5.83,-0.172218664924084,-0.0421184825492533
5.84,-0.176251905385807,-0.0364478850108894
5.85,-0.180013055480071,-0.0306516343508569
5.86,-0.183508014220532,-0.0247547275268214
5.87,-0.186747718218753,-0.0187798278037035
5.88,-0.18974781782152,-0.0127457409098645
5.89,-0.192527793836026,-0.00666585533546444
5.9,-0.19510946913651,-0.00054677435026578
5.91,-0.19751496525077,0.00561261268185668
5.92,-0.199764256914071,0.0118213921463048
5.93,-0.201872567847859,0.0180960564232265
5.94,-0.203847914504704,0.0244590348601696
5.95,-0.205689126263123,0.030936377062126
5.96,-0.207384644936368,0.0375547645998524
5.97,-0.208912333610409,0.044338135801597
5.98,-0.210240412759549,0.051304286316404
5.99,-0.211329505528028,0.0584618381732466
6,-0.212135632951019,0.0658079498546195
6.01,-0.212613873191168,0.0733270662614525
6.02,-0.212722306771492,0.0809908931276547
6.03,-0.21242582470738,0.0887596382849766
6.04,-0.211699384743766,0.0965844132111205
6.05,-0.210530362771812,0.104410552391963
6.06,-0.20891975122984,0.112181503341564
6.07,-0.206882090445413,0.119842880965521
6.08,-0.204444161865335,0.127346270735021
6.09,-0.201642607215086,0.134652407590429
6.1,-0.198520745165238,0.141733440317762
6.11,-0.195124927149303,0.148574103938428
6.12,-0.191500799109141,0.155171746089832
6.13,-0.187689818175014,0.161535272973442
6.14,-0.183726318680256,0.167683180204663
6.15,-0.179635342024546,0.173640904871062
6.16,-0.175431352875837,0.179437772064687
6.17,-0.171117873711645,0.185103813236959
6.18,-0.166687990100064,0.190666710376308
6.19,-0.162125619183872,0.196149077723063
6.2,-0.157407394099629,0.201566241510737
6.21,-0.152504998221004,0.206924625344359
6.22,-0.147387778124196,0.212220802762809
6.23,-0.142025469803461,0.217441239491999
6.24,-0.136390880953579,0.222562718130045
6.25,-0.130462380796957,0.227553413133729
6.26,-0.124226056068134,0.232374559975193
6.27,-0.117677398127034,0.236982637004702
6.28,-0.110822397367882,0.241331946928633
6.29,-0.103677940112155,0.245377450961594
6.3,-0.0962714350536971,0.249077673103978
6.31,-0.0886396436019476,0.252397462717387
6.32,-0.0808267503278171,0.255310387216458
6.33,-0.0728817811748287,0.257800530789578
6.34,-0.0648555507004845,0.259863504665216
6.35,-0.0567973850532922,0.261506531305275
6.36,-0.0487519130706771,0.262747546235381
6.37,-0.0407562348148351,0.263613359670436
6.38,-0.0328377576615802,0.264137023515083
6.39,-0.0250129342674905,0.264354644816574
6.4,-0.0172870468556173,0.264301959350908
6.41,-0.0096550700646239,0.264011017017602
6.42,-0.00210352162832512,0.263507326441351
6.43,0.00538690469853139,0.26280775810685
6.44,0.0128382218482984,0.261919417044421
6.45,0.020271900388619,0.260839580684475
6.46,0.0277058501114782,0.259556667776861
6.47,0.0351519561192335,0.258052081489213
6.48,0.0426144132436185,0.256302668264616
6.49,0.0500889916075643,0.254283470532775
6.5,0.0575632408471916,0.2519704340964
6.51,0.065017519862812,0.249342759895401
6.52,0.0724266402715068,0.246384662911363
6.53,0.0797618494626076,0.243086401263114
6.54,0.0869928610759638,0.239444554198572
6.55,0.0940896679767752,0.235461636731363
6.56,0.101023939000616,0.23114522562173
6.57,0.10776989284035,0.226506823461142
6.58,0.114304644490018,0.221560697260319
6.59,0.120608113338656,0.216322896067363
6.6,0.126662651979366,0.210810586382423
6.61,0.1324525895375,0.205041757637224
6.62,0.137963878256518,0.199035259252542
6.63,0.143183989231682,0.19281105199761
6.64,0.148102131858459,0.186390505127733
6.65,0.152709785512433,0.179796554898398
6.66,0.157001447126826,0.173053562750618
6.67,0.160975431682309,0.166186769078333
6.68,0.164634525361657,0.159221319629698
6.69,0.167986292146464,0.152180932091235
6.7,0.171042873157152,0.145086355033898
6.71,0.173820189858452,0.137953832600952
6.72,0.176336553981783,0.130793817770828
6.73,0.178610785768664,0.123610166313816
6.74,0.180660029786863,0.116399994664639
6.75,0.182497521649768,0.109154304488175
6.76,0.184130587537211,0.101859376320829
6.77,0.18555914743499,0.094498829377289
6.78,0.186774943161964,0.0870561500433455
6.79,0.187761630822948,0.0795174212124861
6.8,0.1884957752771,0.0718739481706921
6.81,0.188948676059025,0.064124479281788
6.82,0.189088853935068,0.0562767602957509
6.83,0.188884947939578,0.048348233540552
6.84,0.188308723826006,0.0403657879572133
6.85,0.187337881181194,0.0323645706108552
6.86,0.185958368713566,0.0243859720136071
6.87,0.184165971216946,0.0164749845321301
6.88,0.18196701015624,0.0086771969077068
6.89,0.179378092641544,0.00103572124302082
6.9,0.176424940989131,-0.00641164882006074
6.91,0.17314042555077,-0.0136347786528583
6.92,0.169561999718597,-0.0206128164307146
6.93,0.165728790032282,-0.0273349587568521
6.94,0.161678622065814,-0.0338003028814437
6.95,0.157445263054357,-0.0400168189782334
6.96,0.153056135540014,-0.04599955977095
6.97,0.148530705135398,-0.0517682954901889
6.98,0.143879676832463,-0.0573448132391311
6.99,0.139105052579617,-0.0627501471341553
7,0.134201017726438,-0.0680020061683193
7.01,0.129155543276817,-0.0731126408505681
7.02,0.123952522413708,-0.0780873396013922
7.03,0.118574211270012,-0.0829236769230236
7.04,0.113003720277948,-0.0876115548760469
7.05,0.107227306450727,-0.0921339955778514
7.06,0.101236248042733,-0.0964685659247567
7.07,0.0950281376801463,-0.100589253827859
7.08,0.0886075014031986,-0.104468576397378
7.09,0.0819857301135835,-0.108079688764129
7.1,0.0751803869915742,-0.111398277562844
7.11,0.068214019510743,-0.114404064377128
7.12,0.061112649640911,-0.11708180387298
7.13,0.0539041364848947,-0.119421730702839
7.14,0.0466165990244759,-0.12141947939975
7.15,0.0392770572558616,-0.123075561039418
7.16,0.0319104019406825,-0.124394523584319
7.17,0.0245387460764437,-0.125383943457398
7.18,0.0171811537792038,-0.126053393439997
7.19,0.0098536929966883,-0.12641350918772
7.2,0.00256972459627303,-0.126475239405544
7.21,-0.00465967468366154,-0.126249319824911
7.22,-0.0118252547669631,-0.125745967921107
7.23,-0.018919179941716,-0.124974760079941
7.24,-0.0259347120595991,-0.123944630701671
7.25,-0.0328660064525475,-0.122663925807051
7.26,-0.0397080077931865,-0.12114045083352
7.27,-0.0464564112599199,-0.119381469953037
7.28,-0.0531076434544395,-0.117393637590098
7.29,-0.059658818109445,-0.115182865899968
7.3,-0.0661076311482021,-0.112754151197498
7.31,-0.0724521750958269,-0.110111393329742
7.32,-0.0786906698015434,-0.107257245792262
7.33,-0.0848211211897895,-0.104193030329684
7.34,-0.0908409300609849,-0.100918741752197
7.35,-0.096746478427604,-0.0974331593163176
7.36,-0.102532722129296,-0.0937340722615664
7.37,-0.108192818233945,-0.0898186213682487
7.38,-0.113717815340223,-0.0856837541813068
7.39,-0.119096437289843,-0.0813267884432459
7.4,-0.124314994526511,-0.0767460723189204
7.41,-0.129357462109733,-0.0719417204540885
7.42,-0.134205765182738,-0.0669163891181812
7.43,-0.138840308066203,-0.0616760335522253
7.44,-0.143240768143605,-0.0562305688245778
7.45,-0.147387149276868,-0.0505943372021159
7.46,-0.151261051303018,-0.0447862766404659
7.47,-0.154847067780004,-0.0388296924517728
7.48,-0.158134179123877,-0.0327515612954793
7.49,-0.16111697303721,-0.0265813448908895
7.5,-0.163796507447745,-0.0203493550672178
7.51,-0.16618064095944,-0.0140847859810762
7.52,-0.168283696599626,-0.00781360024024424
7.53,-0.170125395103648,-0.00155651107982368
7.54,-0.171729087414446,0.00467267047348487
7.55,-0.173119420094439,0.0108680655513112
7.56,-0.174319666352187,0.0170319297246906
7.57,-0.175349031358356,0.0231739147710447
7.58,-0.17622027853976,0.0293093974913746
7.59,-0.17693801274774,0.0354570159692475
7.6,-0.177497893094423,0.0416356781017267
7.61,-0.177886938116152,0.047861402681436
7.62,-0.178084942692373,0.0541444017936934
7.63,-0.178066869436908,0.0604868037018875
7.64,-0.177805932204571,0.0668813446009477
7.65,-0.177276978329287,0.0733112340884533
7.66,-0.176459719912665,0.0797512386928372
