"Freq [GHz]","re(S(Antenna1_1_1,Antenna1_1_1)) []","im(S(Antenna1_1_1,Antenna1_1_1)) []"
3,-0.243603950735904,-0.179373167096029
3.01,-0.247955070333218,-0.168677972647217
3.02,-0.251868584731938,-0.158097399825962
3.03,-0.255409901654336,-0.147635871323912
3.04,-0.25864153185431,-0.137281087726912
3.05,-0.26161903792489,-0.127004505816598
3.06,-0.264386906187641,-0.116762850686638
3.07,-0.26697463654198,-0.106500760350315
3.08,-0.269393398741056,-0.0961545633895896
3.09,-0.271633619335586,-0.0856570727385494
3.1,-0.273663835357246,-0.0749431504844
3.11,-0.275431077856972,-0.0639556819350422
3.12,-0.276862934194687,-0.0526515063951656
3.13,-0.277871288575793,-0.0410068001048041
3.14,-0.278357584022693,-0.0290214080544813
3.15,-0.278219283470871,-0.0167216746011581
3.16,-0.2773570753171,-0.00416143039360107
3.17,-0.275682265706453,0.0085790585163244
3.18,-0.273123755319458,0.0213961954263755
3.19,-0.26963400854611,0.0341680416196189
3.2,-0.265193495428711,0.0467608440202933
3.21,-0.25981320965707,0.0590366120267837
3.22,-0.253535030148655,0.0708611539801799
3.23,-0.246429879203952,0.0821119424526501
3.24,-0.238593819065833,0.0926851943136301
3.25,-0.230142400673673,0.102501624870912
3.26,-0.221203714906598,0.111510459424208
3.27,-0.211910689902354,0.119691435618631
3.28,-0.202393215491964,0.127054704582755
3.29,-0.192770662431921,0.133638701253809
3.3,-0.183145303588788,0.139506206330078
3.31,-0.173597046121996,0.14473893856199
3.32,-0.164179764648278,0.149431095322352
3.33,-0.154919395628,0.153682298518947
3.34,-0.145813829749034,0.157590402781426
3.35,-0.136834529351588,0.161244592714219
3.36,-0.127929709222098,0.164719144939373
3.37,-0.119028855781302,0.168068164117097
3.38,-0.110048313181921,0.171321537360335
3.39,-0.100897642245697,0.174482284475556
3.4,-0.091486439501948,0.177525423237673
3.41,-0.0817312957947757,0.180398414613192
3.42,-0.071562567051111,0.183023200894488
3.43,-0.0609306216283211,0.185299794790156
3.44,-0.0498112266475597,0.187111317940324
3.45,-0.0382097409061391,0.188330315007358
3.46,-0.0261638014214894,0.188826091107748
3.47,-0.0137442322920348,0.188472734446807
3.48,-0.00105397379292971,0.187157403499581
3.49,0.0117750713651763,0.184788386183095
3.5,0.0245872506790449,0.181302392149166
3.51,0.0372102626644697,0.176670528608218
3.52,0.0494638150941147,0.170902442054543
3.53,0.0611693590622621,0.164048191883326
3.54,0.0721602861099224,0.156197554777556
3.55,0.0822918823939341,0.147476629656955
3.56,0.0914502974095123,0.138041819968617
3.57,0.0995598050589363,0.128071481807951
3.58,0.106587726815015,0.117755736223823
3.59,0.112546535689427,0.107285118913796
3.6,0.117492861789397,0.09683887061061
3.61,0.121523358046808,0.0865737364777083
3.62,0.124767633192562,0.0766141363990882
3.63,0.127378701337992,0.0670444853260439
3.64,0.129521605821233,0.0579042973527577
3.65,0.131361034902284,0.0491864976242261
3.66,0.133048839241743,0.0408391280165101
3.67,0.134712382998477,0.0327703675036951
3.68,0.13644460407869,0.0248565364756222
3.69,0.13829653772461,0.0169525230272624
3.7,0.14027287453751,0.00890388593794044
3.71,0.142330900527901,0.00055976103859839
3.72,0.144382918099402,-0.0082143601878425
3.73,0.146301994594602,-0.0175249037574908
3.74,0.147930644485668,-0.0274403835432874
3.75,0.149091844460025,-0.0379841797300835
3.76,0.149601615092954,-0.0491304509724477
3.77,0.149282295020407,-0.0608034868477725
3.78,0.147975583100415,-0.0728805687774125
3.79,0.145554440536478,-0.085198163805991
3.8,0.141933019399579,-0.0975610492287187
3.81,0.137073915612752,-0.109753760042983
3.82,0.130992225263153,-0.121553590514757
3.83,0.123756096416707,-0.132744270184097
3.84,0.115483708691862,-0.143129379436991
3.85,0.106336855646595,-0.152544581778527
3.86,0.0965115430349218,-0.160867821376339
3.87,0.086226225628526,-0.168026768545497
3.88,0.075708475316361,-0.174002979158344
3.89,0.0651809905546352,-0.178832461204157
3.9,0.0548479108982531,-0.182602587971837
3.91,0.0448823854003675,-0.185445558179345
3.92,0.0354162611822149,-0.187528846226886
3.93,0.0265326114116048,-0.189043303006242
3.94,0.0182616196413979,-0.190189735634507
3.95,0.0105801029419441,-0.191164903025875
3.96,0.003414689768602,-0.19214790523005
3.97,-0.0033515869947232,-0.193287910453469
3.98,-0.0098697660692986,-0.194694062378624
3.99,-0.0163131889520737,-0.196428248301413
4,-0.0228643254535912,-0.198501196411424
4.01,-0.0297011162372862,-0.200872128619135
4.02,-0.0369837755268333,-0.203451944678689
4.03,-0.0448429450351441,-0.206109664996706
4.04,-0.0533699774577381,-0.208681643244843
4.05,-0.0626099632661447,-0.210982881249441
4.06,-0.0725579134901205,-0.212819654728704
4.07,-0.0831582874862453,-0.21400259395699
4.08,-0.09430783083169,-0.214359357628306
4.09,-0.105861473091384,-0.213746093142338
4.1,-0.117640849798942,-0.212056977213563
4.11,-0.129444859717831,-0.209231275849497
4.12,-0.141061564413232,-0.205257532450856
4.13,-0.152280675404821,-0.200174677369475
4.14,-0.162905862007256,-0.194070045185951
4.15,-0.17276614371763,-0.187074461388459
4.16,-0.181725703463856,-0.179354729991728
4.17,-0.189691558631166,-0.171103988990899
4.18,-0.196618657875341,-0.162530515269165
4.19,-0.202512117654497,-0.153845636689953
4.2,-0.207426473639932,-0.145251454379941
4.21,-0.211461982337943,-0.136929086961096
4.22,-0.2147581743896,-0.129028123684195
4.23,-0.217485009038853,-0.121657911182256
4.24,-0.219832122086778,-0.114881208728945
4.25,-0.221996774811616,-0.108710621451283
4.26,-0.224171198823649,-0.103108074541211
4.27,-0.2265300899969,-0.097987422082817
4.28,-0.229219016673717,-0.0932201015031069
4.29,-0.232344480268289,-0.0886435578528088
4.3,-0.235966292974851,-0.0840719840942786
4.31,-0.240092815089493,-0.0793087588072507
4.32,-0.244679437197666,-0.0741598327106464
4.33,-0.249630495741009,-0.0684472247058066
4.34,-0.254804590962135,-0.0620217466589282
4.35,-0.260023054186298,-0.0547740956433622
4.36,-0.265081081827318,-0.0466435295889099
4.37,-0.269760861433442,-0.0376234789268501
4.38,-0.273845849710107,-0.0277636366424457
4.39,-0.277135259628086,-0.01716829853431
4.4,-0.279457767529221,-0.00599098026158441
4.41,-0.280683479547967,0.00557439684531741
4.42,-0.280733297193696,0.0173052113686639
4.43,-0.279584984654197,0.0289639798872049
4.44,-0.277275461740524,0.0403134006829714
4.45,-0.273899107980947,0.0511315740412453
4.46,-0.269602146744492,0.0612263422132999
4.47,-0.264573454395823,0.0704477379856061
4.48,-0.259032406140183,0.0786976609802374
4.49,-0.253214579601598,0.0859360847648936
4.5,-0.247356300098074,0.0921833472853654
4.51,-0.241679092465838,0.0975183490802946
4.52,-0.236375118593442,0.102072775580151
4.53,-0.231594601041603,0.106021739110972
4.54,-0.227436100793685,0.109571486325746
4.55,-0.223940306498974,0.112945018886246
4.56,-0.221087749520684,0.116366614700721
4.57,-0.218800584747207,0.120046305524299
4.58,-0.216948296652487,0.124165361149638
4.59,-0.215356926122235,0.128863751430739
4.6,-0.213821179070813,0.134230415040082
4.61,-0.212118593399138,0.140296966613184
4.62,-0.210024810021347,0.147035238482132
4.63,-0.207328935373347,0.154358796934394
4.64,-0.203847982174775,0.162128311255891
4.65,-0.19943944958425,0.170160402412072
4.66,-0.194011229087391,0.178239379940793
4.67,-0.187528201590481,0.186131090801516
4.68,-0.180015108517146,0.193597974860356
4.69,-0.171555516263994,0.200414349867502
4.7,-0.162286947498879,0.206380933170928
4.71,-0.152392492079215,0.211337661189703
4.72,-0.142089441223316,0.21517397265539
4.73,-0.131615673839489,0.217835882076581
4.74,-0.121214678997971,0.219329373291826
4.75,-0.111120186682112,0.219719877855896
4.76,-0.101541414309161,0.219127854518116
4.77,-0.092649905962165,0.217720742845667
4.78,-0.0845688447542743,0.215701804208502
4.79,-0.0773655648718541,0.213296578944433
4.8,-0.0710477826157806,0.210737852373791
4.81,-0.0655638191287258,0.208250138960313
4.82,-0.0608068200666261,0.206034732400673
4.83,-0.0566226983158912,0.204256345791446
4.84,-0.052821267686502,0.203032262897734
4.85,-0.0491898046795128,0.202424752246262
4.86,-0.0455081021879467,0.202437274104519
4.87,-0.0415639644477313,0.203014737287198
4.88,-0.0371680621852678,0.20404778026946
4.89,-0.0321671092509673,0.205380756021948
4.9,-0.0264544506525187,0.206822837356094
4.91,-0.0199773376711137,0.208161433716077
4.92,-0.0127404194180892,0.209176952982202
4.93,-0.00480525651316596,0.209657849200092
4.94,0.0037140440361999,0.209414900907179
4.95,0.0126586913037338,0.20829373200196
4.96,0.0218359468443504,0.206184743605523
4.97,0.0310319182506111,0.2030298307243
4.98,0.0400254679261774,0.198825510296023
4.99,0.0486022528236111,0.193622356594745
5,0.0565679336570763,0.187520905932564
5.01,0.0637596964801256,0.180664436855588
5.02,0.0700553850202492,0.173229228185732
5.03,0.0753797431235615,0.165413041231316
5.04,0.0797074919725868,0.157422652923456
5.05,0.0830631912918041,0.149461278153766
5.06,0.0855180497021973,0.141716677423813
5.07,0.0871840323898255,0.134350644909588
5.08,0.0882057552845812,0.127490443401548
5.09,0.0887507600351608,0.121222589750164
5.1,0.0889988063223369,0.115589231432253
5.11,0.0891308336098376,0.110587189614681
5.12,0.0893182099480984,0.106169597869396
5.13,0.0897128306402128,0.102249934613278
5.14,0.090438549014747,0.098708147149659
5.15,0.091584332604798,0.0953984814351767
5.16,0.093199439706945,0.0921585794057646
5.17,0.095290814696497,0.0888193634985126
5.18,0.097822801608489,0.0852152135843646
5.19,0.100719177492571,0.0811939289255036
5.2,0.103867410616352,0.076625981269349
5.21,0.107124952759026,0.0714125833467731
5.22,0.11032727449978,0.065492138404747
5.23,0.113297263369296,0.0588446922637923
5.24,0.115855515343821,0.0514940917997224
5.25,0.11783097856315,0.0435076535288214
5.26,0.119071352800025,0.0349932738059767
5.27,0.119452631207125,0.0260940522585171
5.28,0.118887174685664,0.0169806558668637
5.29,0.117329769465765,0.00784180281705482
5.3,0.114781210411442,-0.00112660686069521
5.31,0.111289090645084,-0.00973307251399515
5.32,0.106945649648484,-0.017802058826659
5.33,0.101882723955352,-0.0251847862219196
5.34,0.0962640499460139,-0.0317685031941209
5.35,0.0902753646332207,-0.037483578497281
5.36,0.0841129215198939,-0.0423078773639083
5.37,0.0779711713668632,-0.046268068285292
5.38,0.0720304379500073,-0.0494377160793453
5.39,0.0664454370633533,-0.0519322453143201
5.4,0.0613354377355779,-0.0539010868486126
5.41,0.0567767601230776,-0.0555175268168833
5.42,0.0527981374285835,-0.0569669468665041
5.43,0.0493792670204669,-0.0584342634355216
5.44,0.0464526472577287,-0.060091430013004
5.45,0.0439085617273058,-0.0620858584811007
5.46,0.0416028488609495,-0.0645305432341382
5.47,0.0393669062315862,-0.0674965445040378
5.48,0.0370192283367013,-0.0710083088364153
5.49,0.0343776834897923,-0.075042105010194
5.5,0.0312717022807285,-0.0795276304423634
5.51,0.0275535731856361,-0.0843526264811024
5.52,0.0231081236084169,-0.0893701471673353
5.53,0.0178601890424514,-0.0944079539914206
5.54,0.0117794381167919,-0.0992793888771883
5.55,0.0048823023714664,-0.103795000713504
5.56,-0.0027690439197659,-0.107774174650704
5.57,-0.0110705233271719,-0.111056036367687
5.58,-0.0198825116130567,-0.113508975576794
5.59,-0.029038261620783,-0.115038234338393
5.6,-0.0383538370483189,-0.115591145663155
5.61,-0.047638923994678,-0.115159757663511
5.62,-0.056707854863989,-0.113780745180673
5.63,-0.0653901876116921,-0.111532668693517
5.64,-0.0735402268689325,-0.108530796223851
5.65,-0.0810449500320255,-0.104919835123904
5.66,-0.0878299046517086,-0.100865032826126
5.67,-0.0938627700706741,-0.0965421860467732
5.68,-0.0991544090852056,-0.0921271507564889
5.69,-0.103757383485605,-0.0877854594867452
5.7,-0.107762044160116,-0.0836626395955884
5.71,-0.111290441877163,-0.0798757791189715
5.72,-0.114488421382156,-0.0765068111758949
5.73,-0.117516358625424,-0.0735978916725627
5.74,-0.120539075470483,-0.0711491261429816
5.75,-0.123715505108747,-0.0691187721097236
5.76,-0.127188702496192,-0.0674259062462252
5.77,-0.131076770000247,-0.0659554107758851
5.78,-0.135465224081731,-0.0645650017820727
5.79,-0.140401253713159,-0.0630939059353013
5.8,-0.145890215523182,-0.0613726982813035
5.81,-0.151894592365991,-0.0592337369999727
5.82,-0.158335503750189,-0.0565215934814111
5.83,-0.165096710089084,-0.0531028611444533
5.84,-0.172030907498807,-0.0488747543608894
5.85,-0.178967970436371,-0.0437719661748569
5.86,-0.185724677458432,-0.0377713452148214
5.87,-0.192115352223233,-0.0308940741607035
5.88,-0.19796278623252,-0.0232051767468645
5.89,-0.203108775228626,-0.0148103403074644
5.9,-0.20742360946151,-0.00585020773226578
5.91,-0.21081391079377,0.00350754206515668
5.92,-0.213228297112071,0.0130778611293048
5.93,-0.214660489952859,0.0226691574083465
5.94,-0.215149633101704,0.0320946045205696
5.95,-0.214777773349123,0.041183217654126
5.96,-0.213664639562368,0.0497899811638524
5.97,-0.211960034943009,0.057804371302597
5.98,-0.209834324085349,0.065156711180404
5.99,-0.207467621738528,0.0718219436472466
6,-0.205038381933719,0.0778205727886195
6.01,-0.202712126884168,0.0832167182224525
6.02,-0.200631041065492,0.0881134169696547
6.03,-0.19890509478538,0.0926454917198766
6.04,-0.197605252714766,0.0969704599254205
6.05,-0.196759178654812,0.101258083343463
6.06,-0.19634967650084,0.105679232291464
6.07,-0.196315926105413,0.110394771481521
6.08,-0.196557396001335,0.115545155323021
6.09,-0.196940145833486,0.121241355040429
6.1,-0.197305097045998,0.127557643615762
6.11,-0.197477742479203,0.134526631769428
6.12,-0.197278698752141,0.142136804350832
6.13,-0.196534479068014,0.150332653304442
6.14,-0.195087869053256,0.159017355141263
6.15,-0.192807334829546,0.168057802249962
6.16,-0.189594958852837,0.177291680331287
6.17,-0.185392488173645,0.186536187315059
6.18,-0.180185187019064,0.195597913830308
6.19,-0.174003293950872,0.204283359862063
6.2,-0.166921005904229,0.212409532903737
6.21,-0.159053023942904,0.219814074823359
6.22,-0.150548815607396,0.226364375955809
6.23,-0.141584857474861,0.231965180911999
6.24,-0.132355227710579,0.236564246979045
6.25,-0.123061010767957,0.240155695414029
6.26,-0.113899058104134,0.242780803574893
6.27,-0.105050709452034,0.244526098547626
6.28,-0.096671111891882,0.245518760804033
6.29,-0.088879782268155,0.245919490291394
6.3,-0.0817530228086971,0.245913146985978
6.31,-0.0753187299474476,0.245697630590387
6.32,-0.0695540241825171,0.245471599336458
6.33,-0.0643859780864287,0.245421743773578
6.34,-0.0596955363439845,0.245710399899216
6.35,-0.0553245206932922,0.246464314636275
6.36,-0.0510853970307771,0.247765347247381
6.37,-0.0467732777008351,0.249643800163536
6.38,-0.0421794533855802,0.252074933548383
6.39,-0.0371056015614905,0.254979018878474
6.4,-0.0313777392196173,0.258225062691808
6.41,-0.0248589576126239,0.261638073318602
6.42,-0.0174600315127251,0.265009490598751
6.43,-0.00914710661506861,0.26811016121285
6.44,5.41453460284006E-05,0.270705037938421
6.45,0.010058283349819,0.272568635362475
6.46,0.0207238762328782,0.273500195111861
6.47,0.0318611325032335,0.273337506494213
6.48,0.0432429308428185,0.271968406020816
6.49,0.0546185513575643,0.269339120227375
6.5,0.0657292097121916,0.26545883023766
6.51,0.076324350541812,0.260400092243601
6.52,0.0861776002985068,0.254295032271663
6.53,0.0951012838391076,0.247327531479914
6.54,0.102958507129964,0.239721894050572
6.55,0.109671968953575,0.231728738056363
6.56,0.115228881723286,0.22360904100973
6.57,0.11968164940965,0.215617404705142
6.58,0.123144235150918,0.207985654072319
6.59,0.125784441912156,0.200907869909863
6.6,0.127812603132966,0.194527855443223
6.61,0.1294674222385,0.188929878865324
6.62,0.130999888157518,0.184133314484042
6.63,0.132656320774682,0.18009154945906
6.64,0.134661660842459,0.176695244075933
6.65,0.137204102578033,0.173779743881598
6.66,0.140422082305026,0.171136177532718
6.67,0.144394484681209,0.168525525022333
6.68,0.149134723839157,0.165694752288698
6.69,0.15458910344559,0.162393964826235
6.7,0.160639589152352,0.158393466053898
6.71,0.167110835412152,0.153499602414952
6.72,0.173781035477183,0.147568352795328
6.73,0.180395907628364,0.140515753384716
6.74,0.186684923946863,0.132324457155439
6.75,0.192378729664768,0.123045964984875
6.76,0.197226617465211,0.112798353078029
6.77,0.20101290437999,0.101759611780789
6.78,0.203571122097564,0.0901570045903455
6.79,0.204795064960348,0.0782531234323801
6.8,0.2046459423287,0.0663295417936921
6.81,0.203155134351925,0.054669138584788
6.82,0.200422340295168,0.0435382603097509
6.83,0.196609219677578,0.033169914547552
6.84,0.191928929238006,0.0237491213006133
6.85,0.186632240739394,0.0154014140520552
6.86,0.180991161635566,0.0081852732647471
6.87,0.175281152584946,0.0020890079601301
6.88,0.16976313978924,-0.0029676965517932
6.89,0.164666530943544,-0.00712766865497918
6.9,0.160174381586131,-0.0105859936330607
6.91,0.15641170799107,-0.0135763075418583
6.92,0.153437724721077,-0.0163545767627146
6.93,0.151242516596282,-0.0191814666618521
6.94,0.149748346020214,-0.0223044928884437
6.95,0.148815479344357,-0.0259411569351334
6.96,0.148252110300014,-0.03026419391295
6.97,0.147827680429398,-0.0353898989603889
6.98,0.147288675580463,-0.0413702891055311
6.99,0.146375821242617,-0.0481895800641553
7,0.144841518127038,-0.0557651661401193
7.01,0.142466362726117,-0.0639529820965681
7.02,0.139073675060808,-0.0725568385193922
7.03,0.134541109356947,-0.0813410631090236
7.04,0.128808630832248,-0.0900455756130469
7.05,0.121882397170427,-0.0984023800496514
7.06,0.113834355253333,-0.106152386937557
7.07,0.104797651104846,-0.113061480068959
7.08,0.0949582142701986,-0.118934813397778
7.09,0.0845431135525835,-0.123628459549449
7.1,0.0738064764618742,-0.127057719691044
7.11,0.063013896244643,-0.129201628856828
7.12,0.052426324438611,-0.13010343897298
7.13,0.0422844607523947,-0.129867116248439
7.14,0.0327945934195759,-0.12865013293615
7.15,0.0241167404961516,-0.126653055047818
7.16,0.0163557827591825,-0.124106610087619
7.17,0.0095560867439437,-0.121257059057198
7.18,0.0036998986459038,-0.118350785020997
7.19,-0.0012904382766117,-0.11561903890462
7.2,-0.00554662149142697,-0.113263763598744
7.21,-0.00924526937056154,-0.111445341676511
7.22,-0.0125961214516631,-0.110272985683007
7.23,-0.015828289346716,-0.109798332770541
7.24,-0.0191753965203991,-0.110012607234471
7.25,-0.0228605076582475,-0.110847507579251
7.26,-0.0270817552334865,-0.11217974973032
7.27,-0.0319995301913199,-0.113838985759637
7.28,-0.0377260100555305,-0.115618616998298
7.29,-0.044317657181145,-0.117288843556168
7.3,-0.0517711497874021,-0.118611163877998
7.31,-0.0600229967133269,-0.119353442379442
7.32,-0.0689528751882434,-0.119304627107462
7.33,-0.0783904963640895,-0.118288213735984
7.34,-0.0881255946489849,-0.116173623408597
7.35,-0.097920438775304,-0.112884783252448
7.36,-0.107524104111396,-0.108405363482566
7.37,-0.116687630876145,-0.102780329215449
7.38,-0.125179127865023,-0.0961136886893068
7.39,-0.132797882817343,-0.0885625577786459
7.4,-0.139386586854211,-0.0803278904371204
7.41,-0.144840897804743,-0.0716424391441885
7.42,-0.149115727330038,-0.0627566868844812
7.43,-0.152227836178603,-0.0539236261882253
7.44,-0.154254557523405,-0.0453833431944778
7.45,-0.155328711049168,-0.0373483782298159
7.46,-0.155630012613218,-0.0299907977678659
7.47,-0.155373512999904,-0.0234318030673728
7.48,-0.154795789187077,-0.0177345455086793
7.49,-0.15413975997081,-0.0129006198003895
7.5,-0.153639091655545,-0.0088704635424178
7.51,-0.15350318549694,-0.0055276527175762
7.52,-0.153903709109026,-0.00270682514154424
7.53,-0.154963534692748,-0.00020473158512368
7.54,-0.156748794816046,0.00220628483678487
7.55,-0.159264569265439,0.0047632430666112
7.56,-0.162454481756887,0.0076968706241906
7.57,-0.166204235231356,0.0112163459503447
7.58,-0.17034886232976,0.0154954123080046
7.59,-0.17468322773794,0.0206607518984475
7.6,-0.178975109566323,0.0267833655695267
7.61,-0.182980023947552,0.033873508207536
7.62,-0.186456844307573,0.0418795019787934
7.63,-0.189183213242328,0.0506905023827875
7.64,-0.190969767190671,0.0601430352761477
7.65,-0.191672262483487,0.0700308846515533
7.66,-0.191200834684065,0.0801176952748372
