"Freq [GHz]","re(S(Antenna1_1_1,Antenna1_1_1)) []","im(S(Antenna1_1_1,Antenna1_1_1)) []"
3,-0.243276540257463,-0.180674646498029
3.01,-0.247902336825218,-0.170042472884217
3.02,-0.252108004062938,-0.159476348008962
3.03,-0.255954079381336,-0.148973054018912
3.04,-0.25949428200631,-0.138511408330912
3.05,-0.26277037194689,-0.128054709623698
3.06,-0.265807862555641,-0.117554717149738
3.07,-0.26861306447098,-0.106956845364015
3.08,-0.271171813375056,-0.0962061015185896
3.09,-0.273450057555586,-0.0852531935045494
3.1,-0.275396276917246,-0.0740602008574
3.11,-0.276945500655972,-0.0626052433920422
3.12,-0.278024513162747,-0.0508856940391656
3.13,-0.278557708228593,-0.0389196501318041
3.14,-0.278472997111693,-0.0267455795154813
3.15,-0.277707188955871,-0.0144202652351581
3.16,-0.2762103562141,-0.00201535782260107
3.17,-0.273948843357453,0.0103870192293244
3.18,-0.270906763297458,0.0226990933448755
3.19,-0.26708601717311,0.0348321811297189
3.2,-0.262505045687711,0.0467008981232933
3.21,-0.25719664589907,0.0582265248657837
3.22,-0.251205252433655,0.0693393732551799
3.23,-0.244584077170952,0.0799801634976501
3.24,-0.237392433902133,0.0901005638626301
3.25,-0.229693459224173,0.0996631419329123
3.26,-0.221552299800598,0.108641014378208
3.27,-0.213034701112354,0.117017452251631
3.28,-0.204205824595964,0.124785618709755
3.29,-0.195129064488921,0.131948491840809
3.3,-0.185864641641788,0.138518893743078
3.31,-0.176467818993996,0.14451942854769
3.32,-0.166986701907278,0.149982055481352
3.33,-0.157459732118,0.154947007576947
3.34,-0.147913130402034,0.159460818372426
3.35,-0.138358659173588,0.163573335206219
3.36,-0.128792137050098,0.167333762300373
3.37,-0.119193126756302,0.170785960633097
3.38,-0.109526126643721,0.173963408430335
3.39,-0.0997434395846972,0.176884358839556
3.4,-0.089789682636948,0.179547797344673
3.41,-0.0796076742977757,0.181930783324192
3.42,-0.069145224059111,0.183987654004488
3.43,-0.0583621835773211,0.185651385796156
3.44,-0.0472370309425597,0.186837172152724
3.45,-0.0357722625671391,0.187448017578358
3.46,-0.0239979641424894,0.187381903705748
3.47,-0.0119731112800348,0.186539887522807
3.48,0.00021561093607029,0.184834371935581
3.49,0.0124574156591763,0.182196759813095
3.5,0.0246231397501949,0.178583768196166
3.51,0.0365725641234697,0.173981827402218
3.52,0.0481626590901147,0.168409197142543
3.53,0.0592560222012621,0.161915669981326
3.54,0.0697287967589224,0.154579970141556
3.55,0.0794774539409341,0.146505158428955
3.56,0.0884239736335123,0.137812508919917
3.57,0.0965191371759363,0.128634407031951
3.58,0.103743830695015,0.119106840846823
3.59,0.110108420012427,0.109362018546796
3.6,0.115650385642397,0.09952156640561
3.61,0.120430491552808,0.0896906610087083
3.62,0.124527802106362,0.0799533458050882
3.63,0.128033871348992,0.0703691894980439
3.64,0.131046416525233,0.0609713751857577
3.65,0.133662770654284,0.0517662567542261
3.66,0.135973395978743,0.0427343887565101
3.67,0.138055740004477,0.0338330048186951
3.68,0.13996872494969,0.0249998880471222
3.69,0.14174817755761,0.0161585257052624
3.7,0.14340351292551,0.00722437079194044
3.71,0.144915973944901,-0.00188805721940161
3.72,0.146238682235402,-0.0112575988408425
3.73,0.147298672265602,-0.0209488725774908
3.74,0.148000953011268,-0.0310052213362874
3.75,0.148234483429025,-0.0414427607220835
3.76,0.147879768822954,-0.0522460830954477
3.77,0.146817610078407,-0.0633660909077725
3.78,0.144938386121415,-0.0747202917904125
3.79,0.142151148151478,-0.086195693591991
3.8,0.138391766283579,-0.0976542144447187
3.81,0.133629407540752,-0.108940286141983
3.82,0.127870740125153,-0.119890114895757
3.83,0.121161438897707,-0.130341891957097
3.84,0.113584799596862,-0.140146139678991
3.85,0.105257521556595,-0.149175352325527
3.86,0.0963229713179218,-0.157332144301339
3.87,0.086942458438226,-0.164555250286497
3.88,0.077285220752361,-0.170822911503344
3.89,0.0675179138156352,-0.176153413986157
3.9,0.0577944191242531,-0.180602785321837
3.91,0.0482467319553675,-0.184259890286345
3.92,0.0389775724022149,-0.187239361152886
3.93,0.0300551982976048,-0.189672946355342
3.94,0.0215107054113979,-0.191699948185507
3.95,0.0133379049459441,-0.193457446047875
3.96,0.005495677467602,-0.19507097322605
3.97,-0.0020874542967232,-0.196646238181469
3.98,-0.0095069186082986,-0.198262374066624
3.99,-0.0168743230723737,-0.199967073666413
4,-0.0243088378795912,-0.201773833403424
4.01,-0.0319282663982862,-0.203661399561135
4.02,-0.0398403254298333,-0.205575391868689
4.03,-0.0481346246181441,-0.207431969191706
4.04,-0.0568757863477381,-0.209123308856843
4.05,-0.0660980872481447,-0.210524586890141
4.06,-0.0758019306461205,-0.211502074235704
4.07,-0.0859523737532453,-0.21192190314699
4.08,-0.09647983771469,-0.211659009061306
4.09,-0.107283015688384,-0.210605723687338
4.1,-0.118233872845942,-0.208679486177563
4.11,-0.129184500124681,-0.205829161889497
4.12,-0.139975454985232,-0.202039513013856
4.13,-0.150445101663821,-0.197333456330475
4.14,-0.160439365933256,-0.191771873645951
4.15,-0.16982125561963,-0.185450893596459
4.16,-0.178479480558856,-0.178496744631728
4.17,-0.186335536202166,-0.171058459033899
4.18,-0.193348702702341,-0.163298883385165
4.19,-0.199518546200497,-0.155384595003953
4.2,-0.204884687466932,-0.147475428292941
4.21,-0.209523804521943,-0.139714363341096
4.22,-0.2135440512676,-0.132218517790195
4.23,-0.217077272594153,-0.125071907070256
4.24,-0.220269572591778,-0.118320509311945
4.25,-0.223270918600616,-0.111969993511283
4.26,-0.226224534171649,-0.105986266747211
4.27,-0.2292568449759,-0.100298780904817
4.28,-0.232468687019717,-0.0948063334141069
4.29,-0.235928379831289,-0.0893849169951088
4.3,-0.239667117020851,-0.0838970364242786
4.31,-0.243676945408493,-0.0782018200292507
4.32,-0.247911415042666,-0.0721652214686464
4.33,-0.252288794099009,-0.0656696264078066
4.34,-0.256697573195135,-0.0586222444429282
4.35,-0.261003848284298,-0.0509617726233622
4.36,-0.265060063182318,-0.0426629479329099
4.37,-0.268714534450442,-0.0337387527038501
4.38,-0.271821153374107,-0.0242401882084457
4.39,-0.274248674657086,-0.01425367681331
4.4,-0.275889041715221,-0.00389628562258441
4.41,-0.276664267823967,0.00669091798131741
4.42,-0.276531481681696,0.0173509743264639
4.43,-0.275485848437197,0.0279201239972049
4.44,-0.273561192473524,0.0382373547369714
4.45,-0.270828271412947,0.0481538460182453
4.46,-0.267390778969492,0.0575417532962999
4.47,-0.263379278388823,0.0663017959216061
4.48,-0.258943396510283,0.0743691697502374
4.49,-0.254242716812598,0.0817173814738936
4.5,-0.249436909145074,0.0883597155593654
4.51,-0.244675700783838,0.0943481762052946
4.52,-0.240089335099442,0.0997699020621513
4.53,-0.235780155365603,0.104741217558972
4.54,-0.231815911021685,0.109399650595496
4.55,-0.228225285725974,0.113894401511246
4.56,-0.224996014314684,0.118375877006721
4.57,-0.222075784324207,0.122984993535299
4.58,-0.219375922209487,0.127842997095638
4.59,-0.216777660618235,0.133042531751739
4.6,-0.214140585271913,0.138640618484082
4.61,-0.211312688371138,0.144654078273184
4.62,-0.208141321158347,0.151057760611132
4.63,-0.204484262290347,0.157785732978394
4.64,-0.200220097483775,0.164735364416891
4.65,-0.19525715529725,0.171774015816072
4.66,-0.189540349184391,0.178747853533193
4.67,-0.183055435196481,0.185492141107516
4.68,-0.175830393000146,0.191842257131356
4.69,-0.167933853896994,0.197644640723502
4.7,-0.159470723442879,0.202766879508928
4.71,-0.150575347923215,0.207106234569703
4.72,-0.141402751386516,0.21059602350939
4.73,-0.132118593395489,0.213209453158581
4.74,-0.122888577730971,0.214960687558826
4.75,-0.113868057105112,0.215903140816896
4.76,-0.105192543270161,0.216125179925116
4.77,-0.096969745943165,0.215743597980667
4.78,-0.0892736361882743,0.214895358665502
4.79,-0.0821408753018541,0.213728214440433
4.8,-0.0755697778917806,0.212390852007791
4.81,-0.0695218032707258,0.211023229765313
4.82,-0.0639254045276261,0.209747730960673
4.83,-0.0586819153208912,0.208661683623446
4.84,-0.053673037049502,0.207831688986734
4.85,-0.0487694002036128,0.207290068856262
4.86,-0.0438396258109467,0.207033599792519
4.87,-0.0387592976147313,0.207024549036198
4.88,-0.0334192823692678,0.20719388609446
4.89,-0.0277328913079673,0.207446408676948
4.9,-0.0216414663275187,0.207667412236094
4.91,-0.0151180801251137,0.207730445296277
4.92,-0.00816917053108918,0.207505640397202
4.93,-0.00083405991616596,0.206868085430092
4.94,0.0068175551791999,0.205705718124179
4.95,0.0146899342897338,0.20392626629496
4.96,0.0226671280953504,0.201462834546523
4.97,0.0306199190336111,0.1982778324023
4.98,0.0384134120991774,0.194365053268023
4.99,0.0459148002606111,0.189749833607745
5,0.0530008327090763,0.184487341134564
5.01,0.0595645540031256,0.178659153148588
5.02,0.0655209426492492,0.172368378953732
5.03,0.0708111587665615,0.165733655089716
5.04,0.0754052045545868,0.158882391732456
5.05,0.0793028973738041,0.151943671003766
5.06,0.0825331531271973,0.145041199958813
5.07,0.0851516661488255,0.138286696600588
5.08,0.0872371475915812,0.131774052466548
5.09,0.0888863532851608,0.125574560455164
5.1,0.0902081758868369,0.119733438644253
5.11,0.0913171178608376,0.114267813793681
5.12,0.0923264812320984,0.109166261421396
5.13,0.0933416240322128,0.104389927476278
5.14,0.094453631957747,0.099875188144659
5.15,0.095733743335798,0.0955377301241767
5.16,0.097228839892945,0.0912778657299646
5.17,0.098958278615497,0.0869868246995126
5.18,0.100912284470489,0.0825537043453646
5.19,0.103052051867571,0.0778727001705036
5.2,0.105311614752352,0.072850202509349
5.21,0.107601443854026,0.0674113223717731
5.22,0.10981361601368,0.061505417436747
5.23,0.111828290749296,0.0551102249047923
5.24,0.113521122283821,0.0482342782317224
5.25,0.11477114925615,0.0409173834368214
5.26,0.115468643831025,0.0332290576449767
5.27,0.115522383439125,0.0252649750765171
5.28,0.114865823344664,0.0171416151208637
5.29,0.113461716106765,0.00898944709905482
5.3,0.111304825818442,0.00094510886030479
5.31,0.108422523030084,-0.00685688083499515
5.32,0.104873205733484,-0.014292290914659
5.33,0.100742655568352,-0.0212546495419196
5.34,0.0961385968060139,-0.0276614933241209
5.35,0.0911838595714607,-0.033458969285281
5.36,0.0860086454038939,-0.0386244931839083
5.37,0.0807424481508632,-0.043167323218292
5.38,0.0755061897110073,-0.0471270647913453
5.39,0.0704050918303533,-0.0505702707083201
5.4,0.0655227252075779,-0.0535854289726126
5.41,0.0609165743640776,-0.0562767240369833
5.42,0.0566153306935835,-0.0587570153035041
5.43,0.0526180018534669,-0.0611404960305216
5.44,0.0488948072477287,-0.063535480883004
5.45,0.0453897274163058,-0.0660377276931007
5.46,0.0420244940539495,-0.0687246376891382
5.47,0.0387037528529862,-0.0716506076500378
5.48,0.0353210938091013,-0.0748437309644153
5.49,0.0317656256937923,-0.078303977251194
5.5,0.0279287664647285,-0.0820029120653634
5.51,0.0237109211776361,-0.0858849584111024
5.52,0.0190277276604169,-0.0898701479573353
5.53,0.0138155583594514,-0.0938582499214206
5.54,0.0080359856587919,-0.0977341093053283
5.55,0.0016789412644664,-0.101373963796503
5.56,-0.0052356564617659,-0.104652443665704
5.57,-0.0126579768341719,-0.107449896810687
5.58,-0.0205101410940567,-0.109659630341794
5.59,-0.028689863938783,-0.111194622153393
5.6,-0.0370757439509189,-0.111993250522155
5.61,-0.045533949343678,-0.112023612803511
5.62,-0.053925923464989,-0.111286070803673
5.63,-0.0621166309616921,-0.109813760505517
5.64,-0.0699827906379325,-0.107670941670851
5.65,-0.0774205083700255,-0.104949220718904
5.66,-0.0843517392347086,-0.101761848852726
5.67,-0.0907290784096741,-0.0982364581557732
5.68,-0.0965384932492056,-0.0945067359894889
5.69,-0.101799768121605,-0.0907036332917452
5.7,-0.106564609497116,-0.0869467500715884
5.71,-0.110912547072163,-0.0833365307749715
5.72,-0.114944940433156,-0.0799478354858949
5.73,-0.118777545912524,-0.0768253395195627
5.74,-0.122532203121483,-0.0739810613739816
5.75,-0.126328248263747,-0.0713941474547236
5.76,-0.130274265400192,-0.0690128665032252
5.77,-0.134460729283247,-0.0667586063258851
5.78,-0.138954003435731,-0.0645315301180727
5.79,-0.143792034749159,-0.0622174531478013
5.8,-0.148981946323182,-0.0596954482273035
5.81,-0.154499594241991,-0.0568456718119727
5.82,-0.160291025537189,-0.0535569296214111
5.83,-0.166275666027084,-0.0497335498284533
5.84,-0.172350982489807,-0.0453012054548894
5.85,-0.178398304658471,-0.0402114090088569
5.86,-0.184289456972432,-0.0344444866638214
5.87,-0.189893831023233,-0.0280109221797035
5.88,-0.19508552954552,-0.0209510379098645
5.89,-0.199750220555626,-0.0133330517454644
5.9,-0.20379135726251,-0.00524961591226578
5.91,-0.20713544716477,0.00318699020815668
5.92,-0.209736085973071,0.0118507813064048
5.93,-0.211576524020859,0.0206088074933465
5.94,-0.212670589616704,0.0293283707505696
5.95,-0.213061874012123,0.037884326655126
5.96,-0.212821172490368,0.0461660541748524
5.97,-0.212042277155009,0.054083674552597
5.98,-0.210836326052349,0.061573117084404
5.99,-0.209325013394528,0.0685996874512466
6,-0.207633056274719,0.0751598707666195
6.01,-0.205880381092168,0.0812812115754525
6.02,-0.204174526871492,0.0870202363886547
6.03,-0.20260376315038,0.0924585195578766
6.04,-0.201231381784766,0.0976971221094205
6.05,-0.200091547509812,0.102849751183463
6.06,-0.19918698760784,0.108035076433464
6.07,-0.198488675377413,0.113368699593521
6.08,-0.197937529085335,0.118955294220021
6.09,-0.197448010402486,0.124881414544429
6.1,-0.196913387644998,0.131209424319762
6.11,-0.196212325089003,0.137972913986428
6.12,-0.195216385156141,0.145173875795832
6.13,-0.193797985275014,0.152781793415442
6.14,-0.191838332389256,0.160734687062263
6.15,-0.189234872521546,0.168942041269962
6.16,-0.185907826337837,0.177289440224287
6.17,-0.181805436742645,0.185644645523959
6.18,-0.176907628241064,0.193864774562308
6.19,-0.171227858591872,0.201804182675063
6.2,-0.164813039519229,0.209322609343737
6.21,-0.157741500040904,0.216293132094359
6.22,-0.150119072253396,0.222609465804809
6.23,-0.142073482893161,0.228192171920999
6.24,-0.133747336570579,0.232993383689045
6.25,-0.125290068470957,0.236999722045029
6.26,-0.116849324276134,0.240233173019893
6.27,-0.108562281689034,0.242749805531626
6.28,-0.100547455132882,0.244636344992033
6.29,-0.092897522126155,0.246004752696394
6.3,-0.0856736646836971,0.246985101741778
6.31,-0.0789018394354476,0.247717167834387
6.32,-0.0725712742525171,0.248341255867458
6.33,-0.0666353452184287,0.248988857938578
6.34,-0.0610148249579845,0.249773765112216
6.35,-0.0556033278732922,0.250784241800275
6.36,-0.0502746167939771,0.252076808936381
6.37,-0.0448912988288351,0.253672075803536
6.38,-0.0393143367985802,0.255552922600383
6.39,-0.0334127375254905,0.257665169019474
6.4,-0.0270727703526173,0.259920694357808
6.41,-0.0202060988726239,0.262202801308602
6.42,-0.0127562925737251,0.264373465187051
6.43,-0.00470329665206861,0.26628198754785
6.44,0.0039344166470284,0.267774484984421
6.45,0.013100136871819,0.268703600502475
6.46,0.0227016062218782,0.268937822582861
6.47,0.0326159253402335,0.268369833420213
6.48,0.0426963537756185,0.266923382497816
6.49,0.0527805770825643,0.264558277369375
6.5,0.0626999378431916,0.26127320531666
6.51,0.072289075587812,0.257106227882601
6.52,0.0813954119315068,0.252132923032663
6.53,0.0898879235251076,0.246462282515914
6.54,0.0976646919499638,0.240230593039572
6.55,0.104658783273575,0.233593642042363
6.56,0.110842095225286,0.22671768146073
6.57,0.11622691846365,0.219769660805142
6.58,0.120865078195918,0.212907288956319
6.59,0.124844654792156,0.206269513624863
6.6,0.128284421094966,0.199967999683223
6.61,0.131326274574,0.194080153755324
6.62,0.134126074349518,0.188644170254042
6.63,0.136843408308682,0.18365647109606
6.64,0.139630909180459,0.179071777950933
6.65,0.142623794601033,0.174805893947598
6.66,0.145930322635026,0.170741101129718
6.67,0.149623823401209,0.166733894945633
6.68,0.153736889159157,0.162624610078698
6.69,0.15825817664759,0.158248338762235
6.7,0.163132112856352,0.153446433065898
6.71,0.168261596214152,0.148077813248952
6.72,0.173513576466183,0.142029297205328
6.73,0.178727184545664,0.135224210094716
6.74,0.183723893086863,0.127628645765439
6.75,0.188319028331768,0.119254902404875
6.76,0.192333847191211,0.110161817636029
6.77,0.19560734048499,0.100451945984789
6.78,0.198006936547564,0.0902657521223455
6.79,0.199437353690348,0.0797732092004861
6.8,0.1998469828487,0.0691633783406921
6.81,0.199231359291925,0.058632690769788
6.82,0.197633490116168,0.0483727402067509
6.83,0.195141030877578,0.038558424808552
6.84,0.191880522588006,0.0293372407506133
6.85,0.188009102873194,0.0208204418220552
6.86,0.183704272296466,0.0130766401147471
6.87,0.179152417370946,0.0061282450001301
6.88,0.17453686512024,-4.90569677932002E-05
6.89,0.170026255672544,-0.00552378711897918
6.9,0.165763986558131,-0.0104033283600607
6.91,0.16185939494107,-0.0148261292728583
6.92,0.158381219271077,-0.0189519907502146
6.93,0.155353729146282,-0.0229510775648521
6.94,0.152755735368214,-0.0269923644964437
6.95,0.150522511090357,-0.0312322496841334
6.96,0.148550477068014,-0.03580404839895
6.97,0.146704333461398,-0.0408090122503889
6.98,0.144826178860463,-0.0463094259355311
6.99,0.142746038830617,-0.0523241966341553
7,0.140293143729038,-0.0588272019501193
7.01,0.137307253781117,-0.0657484911025681
7.02,0.133649325547808,-0.0729782621663922
7.03,0.129210855346947,-0.0803733668120236
7.04,0.123921312902248,-0.0877659388396469
7.05,0.117753196860427,-0.0949736084026514
7.06,0.110724386003333,-0.101810662744557
7.07,0.102897632719846,-0.108099451351959
7.08,0.0943772223821986,-0.113681312446778
7.09,0.0853030025305835,-0.118426324869449
7.1,0.0758421592173742,-0.122241261201044
7.11,0.066179261788643,-0.125075230186828
7.12,0.056505211656611,-0.12692264537298
7.13,0.0470058068233947,-0.127823329586439
7.14,0.0378506540305759,-0.12785975188615
7.15,0.0291831416461516,-0.127151580523818
7.16,0.0211121126391825,-0.125847910155019
7.17,0.0137057637039437,-0.124117671390998
7.18,0.0069881489459038,-0.122138847105997
7.19,0.0009384954453883,-0.12008718880962
7.2,-0.00450664833242697,-0.118125155305744
7.21,-0.00944858727756154,-0.116391772815511
7.22,-0.0140193051586631,-0.114994046323007
7.23,-0.018372411845616,-0.114000449560541
7.24,-0.0226727931553991,-0.113436879634471
7.25,-0.0270856178902475,-0.113285308484251
7.26,-0.0317653856434865,-0.11348519002632
7.27,-0.0368456885783199,-0.113937517300637
7.28,-0.0424303090255305,-0.114511264100298
7.29,-0.048586186341145,-0.115051803333368
7.3,-0.0553386742974021,-0.115390785624998
7.31,-0.0626693668233269,-0.115356874886442
7.32,-0.0705166242632434,-0.114786692398462
7.33,-0.0787787676420895,-0.113535308040984
7.34,-0.0873197560909849,-0.111485644788597
7.35,-0.095977014907804,-0.108556223102448
7.36,-0.104570952222396,-0.104706765222566
7.37,-0.112915599105145,-0.0999413024854487
7.38,-0.120829731201023,-0.0943085723463068
7.39,-0.128147796613343,-0.0878996529826459
7.4,-0.134729969214211,-0.0808429491381204
7.41,-0.140470693024743,-0.0732968092845885
7.42,-0.145305163070038,-0.0654402055429812
7.43,-0.149213305768603,-0.0574620377282253
7.44,-0.152220973417405,-0.0495497240314778
7.45,-0.154398240778168,-0.0418777959088159
7.46,-0.155854874904218,-0.0345972330108659
7.47,-0.156733239174904,-0.0278262353073728
7.48,-0.157199063100537,-0.0216430487486793
7.49,-0.15743065917581,-0.0160813364303895
7.5,-0.157607281512545,-0.0111284183074178
7.51,-0.15789738396494,-0.0067265213295762
7.52,-0.158447553602026,-0.00277697570954424
7.53,-0.159372854302748,0.00085290514787632
7.54,-0.160749224606046,0.00432070504078487
7.55,-0.162608439125439,0.0077981455186112
7.56,-0.164935969036887,0.0114593953581906
7.57,-0.167671882216356,0.0154692234173447
7.58,-0.17071471974476,0.0199717757830046
7.59,-0.17392808556794,0.0250807138884475
7.6,-0.177149506309123,0.0308713563695267
7.61,-0.180200972763552,0.037375328027536
7.62,-0.182900468110573,0.0445780505187934
7.63,-0.185073727747328,0.0524192211577875
7.64,-0.186565474275671,0.0607962280281477
7.65,-0.187249407303487,0.0695702630545533
7.66,-0.187036320844065,0.0785747236822372
