"Freq [GHz]","re(S(Antenna1_1_1,Antenna1_1_1)) []","im(S(Antenna1_1_1,Antenna1_1_1)) []"
3,-0.239766363150263,-0.183184929191029
3.01,-0.245133763758218,-0.173428797101617
3.02,-0.250299646894938,-0.163518273165062
3.03,-0.255258035143336,-0.153395919975912
3.04,-0.25998297749231,-0.143006842906912
3.05,-0.26442988802089,-0.132304143844598
3.06,-0.268538322511641,-0.121253813113638
3.07,-0.27223598264958,-0.109838685348015
3.08,-0.275443640928156,-0.0980611578335896
3.09,-0.278080608757586,-0.0859444693545494
3.1,-0.280070329077246,-0.0735324514974
3.11,-0.281345669739972,-0.0608877853790422
3.12,-0.281853522629687,-0.0480889125331656
3.13,-0.281558373533593,-0.0352258534228041
3.14,-0.280444595297693,-0.0223952642796813
3.15,-0.278517320122871,-0.0096951178121581
3.16,-0.2758018617701,0.00278058989639893
3.17,-0.272341769568453,0.0149467157753244
3.18,-0.268195699658458,0.0267310844603755
3.19,-0.26343337205231,0.0380775656967189
3.2,-0.258130941170211,0.0489479289462933
3.21,-0.25236613812307,0.0593223891447837
3.22,-0.246213544437655,0.0691988597541799
3.23,-0.239740328987952,0.0785910245336501
3.24,-0.233002728901833,0.0875254209696301
3.25,-0.226043486000673,0.0960377897389123
3.26,-0.218890367002598,0.104168982544308
3.27,-0.211555813057354,0.111960734286631
3.28,-0.204037678619964,0.119451594780755
3.29,-0.196320949740921,0.126673283438809
3.3,-0.188380271175788,0.133647682797078
3.31,-0.180183071967796,0.14038462690559
3.32,-0.171693056825178,0.146880576971352
3.33,-0.162873826701,0.153118211972947
3.34,-0.153692405161034,0.159066903871426
3.35,-0.144122472618588,0.164683997090219
3.36,-0.134147145182098,0.169916773337373
3.37,-0.123761176012302,0.174704957891097
3.38,-0.112972496965621,0.178983607865835
3.39,-0.101803059144697,0.182686221467156
3.4,-0.090288965336948,0.185747910514673
3.41,-0.0784799175337757,0.188108490387192
3.42,-0.066438026953111,0.189715356172488
3.43,-0.0542360530723211,0.190526029123156
3.44,-0.0419551525821597,0.190510274531224
3.45,-0.0296822326802391,0.189651707901358
3.46,-0.0175070127854894,0.187948821994748
3.47,-0.00551890996403483,0.185415383687807
3.48,0.00619612753907029,0.182080167119581
3.49,0.0175587044231763,0.177986010708095
3.5,0.0284988391811349,0.173188209861966
3.51,0.0389584575224697,0.167752285125518
3.52,0.0488933759291147,0.161751198578543
3.53,0.0582746432132621,0.155262125165326
3.54,0.0670891279649224,0.148362920634556
3.55,0.0753392679349341,0.141128460804955
3.56,0.0830419395395123,0.133627052293917
3.57,0.0902264529104163,0.125917132884951
3.58,0.0969317356845154,0.118044483133823
3.59,0.103202826815427,0.110040160185796
3.6,0.109086860237397,0.10191933736861
3.61,0.114628770084808,0.0936811876417083
3.62,0.119866989854262,0.0853098896310882
3.63,0.124829441274992,0.0767767616593439
3.64,0.129530114488233,0.0680434495832577
3.65,0.133966520990284,0.0590660108702261
3.66,0.138118261014743,0.0497996601455101
3.67,0.141946881255477,0.0402038738996951
3.68,0.14539711737769,0.0302475040624222
3.69,0.14839951781741,0.0199135235822624
3.7,0.15087434234391,0.00920302972894044
3.71,0.152736524412901,-0.00186183862240161
3.72,0.153901393650402,-0.0132363528538425
3.73,0.154290776739602,-0.0248532129434908
3.74,0.153839044630368,-0.0366242216892874
3.75,0.152498652173025,-0.0484435837801835
3.76,0.150244729860954,-0.0601926721617477
3.77,0.147078336497407,-0.0717459843337725
3.78,0.143028062925415,-0.0829779047324125
3.79,0.138149789368478,-0.093769809343991
3.8,0.132524529294579,-0.104016999759719
3.81,0.126254438159952,-0.113634943381983
3.82,0.119457209075253,-0.122564327294757
3.83,0.112259210977707,-0.130774503326097
3.84,0.104787836319862,-0.138265009609991
3.85,0.097163603534595,-0.145064989127527
3.86,0.0894925990699218,-0.151230482866339
3.87,0.081859836839526,-0.156839737876797
3.88,0.074324061977361,-0.161986828931344
3.89,0.0669144286556352,-0.166774032801157
3.9,0.0596293510782531,-0.171303503573837
3.91,0.0524376639923675,-0.175668867161345
3.92,0.0452820546432149,-0.179947375731886
3.93,0.0380845491259048,-0.184193235296242
3.94,0.0307536711693979,-0.188432641347507
3.95,0.0231927529299441,-0.192660938160875
3.96,0.015308775260602,-0.19684215705505
3.97,0.0070210629602768,-0.200911010130469
3.98,-0.0017308408132986,-0.204777223704624
3.99,-0.0109807442670737,-0.208331911694913
4,-0.0207313399445912,-0.211455523175424
4.01,-0.0309520731062862,-0.214026770199135
4.02,-0.0415795413748333,-0.215931856308689
4.03,-0.0525204231371441,-0.217073294904706
4.04,-0.0636567358787381,-0.217377631734843
4.05,-0.0748530404898947,-0.216801464917141
4.06,-0.0859650521721205,-0.215335284072704
4.07,-0.0968490059912453,-0.21300481874299
4.08,-0.10737106119769,-0.209869777422306
4.09,-0.117416023815384,-0.206020063807338
4.1,-0.126894717225942,-0.201569752118563
4.11,-0.135749435646031,-0.196649280157097
4.12,-0.143957064484232,-0.191396456264856
4.13,-0.151529632825821,-0.185946968896475
4.14,-0.158512265650256,-0.180425123786951
4.15,-0.16497870279463,-0.174935513851459
4.16,-0.171024742235856,-0.169556249872728
4.17,-0.176760121750166,-0.164334255862299
4.18,-0.182299471864341,-0.159282968409165
4.19,-0.187753037204497,-0.154382590337953
4.2,-0.193217875474932,-0.149582849608941
4.21,-0.198770196543943,-0.144808021936096
4.22,-0.2044594086806,-0.139963803192995
4.23,-0.210304297909753,-0.134945482365856
4.24,-0.216291596632778,-0.129646773034945
4.25,-0.222377008031616,-0.123968622224283
4.26,-0.228488564373649,-0.117827330573211
4.27,-0.2345320195689,-0.111161381920817
4.28,-0.240397827433017,-0.103936494018107
4.29,-0.245969145182289,-0.0961485476688088
4.3,-0.251130237433851,-0.0878242220682786
4.31,-0.255774640546493,-0.0790193440822507
4.32,-0.259812482189666,-0.0698151318476464
4.33,-0.263176432699009,-0.0603126686378066
4.34,-0.265825882904135,-0.0506260680387282
4.35,-0.267749090144298,-0.0408748742256622
4.36,-0.268963195883318,-0.0311762841909099
4.37,-0.269512181348442,-0.0216377703738501
4.38,-0.269462980971107,-0.0123506331324457
4.39,-0.268900102549086,-0.00338492262731004
4.4,-0.267919201629321,0.00521394841341559
4.41,-0.266620118420667,0.0134267187493174
4.42,-0.265099903590696,0.0212598841350639
4.43,-0.263446338263197,0.0287435009672049
4.44,-0.261732394530524,0.0359274234779714
4.45,-0.260011993115947,0.0428763139402453
4.46,-0.258317302330492,0.0496638397958999
4.47,-0.256657699140823,0.0563665088661061
4.48,-0.255020384466783,0.0630575992022374
4.49,-0.253372527682598,0.0698016071758936
4.5,-0.251664709860074,0.0766495785233654
4.51,-0.249835357256838,0.0836356016762946
4.52,-0.247815802264442,0.0907746460321513
4.53,-0.245535587713403,0.098061818354972
4.54,-0.242927636147685,0.105473009556196
4.55,-0.239932939517974,0.112966806039246
4.56,-0.236504480797684,0.120487461774721
4.57,-0.232610170847207,0.127968667416299
4.58,-0.228234666758487,0.135337816608538
4.59,-0.223380022326235,0.142520457382539
4.6,-0.218065204032013,0.149444626755082
4.61,-0.212324577820138,0.156044797226184
4.62,-0.206205532160347,0.162265209490132
4.63,-0.199765445447347,0.168062423858394
4.64,-0.193068230819675,0.173406985282891
4.65,-0.18618070064161,0.178284162197072
4.66,-0.179168981945091,0.182693779330993
4.67,-0.172095193494481,0.186649218774516
4.68,-0.165014560874146,0.190175707459356
4.69,-0.157973104906994,0.193308039985502
4.7,-0.151005994715879,0.196087907437928
4.71,-0.144136611027215,0.198561008282203
4.72,-0.137376321848316,0.20077411679659
4.73,-0.130724934907489,0.202772269453581
4.74,-0.124171758029971,0.204596213034826
4.75,-0.117697172620112,0.206280230720896
4.76,-0.111274608088161,0.207850435936116
4.77,-0.104872792886165,0.209323593554667
4.78,-0.0984581540110743,0.210706499104502
4.79,-0.0919972377114541,0.211995918016433
4.8,-0.0854590319347806,0.213179061613791
4.81,-0.0788170807117258,0.214234553160313
4.82,-0.0720512966716261,0.215133818401673
4.83,-0.0651493946698912,0.215842818145346
4.84,-0.058107888965502,0.216324029289334
4.85,-0.0509326183455128,0.216538572153962
4.86,-0.0436387844359467,0.216448378604519
4.87,-0.0362505115197313,0.216018295361198
4.88,-0.0287999566802678,0.21521802244646
4.89,-0.0213260204649673,0.214023794436948
4.9,-0.0138727246494187,0.212419726870094
4.91,-0.00648734026332369,0.210398764067477
4.92,0.000781641307810821,0.207963186122202
4.93,0.00788659230483404,0.205124652356092
4.94,0.0147827861421999,0.201903781820179
4.95,0.0214302870407338,0.19832929334496
4.96,0.0277955994963504,0.194436748827023
4.97,0.0338529963597111,0.1902669627795
4.98,0.0395854604541774,0.185864157290923
4.99,0.0449851930696111,0.181273952950745
5,0.0500536635510763,0.176541295051564
5.01,0.0548011968671256,0.171708416720588
5.02,0.0592461165352492,0.166812939417732
5.03,0.0634134824546615,0.161886204925516
5.04,0.0673334818178468,0.156951922708456
5.05,0.0710395477233041,0.152025202812766
5.06,0.0745662938131973,0.147112027838813
5.07,0.0779473630418255,0.142209197512588
5.08,0.0812132950315812,0.137304760534548
5.09,0.0843895183971608,0.132378923412164
5.1,0.0874945726163369,0.127405407227653
5.11,0.0905386568228376,0.122353198085081
5.12,0.0935225932350984,0.117188618486396
5.13,0.0964372767112128,0.111877625406278
5.14,0.099263662819747,0.106388225576659
5.15,0.101973322433798,0.100692884936177
5.16,0.104529564611945,0.0947708010275646
5.17,0.106889097801807,0.0886099047475126
5.18,0.109004169966189,0.0822084622023646
5.19,0.110825093571571,0.0755761598595036
5.2,0.112303034750352,0.068734576380349
5.21,0.113392917596026,0.0617169719827731
5.22,0.11405627672158,0.054567363354747
5.23,0.114263879612296,0.0473388919936923
5.24,0.113997940360821,0.0400915401100224
5.25,0.11325375787515,0.0328892942908214
5.26,0.112040635149025,0.0257969025099767
5.27,0.110381973947125,0.0188764063445171
5.28,0.108314485146664,0.0121836629468637
5.29,0.105886511470665,0.00576508513305482
5.3,0.103155521140642,-0.00034516776069521
5.31,0.100184891974084,-0.00612733186099515
5.32,0.0970401641754842,-0.0115773291066589
5.33,0.0937849901763516,-0.0167070686189196
5.34,0.0904770459890139,-0.0215436849881209
5.35,0.0871641869549207,-0.026127711002781
5.36,0.0838811316948939,-0.0305102590558083
5.37,0.0806469335588632,-0.034749362364292
5.38,0.0774634570180073,-0.0389056968293453
5.39,0.0743150128343533,-0.0430379616273201
5.4,0.0711692288565779,-0.0471982343486126
5.41,0.0679791446732776,-0.0514276354962833
5.42,0.0646864277396835,-0.0557526266305041
5.43,0.0612255207504669,-0.0601822354415216
5.44,0.0575284530367287,-0.064706442252004
5.45,0.0535299891433058,-0.0692958859321007
5.46,0.0491727514979495,-0.0739029535901382
5.47,0.0444119424349862,-0.0784642183090378
5.48,0.0392193109777013,-0.0829040870575053
5.49,0.0335860537407923,-0.087139426417194
5.5,0.0275244110517285,-0.0910848554393634
5.51,0.0210678111546361,-0.0946583361971024
5.52,0.0142695180504169,-0.0977866629963353
5.53,0.00719985082245144,-0.100410449148421
5.54,-5.78518560481004E-05,-0.102488240406188
5.55,-0.0074122518325336,-0.103999441283504
5.56,-0.0147696690177659,-0.104945824154704
5.57,-0.0220399762651719,-0.105351491265687
5.58,-0.0291423108240567,-0.105261272494794
5.59,-0.036010187561783,-0.104737656468393
5.6,-0.0425956418005189,-0.103856460556975
5.61,-0.048872094555678,-0.102701539126511
5.62,-0.054835726320989,-0.101358902464673
5.63,-0.0605052502786921,-0.099910662397517
5.64,-0.0659200934629325,-0.098429236348851
5.65,-0.0711371073950255,-0.096972223497904
5.66,-0.0762260371336086,-0.095578320180726
5.67,-0.0812640658346741,-0.0942645667627732
5.68,-0.0863298197962056,-0.0930251244084889
5.69,-0.091497255351605,-0.0918316699887452
5.7,-0.096829858406116,-0.0906353832875884
5.71,-0.102375564103163,-0.0893703879979715
5.72,-0.108162752055156,-0.0879584054956949
5.73,-0.114197596999424,-0.0863142964325627
5.74,-0.120462957936483,-0.0843521034769816
5.75,-0.126918882076747,-0.0819911758837236
5.76,-0.133504685957192,-0.0791619511972252
5.77,-0.140142468870247,-0.0758109959718851
5.78,-0.146741813474931,-0.0719049599630727
5.79,-0.153205348803159,-0.0674331735828013
5.8,-0.159434793152182,-0.0624087142973035
5.81,-0.165337062106991,-0.0568678722769727
5.82,-0.170830025384189,-0.0508680550994111
5.83,-0.175847520467084,-0.0444842789234533
5.84,-0.180343284225807,-0.0378044880193894
5.85,-0.184293537935971,-0.0309240244418569
5.86,-0.187698053397432,-0.0239396255018214
5.87,-0.190579632130233,-0.0169433587357035
5.88,-0.19298203719652,-0.0100169061508645
5.89,-0.194966522131626,-0.00322658571246444
5.9,-0.19660719661271,0.00338055310673422
5.91,-0.19798554753117,0.00977929709715668
5.92,-0.199184490355071,0.0159673272833048
5.93,-0.200282357985859,0.0219646996983465
5.94,-0.201347237638704,0.0278117863265696
5.95,-0.202432042526123,0.033565820597126
5.96,-0.203570654954368,0.0392962866571524
5.97,-0.204775402755009,0.045079469794797
5.98,-0.206036041145549,0.050992544770404
5.99,-0.207320306578528,0.0571076081662466
6,-0.208576002748719,0.0634860660626195
6.01,-0.209734471535168,0.0701737630504525
6.02,-0.210715207307092,0.0771971868236547
6.03,-0.21143129306118,0.0845610078798766
6.04,-0.211795281520766,0.0922471205659205
6.05,-0.211725112527812,0.100215247355463
6.06,-0.21114965817784,0.108405058465464
6.07,-0.210013513569413,0.116739653664521
6.08,-0.208280704788335,0.125130158826921
6.09,-0.205937064742486,0.133481111864529
6.1,-0.202991120119998,0.141696259669762
6.11,-0.199473440174203,0.149684361049428
6.12,-0.195434505449141,0.157364592761832
6.13,-0.190941259197014,0.164671187536442
6.14,-0.186072594890556,0.171556989474263
6.15,-0.180914106933546,0.177995693064962
6.16,-0.175552478857837,0.183982627048287
6.17,-0.170069905301645,0.189534048624359
6.18,-0.164538936025064,0.194685020683308
6.19,-0.159018094379872,0.199486042282063
6.2,-0.153548562682229,0.203998690292137
6.21,-0.148152145532904,0.208290593392759
6.22,-0.142830628956396,0.212430103070809
6.23,-0.137566550684061,0.216481039040999
6.24,-0.132325297329579,0.220497873876045
6.25,-0.127058353175957,0.224521682170029
6.26,-0.121707446082534,0.228577117179893
6.27,-0.116209282167034,0.232670600249626
6.28,-0.110500524987882,0.236789815599033
6.29,-0.104522669938155,0.240904511078394
6.3,-0.0982264814316971,0.244968512258978
6.31,-0.0915757016514476,0.248922776422387
6.32,-0.0845498010705171,0.252699246208558
6.33,-0.0771456141834287,0.256225215600278
6.34,-0.0693777883459845,0.259427896446216
6.35,-0.0612780569312922,0.262238872378275
6.36,-0.0528934283636771,0.264598147022381
6.37,-0.0442834529458351,0.266457534222536
6.38,-0.0355167831844802,0.267783193875383
6.39,-0.0266672826401395,0.268557182935474
6.4,-0.0178099534414173,0.268777964545808
6.41,-0.0090169530276239,0.268459888764602
6.42,-0.00035394883372512,0.267631726394351
6.43,0.00812297535393139,0.26633439319785
6.44,0.0163696957470284,0.264618046945421
6.45,0.024355596925819,0.262538767975875
6.46,0.0320642410308782,0.260155047823861
6.47,0.0394931629532335,0.257524307379213
6.48,0.0466528507956185,0.254699650375816
6.49,0.0535650146145643,0.251727030615375
6.5,0.0602602812941916,0.24864297415266
6.51,0.066775477888712,0.245472957493601
6.52,0.0731506757172068,0.242230497933663
6.53,0.0794261710151076,0.238916970937914
6.54,0.0856395676979638,0.235522128779572
6.55,0.0918231124425752,0.232025260853363
6.56,0.098001410043286,0.22839690827673
6.57,0.10418962153465,0.224601023195442
6.58,0.110392218295918,0.220597449220029
6.59,0.116602338289156,0.216344590566963
6.6,0.122801761211966,0.211802135306223
6.61,0.1289614930035,0.206933699460324
6.62,0.135042924334518,0.201709265930042
6.63,0.140999505199682,0.19610730215506
6.64,0.146778855728959,0.190116453632933
6.65,0.152325214444233,0.183736728122598
6.66,0.157582109583026,0.176980104526718
6.67,0.162495124731209,0.169870524922333
6.68,0.167014622052157,0.162443253570698
6.69,0.17109828120259,0.154743617141235
6.7,0.174713314250352,0.146825170276298
6.71,0.177838225057152,0.138747363729952
6.72,0.180463998331183,0.130572822352328
6.73,0.182594626472664,0.122364369679716
6.74,0.184246915498863,0.114181957677439
6.75,0.185449548297768,0.106079677970875
6.76,0.186241427531611,0.098103036112029
6.77,0.18666936607144,0.090286666985789
6.78,0.186785238395264,0.0826526527033455
6.79,0.186642748223348,0.0752095759194861
6.8,0.1862940018597,0.0679524013686921
6.81,0.185786101317925,0.060863228828788
6.82,0.185157981521168,0.0539129051007509
6.83,0.184437712073578,0.047063422284952
6.84,0.183640462964006,0.0402709729850133
6.85,0.182767297871194,0.0334894801780552
6.86,0.181804908424566,0.0266743776037471
6.87,0.180726341078946,0.0197863894161301
6.88,0.17949270047924,0.0127950461012068
6.89,0.178055742617844,0.00568168310402082
6.9,0.176361203624331,-0.00155830482706074
6.91,0.17435265219707,-0.0089141347708583
6.92,0.171975608240077,-0.0163593522037146
6.93,0.169181642830282,-0.0238526416148521
6.94,0.165932168321214,-0.0313397010994437
6.95,0.162201641762357,-0.0387560727795334
6.96,0.157979940118014,-0.04603074858505
6.97,0.153273722562398,-0.0530903102743889
6.98,0.148106663148463,-0.0598633180485311
6.99,0.142518519155617,-0.0662846394621553
7,0.136563084263038,-0.0722994088521193
7.01,0.130305158310617,-0.0778663303405681
7.02,0.123816738856508,-0.0829600815793922
7.03,0.117172698775947,-0.0875726386490236
7.04,0.110446254479248,-0.0917134194510469
7.05,0.103704546466427,-0.0954082288076514
7.06,0.097004648268333,-0.0986970750415567
7.07,0.0903902890128463,-0.101631011283559
7.08,0.0838895245401986,-0.104268225517178
7.09,0.0775135230805835,-0.106669658090449
7.1,0.0712565502483742,-0.108894460300044
7.11,0.065097151406643,-0.110995618075828
7.12,0.059000443129611,-0.11301605200498
7.13,0.0529213449118947,-0.114985469656439
7.14,0.0468085165859759,-0.11691818980815
7.15,0.0406087167551516,-0.118812087481818
7.16,0.0342712700401825,-0.120648727021019
7.17,0.0277523257839437,-0.122394664678198
7.18,0.0210186082839038,-0.124003819058997
7.19,0.0140503984493883,-0.12542073322852
7.2,0.00684354421757303,-0.126584490029644
7.21,-0.00058963247156154,-0.127432999549511
7.22,-0.0082205840266631,-0.127907354929007
7.23,-0.016005911221716,-0.127955951229541
7.24,-0.0238897544633991,-0.127538083809471
7.25,-0.0318070244453475,-0.126626782249251
7.26,-0.0396872383130865,-0.12521069376132
7.27,-0.0474586888733199,-0.123294898022637
7.28,-0.0550526557795305,-0.120900611664298
7.29,-0.062407368828145,-0.118063818920168
7.3,-0.0694714558584021,-0.114832936800998
7.31,-0.0762066475513269,-0.111265689659942
7.32,-0.0825895655662434,-0.107425417863062
7.33,-0.0886124874160895,-0.103377081595984
7.34,-0.0942830520339849,-0.099183236541597
7.35,-0.099622944034804,-0.0949002555854476
7.36,-0.104665662909396,-0.0905750495885664
7.37,-0.109453544761945,-0.0862425015584487
7.38,-0.114034251764323,-0.0819237769853068
7.39,-0.118456977302743,-0.0776256098446459
7.4,-0.122768630385211,-0.0733405968521204
7.41,-0.127010259655743,-0.0690484623195885
7.42,-0.131213956867038,-0.0647181911204812
7.43,-0.135400443415603,-0.0603108698341253
7.44,-0.139577493772405,-0.0557830299271778
7.45,-0.143739289657168,-0.0510902562498159
7.46,-0.147866734809218,-0.0461908095418659
7.47,-0.151928693061904,-0.0410490144433728
7.48,-0.155884050482077,-0.0356381846106793
7.49,-0.15968444757611,-0.0299428911803895
7.5,-0.163277482938375,-0.0239604296404178
7.51,-0.16661016172534,-0.0177013964925762
7.52,-0.169632347835026,-0.0111893504485442
7.53,-0.172299982576748,-0.00445959593512368
7.54,-0.174577852711046,0.00244281314078487
7.55,-0.176441724535439,0.0094656988581112
7.56,-0.177879708490887,0.0165528228291306
7.57,-0.178892773802356,0.0236471686653447
7.58,-0.17949439326976,0.0306942132350046
7.59,-0.17970935946194,0.0376449611784475
7.6,-0.179571870612123,0.0444585373595267
7.61,-0.179123033740652,0.051104167184536
7.62,-0.178407970568033,0.0575624205417934
7.63,-0.177472736581928,0.0638256488537875
7.64,-0.176361271706671,0.0698976041091477
7.65,-0.175112595039487,0.0757922852135533
7.66,-0.173758433821065,0.0815321120782372
