"Freq [GHz]","re(S(Antenna1_1_1,Antenna1_1_1)) []","im(S(Antenna1_1_1,Antenna1_1_1)) []"
3,-0.242542150391263,-0.180653170090029
3.01,-0.247159784049218,-0.170206612684217
3.02,-0.251407268764938,-0.159832974048962
3.03,-0.255349303664336,-0.149513862838912
3.04,-0.25903844192731,-0.139210986124912
3.05,-0.26250922089789,-0.128870690263198
3.06,-0.265774015084641,-0.118430247530638
3.07,-0.26882112276898,-0.107825207662015
3.08,-0.271615323068056,-0.0969969925785896
3.09,-0.274100833506586,-0.0858998845325494
3.1,-0.276206302533246,-0.0745066420624
3.11,-0.277851231131972,-0.0628121643870422
3.12,-0.278953064340387,-0.0508348836201656
3.13,-0.279434144228593,-0.0386158565468041
3.14,-0.279227783467693,-0.0262158107984813
3.15,-0.278282874487871,-0.0137106348201581
3.16,-0.2765666833751,-0.00118595332060107
3.17,-0.274065737048453,0.0112685165747244
3.18,-0.270784968501458,0.0235641817998755
3.19,-0.26674549195011,0.0356178529727189
3.2,-0.261981513795711,0.0473547768902933
3.21,-0.25653692709707,0.0587103372927837
3.22,-0.250462089365655,0.0696305528641799
3.23,-0.243811157150552,0.0800716708406501
3.24,-0.236640175375033,0.0899992517786301
3.25,-0.229005927195673,0.0993871549039123
3.26,-0.220965374892598,0.108216768706208
3.27,-0.212575399624354,0.116476698311631
3.28,-0.203892492027964,0.124162956111755
3.29,-0.194972071330921,0.131279526449809
3.3,-0.185867207773788,0.137839033382578
3.31,-0.176626673934996,0.14386315169619
3.32,-0.167292428314278,0.149382386924352
3.33,-0.157896803917,0.154434914056947
3.34,-0.148459806490034,0.159064296148426
3.35,-0.138986994667588,0.163316083463219
3.36,-0.129468403707098,0.167233491916373
3.37,-0.119878885700802,0.170852540539097
3.38,-0.110180079330621,0.174197166211335
3.39,-0.100324021948697,0.177274901325556
3.4,-0.090258196299948,0.180073686859673
3.41,-0.0799316043057757,0.182560299272192
3.42,-0.069301306275111,0.184680706381488
3.43,-0.0583387768823211,0.186362457653456
3.44,-0.0470354242605597,0.187518989146024
3.45,-0.0354066925561391,0.188055509427358
3.46,-0.0234943101394894,0.187875961503748
3.47,-0.0113664344630348,0.186890444917807
3.48,0.00088434451907029,0.185022443667581
3.49,0.0131449754447763,0.182215238442095
3.5,0.0252875487218349,0.178436977618166
3.51,0.0371760613354697,0.173684022908218
3.52,0.0486737992301147,0.167982350866543
3.53,0.0596507789022621,0.161386960497326
3.54,0.0699907240609224,0.153979392532556
3.55,0.0795971245039341,0.145863589520955
3.56,0.0883980219855123,0.137160419690117
3.57,0.0963492703789363,0.128001241415951
3.58,0.103436122617015,0.118520912549823
3.59,0.109673089482427,0.108850650279796
3.6,0.115102098208397,0.09911113536861
3.61,0.119789052948808,0.0894062332197083
3.62,0.123818965218862,0.0798176777820882
3.63,0.127289888482992,0.0704010299650439
3.64,0.130305956438233,0.0611831824087577
3.65,0.132969890076284,0.0521616224162261
3.66,0.135375399119743,0.0433055918835101
3.67,0.137599951820477,0.0345591810606951
3.68,0.13969841165269,0.0258462756981222
3.69,0.14169803364661,0.0170771399582624
3.7,0.14359526411851,0.00815627783694044
3.71,0.145354695374901,-0.00100891696740161
3.72,0.146910390622402,-0.0104993180748425
3.73,0.148169623063602,-0.0203756940794908
3.74,0.149018878293568,-0.0306714817032874
3.75,0.149331771756025,-0.0413873335390835
3.76,0.148978349913954,-0.0524879594914477
3.77,0.147835098712407,-0.0639016168857725
3.78,0.145794889587415,-0.0755223979874125
3.79,0.142776068335478,-0.087215231965991
3.8,0.138729936113579,-0.0988232891636987
3.81,0.133645986474752,-0.110177262205983
3.82,0.127554437049153,-0.121105832162757
3.83,0.120525810399707,-0.131446518262097
3.84,0.112667561470862,-0.141056069692991
3.85,0.104117988163595,-0.149819592365527
3.86,0.0950378832659518,-0.157657705414339
3.87,0.085600563525526,-0.164531184768497
3.88,0.075981033909361,-0.170442754177344
3.89,0.0663451025786352,-0.175435913904157
3.9,0.0568392514232531,-0.179590925595837
3.91,0.0475819916313675,-0.183018288679345
3.92,0.0386573050752149,-0.185850222078656
3.93,0.0301106009486048,-0.188230799701242
3.94,0.0219474198503979,-0.190305466307507
3.95,0.0141349160119441,-0.192210681715875
3.96,0.006605947251602,-0.19406440767105
3.97,-0.0007345690527232,-0.195958067636469
3.98,-0.0080015199284986,-0.197950487511624
3.99,-0.0153202671920737,-0.200064175466413
4,-0.0228167702395912,-0.202284132118424
4.01,-0.0306078185092862,-0.204559212457135
4.02,-0.0387920046318333,-0.206805900457689
4.03,-0.0474420036011441,-0.208914208755706
4.04,-0.0565986282707381,-0.210755295006643
4.05,-0.0662670132181447,-0.212190290965141
4.06,-0.0764151453761205,-0.213079777317704
4.07,-0.0869748163472453,-0.21329330770899
4.08,-0.09784492898569,-0.212718386430306
4.09,-0.108896950484384,-0.211268340403338
4.1,-0.119982178065842,-0.208888588973563
4.11,-0.130940371549031,-0.205560908938497
4.12,-0.141609220883232,-0.201305407317856
4.13,-0.151834056034821,-0.196180048998475
4.14,-0.161477180295256,-0.190277737520951
4.15,-0.17042621608563,-0.183721097663459
4.16,-0.178600901663856,-0.176655263718928
4.17,-0.185957860131166,-0.169239113468299
4.18,-0.192492985175341,-0.161635506949165
4.19,-0.198241237615497,-0.154001171673953
4.2,-0.203273821064932,-0.146476920573941
4.21,-0.207692886399943,-0.139178885174096
4.22,-0.2116240978668,-0.132191393681195
4.23,-0.215207553764753,-0.125562019835256
4.24,-0.218587690292778,-0.119299183093945
4.25,-0.221902883913616,-0.113372497216283
4.26,-0.225275502566649,-0.107715863754211
4.27,-0.2288031346169,-0.102233097753817
4.28,-0.232551640166717,-0.0968056781681069
4.29,-0.236550534588289,-0.0913020488278088
4.3,-0.240791035529851,-0.0855877762252786
4.31,-0.245226895623493,-0.0795358039392507
4.32,-0.249777927489666,-0.0730360423436464
4.33,-0.254335917899009,-0.0660035933338066
4.34,-0.258772445711135,-0.0583850274079282
4.35,-0.262947984210798,-0.0501622959273622
4.36,-0.266721581405318,-0.0413540570539099
4.37,-0.269960394791442,-0.0320144011678501
4.38,-0.272548394315107,-0.0222291634234457
4.39,-0.274393644602086,-0.01211018667931
4.4,-0.275433714249221,-0.00178803434158441
4.41,-0.275638928144967,0.00859625903941741
4.42,-0.275013357686696,0.0188997804310639
4.43,-0.273593615286197,0.0289860744602049
4.44,-0.271445671309524,0.0387326893489714
4.45,-0.268660030496947,0.0480375008882453
4.46,-0.265345685002492,0.0568235069002999
4.47,-0.261623295847923,0.0650419130506061
4.48,-0.257618057332783,0.0726734609722374
4.49,-0.253452662472598,0.0797280542508936
4.5,-0.249240734622074,0.0862428291443654
4.51,-0.245081020362838,0.0922788748002946
4.52,-0.241052572219442,0.0979168460561513
4.53,-0.237211079181603,0.103251727877472
4.54,-0.233586453357685,0.108387013634196
4.55,-0.230181731347974,0.113428555566246
4.56,-0.226973315338684,0.118478341081721
4.57,-0.223912546546207,0.123628447117299
4.58,-0.220928570241487,0.128955427175638
4.59,-0.217932413141235,0.134515389767739
4.6,-0.214822144482013,0.140340028692082
4.61,-0.211488933288138,0.146433856944184
4.62,-0.207823745333347,0.152772871269132
4.63,-0.203724355872347,0.159304827833394
4.64,-0.199102288331775,0.165951236946891
4.65,-0.19388924561425,0.172611085822072
4.66,-0.188042579757391,0.179166182634973
4.67,-0.181549363163481,0.185487883100516
4.68,-0.174428683559146,0.191444832796356
4.69,-0.166731882474994,0.196911245051502
4.7,-0.158540597255879,0.201775147543928
4.71,-0.149962627810215,0.205945990949703
4.72,-0.141125831113016,0.20936102064839
4.73,-0.132170415852489,0.211989877470581
4.74,-0.123240165931971,0.213837011622826
4.75,-0.114473230064112,0.214941657081896
4.76,-0.105993175478161,0.215375306979116
4.77,-0.097901001606165,0.215236837876667
4.78,-0.0902687430922743,0.214645629364302
4.79,-0.0831351677768541,0.213733198296433
4.8,-0.0765039031037806,0.212633991146791
4.81,-0.0703441221837258,0.211476049766313
4.82,-0.0645937091526261,0.210372266230673
4.83,-0.0591646188588912,0.209412884600446
4.84,-0.053949975692502,0.208659788656734
4.85,-0.0488323280881128,0.208142952198262
4.86,-0.0436924070559467,0.207859242467519
4.87,-0.0384177255207313,0.207773568393198
4.88,-0.0329104057082678,0.20782218549846
4.89,-0.0270937176569673,0.207917811935948
4.9,-0.0209169486845187,0.207956099315094
4.91,-0.0143583730091137,0.207822935983477
4.92,-0.00742625182408918,0.207402047667202
4.93,-0.00015793572316596,0.206582386986092
4.94,0.0073827376541999,0.205264874576179
4.95,0.0151094690327338,0.20336813985896
4.96,0.0229186126303504,0.200833015180523
4.97,0.0306950266160111,0.1976256351973
4.98,0.0383183102011774,0.193739085379023
4.99,0.0456691078696111,0.189193616508745
5,0.0526351935560763,0.184035497172564
5.01,0.0591170883101256,0.178334615725588
5.02,0.0650329975822492,0.172180966937732
5.03,0.0703228818115615,0.165680178983616
5.04,0.0749514960575868,0.158948255623756
5.05,0.0789102512658041,0.152105730693766
5.06,0.0822177728461973,0.145271464097813
5.07,0.0849190626588255,0.138556342082588
5.08,0.0870832142525812,0.132057185325548
5.09,0.0887996993461608,0.125851197334164
5.1,0.0901733192221369,0.119991305569253
5.11,0.0913180155218376,0.114502740935681
5.12,0.0923498326910984,0.109381167837396
5.13,0.0933794237642128,0.104592606007278
5.14,0.094504569268747,0.100075284637659
5.15,0.095803229693798,0.0957434352161767
5.16,0.097327660600945,0.0914928824316046
5.17,0.099100082672497,0.0872081338025126
5.18,0.101110311998489,0.0827705287853646
5.19,0.103315623835571,0.0780668867245036
5.2,0.105642956248352,0.072998022602349
5.21,0.107993373290026,0.0674864752867731
5.22,0.11024851394728,0.061482831859747
5.23,0.112278581716296,0.0549701257487923
5.24,0.113951288051821,0.0479659336227224
5.25,0.11514107321015,0.0405219786838214
5.26,0.115737896240025,0.0327212530519767
5.27,0.115654921646125,0.0246728760415171
5.28,0.114834518444664,0.0165050904802637
5.29,0.113252134822765,0.00835694569805482
5.3,0.110917788550442,0.00036931483530479
5.31,0.107875111300084,-0.00732407102599515
5.32,0.104198081691484,-0.014604909882659
5.33,0.0999857556723516,-0.0213773541589196
5.34,0.0953554453810139,-0.0275733133561209
5.35,0.0904348922772207,-0.033155729457281
5.36,0.0853540232948939,-0.0381196855849083
5.37,0.0802368727198632,-0.042491377904292
5.38,0.0751942007150073,-0.0463251290023453
5.39,0.0703172529393533,-0.0496987430813201
5.4,0.0656729923915779,-0.0527075912046126
5.41,0.0613010162670776,-0.0554578643800833
5.42,0.0572122455285835,-0.0580594469195041
5.43,0.0533893648904669,-0.0606188460075216
5.44,0.0497888947987287,-0.063232573789004
5.45,0.0463447006123058,-0.0659813217171007
5.46,0.0429726863549495,-0.0689252017411382
5.47,0.0395763839329862,-0.0721002614670378
5.48,0.0360531232607013,-0.0755164091004153
5.49,0.0323004572027923,-0.079156821289194
5.5,0.0282225145177285,-0.0829788397373634
5.51,0.0237359585126361,-0.0869162994881024
5.52,0.0187752466764169,-0.0908831719123353
5.53,0.0132969103444514,-0.0947783398774206
5.54,0.0072826136837919,-0.0984912655843883
5.55,0.0007408012754664,-0.101908256134504
5.56,-0.0062931866517659,-0.104918986482704
5.57,-0.0137585737841719,-0.107422908184687
5.58,-0.0215721322280567,-0.109335163777794
5.59,-0.029632545921783,-0.110591636612393
5.6,-0.0378259141456189,-0.111152808757155
5.61,-0.046032073344678,-0.111006162064511
5.62,-0.054131350019989,-0.110166948598673
5.63,-0.0620113204406921,-0.108677259311517
5.64,-0.0695731435599325,-0.106603436112851
5.65,-0.0767370580770255,-0.104031984090904
5.66,-0.0834466881747086,-0.101064244096526
5.67,-0.0896718855076741,-0.0978101687087732
5.68,-0.0954099319002056,-0.0943816037824889
5.69,-0.100685041410605,-0.0908855033567452
5.7,-0.105546209363116,-0.0874175042675884
5.71,-0.110063562125163,-0.0840562540509715
5.72,-0.114323450782156,-0.0808588283858949
5.73,-0.118422601550224,-0.0778575005455627
5.74,-0.122461684793483,-0.0750580364279816
5.75,-0.126538685309747,-0.0724395976227236
5.76,-0.130742463134192,-0.0699562414172252
5.77,-0.135146872050247,-0.0675399213808851
5.78,-0.139805770209731,-0.0651048108540727
5.79,-0.144749208398159,-0.0625527035159013
5.8,-0.149981017439182,-0.0597791892583035
5.81,-0.155477946521991,-0.0566802566719727
5.82,-0.161190422852189,-0.0531589473344111
5.83,-0.167044915147084,-0.0491316708534533
5.84,-0.172947792061807,-0.0445337987098894
5.85,-0.178790474539971,-0.0393241811658569
5.86,-0.184455594672432,-0.0334882825828214
5.87,-0.189823795697233,-0.0270397048237035
5.88,-0.19478075225552,-0.0200199638408645
5.89,-0.199223956931626,-0.0124964961094644
5.9,-0.20306881760151,-0.00455899359726578
5.91,-0.20625364568177,0.00368571150615668
5.92,-0.208743181186071,0.0121198815949048
5.93,-0.210530404584859,0.0206218060703465
5.94,-0.211636506177704,0.0290729538875696
5.95,-0.212109023999123,0.037364847968126
5.96,-0.212018299401368,0.0454051860478524
5.97,-0.211452524072009,0.053122798043597
5.98,-0.210511755467749,0.060471123056404
5.99,-0.209301340764528,0.0674300162822466
6,-0.207925215973719,0.0740058249416195
6.01,-0.206479531483168,0.0802298067504525
6.02,-0.205047000696492,0.0861550783196547
6.03,-0.20369228705538,0.0918523716918766
6.04,-0.202458644852766,0.0974049332418205
6.05,-0.201365925099812,0.102902922858463
6.06,-0.20040995842084,0.108437660148464
6.07,-0.199563245941413,0.114096030567521
6.08,-0.198776830633335,0.119955313161021
6.09,-0.197983182587486,0.126078633295429
6.1,-0.197099919291998,0.132511192738762
6.11,-0.196034179367803,0.139277383345428
6.12,-0.194687475443141,0.146378861847832
6.13,-0.192960857827014,0.153793644627442
6.14,-0.190760216556256,0.161476271561263
6.15,-0.188001538990546,0.169359077472962
6.16,-0.184615915986837,0.177354593916287
6.17,-0.180554060722645,0.185359073428959
6.18,-0.175790080101064,0.193257077173308
6.19,-0.170324222379872,0.200927000988063
6.2,-0.164184335261229,0.208247328833737
6.21,-0.157425803586904,0.215103317281359
6.22,-0.150129809471396,0.221393726117809
6.23,-0.142399860168061,0.227037150716999
6.24,-0.134356660695079,0.231977476992045
6.25,-0.126131551279957,0.236187990240029
6.26,-0.117858875919134,0.239673730768893
6.27,-0.109667773458034,0.242471791110626
6.28,-0.101673973548882,0.244649403201033
6.29,-0.093972224270155,0.246299835742394
6.3,-0.0866299620476971,0.247536311940978
6.31,-0.0796827617274476,0.248484336955387
6.32,-0.0731319755845171,0.249272973642458
6.33,-0.0669447987264287,0.250025713854578
6.34,-0.0610567986789845,0.250851637622216
6.35,-0.0553767444922922,0.251837539286275
6.36,-0.0497933787390771,0.253041622472381
6.37,-0.0441836191778351,0.254489233920536
6.38,-0.0384215709435802,0.256170937736383
6.39,-0.0323876743724905,0.258043037299474
6.4,-0.0259773285216173,0.260030461024808
6.41,-0.0191083892736239,0.262031748069602
6.42,-0.0117270563557251,0.263925725993851
6.43,-0.00381180242206861,0.26557937097985
6.44,0.0046248421090284,0.266856285645421
6.45,0.013536677024819,0.267625224496475
6.46,0.0228462765808782,0.267768134097861
6.47,0.0324492540412335,0.267187243287213
6.48,0.0422200192436185,0.265810833920816
6.49,0.0520186434825643,0.263597422129375
6.5,0.0616984198781916,0.26053818737166
6.51,0.071113699178812,0.256657582454601
6.52,0.0801276018725068,0.252012143772663
6.53,0.0886192276651076,0.246687597014914
6.54,0.0964900224089638,0.240794415173572
6.55,0.103668999349575,0.234462042348463
6.56,0.110116551865286,0.22783204513873
6.57,0.11582664439665,0.221050503192142
6.58,0.120827223063918,0.214259991586319
6.59,0.125178753851156,0.207591551133863
6.6,0.128970877291966,0.201157070659223
6.61,0.1323172644122,0.195042523817324
6.62,0.135348864776518,0.189302495744042
6.63,0.138205849277682,0.18395640145406
6.64,0.141028661586459,0.178986733242933
6.65,0.143948688319033,0.174339570643598
6.66,0.147079129283026,0.169927460477718
6.67,0.150506685398209,0.165634613564333
6.68,0.154284674059157,0.161324200122998
6.69,0.15842812138359,0.156847353615235
6.7,0.162911275668352,0.152053343220898
6.71,0.167667830947152,0.146800251403952
6.72,0.172593963823183,0.140965420459328
6.73,0.177554078178664,0.134454907824716
6.74,0.182388942493663,0.127211237195439
6.75,0.186925708962768,0.119218827474875
6.76,0.190989144199211,0.110506643062029
6.77,0.19441328894199,0.101147803974789
6.78,0.197052713852564,0.0912561203643455
6.79,0.198792552390348,0.0809797475714861
6.8,0.1995565736387,0.0704923768423121
6.81,0.199312696471925,0.059982566644788
6.82,0.198075532692168,0.0496419588287509
6.83,0.195905766981578,0.039653210503552
6.84,0.192906411167006,0.0301784881016133
6.85,0.189216197385194,0.0213493273920552
6.86,0.185000577469766,0.0132585581547471
6.87,0.180440959323946,0.0059548362901301
6.88,0.17572292776024,-0.0005598610437932
6.89,0.171024252263544,-0.00632963465997918
6.9,0.166503488227131,-0.0114410274340607
6.91,0.16228992034107,-0.0160166260358583
6.92,0.158475493411077,-0.0202063521167146
6.93,0.155109234636282,-0.0241770359918521
6.94,0.152194498070214,-0.0281009642604437
6.95,0.149689177709357,-0.0321441443341334
6.96,0.147508847668014,-0.03645503503095
6.97,0.145532604510398,-0.0411544455103889
6.98,0.143611227847463,-0.0463272300255311
6.99,0.141577138108617,-0.0520162823341553
7,0.139255527061038,-0.0582191951801193
7.01,0.136475971764117,-0.0648877852605681
7.02,0.133083814757808,-0.0719305147063922
7.03,0.128950608766947,-0.0792176656580236
7.04,0.123982975942248,-0.0865889613410469
7.05,0.118129324760427,-0.0938631764308514
7.06,0.111383987923333,-0.100849156507557
7.07,0.103788500094846,-0.107357573207959
7.08,0.0954299034231986,-0.113212685608778
7.09,0.0864361496635835,-0.118263366549449
7.1,0.0769688551433742,-0.122392684941044
7.11,0.067213833919743,-0.125525412086828
7.12,0.057369986015611,-0.12763294085298
7.13,0.0476372390983947,-0.128735263248439
7.14,0.0382043129545759,-0.12889983769915
7.15,0.0292371076561516,-0.128237378998818
7.16,0.0208684870191825,-0.126894809653019
7.17,0.0131901497139437,-0.125045805996698
7.18,0.0062471507559038,-0.122879543357997
7.19,3.54644333882999E-05,-0.12058837238862
7.2,-0.00549722552542697,-0.118355244275744
7.21,-0.0104475374635615,-0.116341727625511
7.22,-0.0149494575076631,-0.114677423983007
7.23,-0.019164914547516,-0.113451501930541
7.24,-0.0232724929183991,-0.112706922894471
7.25,-0.0274550408652475,-0.112437751959251
7.26,-0.0318870079554865,-0.11258973107432
7.27,-0.0367223620183199,-0.113064072092637
7.28,-0.0420838931755305,-0.113724206193298
7.29,-0.048054611951145,-0.114405024310168
7.3,-0.0546718046074021,-0.114923983660998
7.31,-0.0619241197633269,-0.115093331228442
7.32,-0.0697518606442434,-0.114732631366462
7.33,-0.0780504357100895,-0.113680771720984
7.34,-0.0866767177009849,-0.111806669148597
7.35,-0.095457872497804,-0.109017991082448
7.36,-0.104202065012096,-0.105267346772566
7.37,-0.112710337815145,-0.100555573295449
7.38,-0.120788890589023,-0.0949319320153068
7.39,-0.128260978292343,-0.0884912302386459
7.4,-0.134977674104211,-0.0813680753931204
7.41,-0.140826828014743,-0.0737286476145885
7.42,-0.145739670260038,-0.0657605263487812
7.43,-0.149694658958603,-0.0576612213612253
7.44,-0.152718346843405,-0.0496261366714778
7.45,-0.154883227982168,-0.0418367216248159
7.46,-0.156302709649218,-0.0344495531178659
7.47,-0.157123535621904,-0.0275870287173728
7.48,-0.157516141488977,-0.0213302513686793
7.49,-0.15766355192081,-0.0157145516103895
7.5,-0.157749523620545,-0.0107279234824178
7.51,-0.15794668207594,-0.0063124743565762
7.52,-0.158405407343026,-0.00236879504254424
7.53,-0.159244176052748,0.00123702914187632
7.54,-0.160541976766046,0.00466421314428487
7.55,-0.162333286255439,0.0080864650916112
7.56,-0.164605927936887,0.0116802722191906
7.57,-0.167301948311356,0.0156130382603447
7.58,-0.17032145064776,0.0200318393460046
7.59,-0.17352913022094,0.0250535258184475
7.6,-0.176763077608123,0.0307568093995267
7.61,-0.179845269470552,0.037176840287536
7.62,-0.182593056388573,0.0443026131087934
7.63,-0.184830893779328,0.0520773523917875
7.64,-0.186401557050671,0.0604018278761477
7.65,-0.187176118403487,0.0691403594435533
7.66,-0.187062057654065,0.0781290967442372
