"Freq [GHz]","re(S(Antenna1_1_1,Antenna1_1_1)) []","im(S(Antenna1_1_1,Antenna1_1_1)) []"
3,-0.244016191752963,-0.180211106816029
3.01,-0.248504722982718,-0.169415799581217
3.02,-0.252540809533938,-0.158721647662962
3.03,-0.256191842356336,-0.148130858307912
3.04,-0.25951912583431,-0.137627327959912
3.05,-0.26257333651789,-0.127178954623598
3.06,-0.265390740144641,-0.116741036246138
3.07,-0.26799041511198,-0.106260516321415
3.08,-0.270372658379056,-0.0956807844925896
3.09,-0.272518666189586,-0.0849467103575494
3.1,-0.274391495681246,-0.0740095794084
3.11,-0.275938230537972,-0.0628316152010422
3.12,-0.277093199798187,-0.0513898065551656
3.13,-0.277782034774193,-0.0396788085798041
3.14,-0.277926307595693,-0.0277127501394813
3.15,-0.277448462079871,-0.0155258491321581
3.16,-0.2762767417701,-0.00317181024060107
3.17,-0.274349823727453,0.0092779506543244
3.18,-0.271620891272458,0.0217371451873755
3.19,-0.26806091288011,0.0341083475943089
3.2,-0.263660941626711,0.0462874129342933
3.21,-0.25843330282807,0.0581683301917837
3.22,-0.252411597490655,0.0696482388951799
3.23,-0.245649511174952,0.0806323293466501
3.24,-0.238218481129833,0.0910383495256301
3.25,-0.230204336178773,0.100800457690912
3.26,-0.221703080313598,0.109872190960208
3.27,-0.212816043339354,0.118228358492631
3.28,-0.203644663119964,0.125865724533755
3.29,-0.194285195005921,0.132802405414809
3.3,-0.184823661235788,0.139075977331078
3.31,-0.175331352863996,0.14474036572989
3.32,-0.165861180336278,0.149861663055652
3.33,-0.15644513197,0.154513095135947
3.34,-0.147093045488034,0.158769420567426
3.35,-0.137792825718588,0.162701099379219
3.36,-0.128512155734098,0.166368601965373
3.37,-0.119201654505602,0.169817239373097
3.38,-0.109799332908921,0.173072885171335
3.39,-0.100236106722697,0.176138918060556
3.4,-0.090442036658948,0.178994650132673
3.41,-0.0803528982947757,0.181595416953192
3.42,-0.069916640766111,0.183874398848488
3.43,-0.0590992763183211,0.185746123470156
3.44,-0.0478897613855597,0.187111478162824
3.45,-0.0363034804401391,0.187863942648358
3.46,-0.0243840270294894,0.187896651202748
3.47,-0.0122030860780348,0.187109815185807
3.48,0.00014164731207029,0.185417990875581
3.49,0.0125304353171763,0.182756667251095
3.5,0.0248271315533349,0.179087679360166
3.51,0.0368861316274697,0.174403022890218
3.52,0.0485601789121147,0.168726749919543
3.53,0.0597084881592621,0.162114760080326
3.54,0.0702046109139224,0.154652455008556
3.55,0.0799434715299341,0.146450381291955
3.56,0.0888470548515123,0.137638143778137
3.57,0.0968683170819363,0.128357004020951
3.58,0.103993021325015,0.118751685685823
3.59,0.110239351464427,0.108961972953796
3.6,0.115655324809397,0.09911470878961
3.61,0.120314191465808,0.0893167721207083
3.62,0.124308159271262,0.0796495399080882
3.63,0.127740909672992,0.0701652250980439
3.64,0.130719457407233,0.0608853403347577
3.65,0.133345951180284,0.0518013717242261
3.66,0.135710008621743,0.0428775837275101
3.67,0.137882129432477,0.0340557152306951
3.68,0.13990863813669,0.0252611938321222
3.69,0.14180848561561,0.0164103909252624
3.7,0.14357209176151,0.00741837806494044
3.71,0.145162258412901,-0.00179337514440161
3.72,0.146517031257402,-0.0112898960398425
3.73,0.147554256312602,-0.0211166700934908
3.74,0.148177467796168,-0.0312950447322874
3.75,0.148282670069025,-0.0418193369240835
3.76,0.147765536534954,-0.0526557763564477
3.77,0.146528546866407,-0.0637432873957725
3.78,0.144487613804415,-0.0749959943574125
3.79,0.141577810154478,-0.086307230694991
3.8,0.137757885240579,-0.0975547567887187
3.81,0.133013350864752,-0.108606835179383
3.82,0.127358013463153,-0.119328787160757
3.83,0.120833920759707,-0.129589651857097
3.84,0.113509777632862,-0.139268586588991
3.85,0.105477957327595,-0.148260682492527
3.86,0.0968502953229218,-0.156481913668339
3.87,0.087752898517626,-0.163872991793497
3.88,0.078320235491361,-0.170401952548344
3.89,0.0686887969046352,-0.176065359384157
3.9,0.0589906277942531,-0.180888064614837
3.91,0.0493470388713675,-0.184921528107345
3.92,0.0398628019672149,-0.188240749401886
3.93,0.0306211242336048,-0.190939928983542
3.94,0.0216796746123979,-0.193127033827507
3.95,0.0130679075659441,-0.194917500441875
3.96,0.004785880251602,-0.19642736775805
3.97,-0.0031952971667232,-0.197766180893469
3.98,-0.0109313155982986,-0.199030048067624
3.99,-0.0185008503720737,-0.200295257835413
4,-0.0260002004615912,-0.201612866618424
4.01,-0.0335366129872862,-0.203004643095135
4.02,-0.0412206264718333,-0.204460707866689
4.03,-0.0491578590921441,-0.205939123073706
4.04,-0.0574407405167381,-0.207367581099843
4.05,-0.0661407312681447,-0.208647209730141
4.06,-0.0753015832751205,-0.209658365859304
4.07,-0.0849341623162453,-0.21026814119599
4.08,-0.09501328188769,-0.210339159244306
4.09,-0.105476881127384,-0.209739122503338
4.1,-0.116227732901942,-0.208350476978563
4.11,-0.127137691389031,-0.206079514273497
4.12,-0.138054303230132,-0.202864233346856
4.13,-0.148809420048821,-0.198680337261475
4.14,-0.159229281979256,-0.193544850255951
4.15,-0.16914540629663,-0.187516989397459
4.16,-0.178405525510856,-0.180696118551728
4.17,-0.186883782491166,-0.173216820605299
4.18,-0.194489416109341,-0.165241344666255
4.19,-0.201173255701497,-0.156949888648953
4.2,-0.206931485930932,-0.148529357739941
4.21,-0.211806329459943,-0.140161370370096
4.22,-0.2158835184466,-0.132010364166195
4.23,-0.219286658989753,-0.124212664973256
4.24,-0.222168829234578,-0.116867333358945
4.25,-0.224701962842616,-0.110029485131283
4.26,-0.227064742822649,-0.103706613919211
4.27,-0.2294298542549,-0.097858230923817
4.28,-0.231951502152717,-0.0923988977451069
4.29,-0.234754093658289,-0.0872044803738088
4.3,-0.237922909634851,-0.0821212179961786
4.31,-0.241497453039493,-0.0769769896342507
4.32,-0.245467976008666,-0.0715939994846464
4.33,-0.249775462041009,-0.0658019941168066
4.34,-0.254315092959135,-0.0594510792249282
4.35,-0.258942986984298,-0.0524232289933622
4.36,-0.263485755077818,-0.0446416673189099
4.37,-0.267752227573442,-0.0360774473268501
4.38,-0.271546543319107,-0.0267527493534457
4.39,-0.274681698272086,-0.01674064513831
4.4,-0.276992612004221,-0.00616132062158441
4.41,-0.278347800437967,0.00482500263731741
4.42,-0.278658837203696,0.0160279785283639
4.43,-0.277886932774197,0.0272392126292049
4.44,-0.276046156270524,0.0382456825129714
4.45,-0.273203054470947,0.0488435838522453
4.46,-0.269472670007492,0.0588516491882999
4.47,-0.265011205139823,0.0681230136156061
4.48,-0.260005817024483,0.0765547985202374
4.49,-0.254662226516598,0.0840947307248936
4.5,-0.249190984671074,0.0907443178953654
4.51,-0.243793338068838,0.0965583325562946
4.52,-0.238647675909442,0.101640612701151
4.53,-0.233897504531603,0.106136444242972
4.54,-0.229641804883685,0.110222032022496
4.55,-0.225928463588974,0.114091776533246
4.56,-0.222751262110684,0.117944235454721
4.57,-0.220050659631207,0.121967750802299
4.58,-0.217718338105487,0.126326756660638
4.59,-0.215605208293235,0.131149742040739
4.6,-0.213532324984013,0.136519734270082
4.61,-0.211303946278138,0.142467992733184
4.62,-0.208721809133347,0.148971375582132
4.63,-0.205599602929347,0.155953578730394
4.64,-0.201776599264775,0.163290165363891
4.65,-0.19712945752425,0.170817025540072
4.66,-0.191581354507391,0.178341655951893
4.67,-0.185107782900481,0.185656439285516
4.68,-0.177738609897146,0.192552956923356
4.69,-0.169556261499994,0.198836295761502
4.7,-0.160690188461879,0.204338310661928
4.71,-0.151308039536215,0.208928890949703
4.72,-0.141604213867216,0.21252443116539
4.73,-0.131786646496489,0.215092921746581
4.74,-0.122062808589971,0.216655331671826
4.75,-0.112625945551112,0.217283235055896
4.76,-0.103642544756161,0.217092911234116
4.77,-0.095241918062165,0.216236406689667
4.78,-0.0875086099342743,0.214890261080502
4.79,-0.0804781197818541,0.213242760171433
4.8,-0.0741361707877806,0.211480664164791
4.81,-0.0684214908017258,0.209776379317313
4.82,-0.0632318151536261,0.208276478356673
4.83,-0.0584325908508912,0.207092353659446
4.84,-0.053867682795502,0.206293605567734
4.85,-0.0493712573425128,0.205904548776262
4.86,-0.0447799639259467,0.205903982459519
4.87,-0.0399445434897313,0.206228124070198
4.88,-0.0347400701872678,0.20677638677946
4.89,-0.0290741606629673,0.207419485554948
4.9,-0.0228926633975187,0.208009214620094
4.91,-0.0161825364231137,0.208389147831177
4.92,-0.00897184067008918,0.208405485594202
4.93,-0.00132697960616596,0.207917295642092
4.94,0.0066524959941999,0.206805482181179
4.95,0.0148410455407338,0.20497993669496
4.96,0.0230956776383504,0.202384485465523
4.97,0.0312652276091111,0.1989994205403
4.98,0.0391997176961774,0.194841581795023
4.99,0.0467591841466111,0.189962125746745
5,0.0538214283860763,0.184442264079564
5.01,0.0602882625421256,0.178387372866588
5.02,0.0660899497262492,0.171919950508732
5.03,0.0711876811495615,0.165171942775116
5.04,0.0755740736855868,0.158276953710456
5.05,0.0792717980688041,0.151362823322766
5.06,0.0823305583901973,0.144544989827813
5.07,0.0848227250428255,0.137920964316588
5.08,0.0868379743455812,0.131566149620548
5.09,0.0884773162901608,0.125531129236164
5.1,0.0898468807838369,0.119840455761253
5.11,0.0910518110998376,0.114492880313681
5.12,0.0921905639570984,0.109462895405396
5.13,0.0933498622592128,0.104703410463278
5.14,0.094600484711747,0.100149349143659
5.15,0.095994018218798,0.0957219396191767
5.16,0.097560644343945,0.0913334717065646
5.17,0.099307987719497,0.0868923000805126
5.18,0.101221017360489,0.0823078922423646
5.19,0.103262964837571,0.0774957312555036
5.2,0.105377201861352,0.072381902600349
5.21,0.107490003319026,0.0669072039947731
5.22,0.10951410090058,0.061030627458747
5.23,0.111352914917196,0.0547320703077923
5.24,0.112905324696821,0.0480141425187224
5.25,0.11407080934015,0.0409029513368214
5.26,0.114754756028025,0.0334477683869767
5.27,0.114873704663125,0.0257195196155171
5.28,0.114360264865664,0.0178080853618637
5.29,0.113167428556765,0.00981845831665482
5.3,0.111271996243442,0.00186587902430479
5.31,0.108676854381084,-0.00592985805199515
5.32,0.105411882435484,-0.013450658043659
5.33,0.101533330556352,-0.0205866038929196
5.34,0.0971215959890139,-0.0272422727091209
5.35,0.0922774292269207,-0.033342479962281
5.36,0.0871167113335939,-0.0388370404739083
5.37,0.0817640582018632,-0.043704174221292
5.38,0.0763456100760073,-0.0479522514013453
5.39,0.0709814495243533,-0.0516196698383201
5.4,0.0657781430205779,-0.0547727814676126
5.41,0.0608219250330776,-0.0575019207742833
5.42,0.0561730190395835,-0.0599157305040041
5.43,0.0518615318994669,-0.0621341129375216
5.44,0.0478852597267287,-0.064280249682004
5.45,0.0442096162183058,-0.0664722162021007
5.46,0.0407697439019495,-0.0688147637121382
5.47,0.0374747149519862,-0.0713918450330378
5.48,0.0342135711389013,-0.0742604169634153
5.49,0.0308628165617923,-0.077445973564194
5.5,0.0272948670287285,-0.0809401437903634
5.51,0.0233868842336361,-0.0847005435161024
5.52,0.0190293934444169,-0.0886529160963353
5.53,0.0141340927474514,-0.0926954304284206
5.54,0.0086403199227919,-0.0967048569111883
5.55,0.0025197332604664,-0.100544210670504
5.56,-0.0042211101417659,-0.104071350622704
5.57,-0.0115404530821719,-0.107147959172687
5.58,-0.0193633311680567,-0.109648307432794
5.59,-0.027585723389783,-0.111467225250393
5.6,-0.0360805813065189,-0.112526757385155
5.61,-0.044705336712478,-0.112781074836511
5.62,-0.053310392524989,-0.112219331663673
5.63,-0.0617480449196921,-0.110866291901517
5.64,-0.0698812603109325,-0.108780699050851
5.65,-0.0775917468570255,-0.106051504517904
5.66,-0.0847868089167086,-0.102792207346726
5.67,-0.0914045575666741,-0.0991336751271132
5.68,-0.0974171534932056,-0.0952159102034889
5.69,-0.102831890086605,-0.0911792864757452
5.7,-0.107690058021116,-0.0871558133455884
5.71,-0.112063674528163,-0.0832609775199715
5.72,-0.116050293786156,-0.0795866733168949
5.73,-0.119766233729124,-0.0761956623735627
5.74,-0.123338654694483,-0.0731179039789816
5.75,-0.126896991193747,-0.0703489786877236
5.76,-0.130564282463192,-0.0678506940872252
5.77,-0.134448945640247,-0.0655538250918851
5.78,-0.138637507998731,-0.0633628043090727
5.79,-0.143188751078159,-0.0611620566068013
5.8,-0.148129624862182,-0.0588235709138035
5.81,-0.153453178176991,-0.0562152240469727
5.82,-0.159118620216189,-0.0532093311984111
5.83,-0.165053492855084,-0.0496908844984533
5.84,-0.171157799282807,-0.0455649694048894
5.85,-0.177309813797971,-0.0407629050398569
5.86,-0.183373196120732,-0.0352467410958214
5.87,-0.189204955160233,-0.0290118522867035
5.88,-0.19466376409252,-0.0220874943408645
5.89,-0.199618114491626,-0.0145353134484644
5.9,-0.20395381609051,-0.00644592701626578
5.91,-0.20758040045377,0.00206618968115668
5.92,-0.210436059282071,0.0108691812431048
5.93,-0.212490847871859,0.0198212476013465
5.94,-0.213747989223704,0.0287785848655696
5.95,-0.214243231633123,0.037603358880126
5.96,-0.214042326097368,0.0461712465668524
5.97,-0.213236794514009,0.054378119094597
5.98,-0.211938255211549,0.062145492371404
5.99,-0.210271644968028,0.0694244539752466
6,-0.208367731632719,0.0761978589356195
6.01,-0.206355345313168,0.0824806891194525
6.02,-0.204353762695492,0.0883185692206547
6.03,-0.20246566670238,0.0937845326918766
6.04,-0.200771069199766,0.0989742216649205
6.05,-0.199322532067812,0.103999788104683
6.06,-0.19814195115984,0.108982830161464
6.07,-0.197219086737413,0.114046749214521
6.08,-0.196511934396335,0.119308946134021
6.09,-0.195948930830486,0.124873285384429
6.1,-0.195432895046998,0.130823249723762
6.11,-0.194846508971103,0.137216174679428
6.12,-0.194059056162141,0.144078903458832
6.13,-0.192934063916014,0.151405131835442
6.14,-0.191337433783256,0.159154628107263
6.15,-0.189145610449546,0.167254412536962
6.16,-0.186253322772837,0.175601875381287
6.17,-0.182580440210645,0.184069703093359
6.18,-0.178077526082064,0.192512373200808
6.19,-0.172729727593872,0.200773883957063
6.2,-0.166558729815229,0.208696298267737
6.21,-0.159622601476904,0.216128624650359
6.22,-0.152013480879396,0.222935515138809
6.23,-0.143853174877061,0.229005258812999
6.24,-0.135286872607679,0.234256569189045
6.25,-0.126475294004957,0.238643718444029
6.26,-0.117585701801134,0.242159658122893
6.27,-0.108782289287034,0.244836869680626
6.28,-0.100216513207882,0.246745824484033
6.29,-0.092017966788155,0.247991069946394
6.3,-0.0842863754586971,0.248705109051178
6.31,-0.0770852508974476,0.249040383982387
6.32,-0.0704376551825171,0.249159803462458
6.33,-0.0643244117254287,0.249226365198578
6.34,-0.0586849560139845,0.249392500076216
6.35,-0.0534208607592922,0.249789808816275
6.36,-0.0484018979086771,0.250519862827381
6.37,-0.0434743306268351,0.251646697253536
6.38,-0.0384709747145802,0.253191540628383
6.39,-0.0332224291114905,0.255130198558474
6.4,-0.0275687821846173,0.257393353186808
6.41,-0.0213710348726239,0.259869854926602
6.42,-0.0145214772927251,0.262412886981351
6.43,-0.00695229185506861,0.26484868788965
6.44,0.0013582491160284,0.266987330334421
6.45,0.010382484489819,0.268634896941475
6.46,0.0200432767428782,0.269606276256861
6.47,0.0302172404812335,0.269737728384213
6.48,0.0407411646036185,0.268898360780816
6.49,0.0514212806641403,0.266999696787375
6.5,0.0620448222881916,0.26400262983766
6.51,0.072393138320812,0.259921215813601
6.52,0.0822554983895068,0.254822961000663
6.53,0.0914426484091076,0.248825503424914
6.54,0.0997991725099638,0.242089835019572
6.55,0.107213777023575,0.234810463716963
6.56,0.113626737663286,0.22720313906973
6.57,0.11903393992965,0.219490955529142
6.58,0.123487173502918,0.211889775320319
6.59,0.127090603312156,0.204593982419863
6.6,0.129993611928966,0.197763568163223
6.61,0.1323804718837,0.191513470265324
6.62,0.134457538381518,0.185905935384042
6.63,0.136438836479682,0.18094646700906
6.64,0.138531040420459,0.176583671045933
6.65,0.140918892298033,0.172713030302598
6.66,0.143752080115026,0.169184366193718
6.67,0.147134494811209,0.165812475755333
6.68,0.151116619639157,0.162390212964698
6.69,0.15569157977559,0.158703105528235
6.7,0.160795126272352,0.154544497185898
6.71,0.166309546180152,0.149730168164952
6.72,0.172071220847183,0.144111432845328
6.73,0.177881300179664,0.137585820704716
6.74,0.183518751159863,0.130104627825439
6.75,0.188754881016768,0.121676840584875
6.76,0.193368345194211,0.112369192058029
6.77,0.19715962742999,0.102302373068789
6.78,0.199964026997564,0.0916436818343455
6.79,0.201662300010348,0.0805966302064861
6.8,0.2021882698187,0.0693882209926921
6.81,0.201532930851925,0.058254757431788
6.82,0.199744806675168,0.0474271285197509
6.83,0.196926573747578,0.037116540227552
6.84,0.193228203555006,0.0275016163106133
6.85,0.188837099281194,0.0187176963320552
6.86,0.183965892386766,0.0108490054947471
6.87,0.178838705452946,0.0039241772401301
6.88,0.17367678186624,-0.0020846070817932
6.89,0.168684409270544,-0.00725883432497918
6.9,0.164036042596131,-0.0117274354440607
6.91,0.15986544585107,-0.0156575428388583
6.92,0.156257537961077,-0.0192428415323646
6.93,0.153243453736282,-0.0226902762218521
6.94,0.150799120760214,-0.0262059771944437
6.95,0.148847427474357,-0.0299813138901334
6.96,0.147263830085014,-0.03417997709295
6.97,0.145885020357398,-0.0389269150903889
6.98,0.144520085372563,-0.0442998365055311
6.99,0.142963427770617,-0.0503238172541553
7,0.141008603188038,-0.0569693522901193
7.01,0.138462174858117,-0.0641539649265681
7.02,0.135156685010808,-0.0717472571243922
7.03,0.130961904636947,-0.0795790583310236
7.04,0.125793637192248,-0.0874501303660469
7.05,0.119619516580427,-0.0951447192276514
7.06,0.112461436263333,-0.102444128445557
7.07,0.104394474224846,-0.109140426223959
7.08,0.0955424054391986,-0.115049394257778
7.09,0.0860701167145835,-0.120021884469449
7.1,0.0761734419223742,-0.123952860401044
7.11,0.066067096658643,-0.126787558556828
7.12,0.055971507744611,-0.12852439888298
7.13,0.0460993999343947,-0.129214489618439
7.14,0.0366430014325759,-0.12895779480015
7.15,0.0277626829461516,-0.127896247575818
7.16,0.0195777393491825,-0.126204285095019
7.17,0.0121598748939437,-0.124077439450498
7.18,0.0055297730259038,-0.121719735062997
7.19,-0.000343070226611699,-0.11933070409562
7.2,-0.00553728241642697,-0.117092846363744
7.21,-0.0101735518875615,-0.115160318806511
7.22,-0.0144059859026631,-0.113649548293007
7.23,-0.018411463088316,-0.112632334080541
7.24,-0.0223776700103991,-0.112131840044471
7.25,-0.0264905839602475,-0.112121695129251
7.26,-0.0309221879604865,-0.11252822152832
7.27,-0.0358191800713199,-0.113235620458637
7.28,-0.0412933692255305,-0.114093763851298
7.29,-0.047414337091145,-0.114928080785268
7.3,-0.0542048034574021,-0.115550908903998
7.31,-0.0616389565633269,-0.115773592378442
7.32,-0.0696438322842434,-0.115418570035462
7.33,-0.0781036302710895,-0.114330702566984
7.34,-0.0868666783679849,-0.112387141188597
7.35,-0.095754594103804,-0.109505135032448
7.36,-0.104573056937396,-0.105647306202566
7.37,-0.113123511068145,-0.100824082585449
7.38,-0.121215061365023,-0.0950931574623068
7.39,-0.128675823967343,-0.0885560325456459
7.4,-0.135363026044211,-0.0813518820991204
7.41,-0.141171238714743,-0.0736491429175885
7.42,-0.146038247780038,-0.0656353735269812
7.43,-0.149948219288603,-0.0575060278112253
7.44,-0.152931990983405,-0.0494528526344778
7.45,-0.155064504224168,-0.0416526291698159
7.46,-0.156459565017218,-0.0342569522378659
7.47,-0.157262291859904,-0.0273836625373728
7.48,-0.157639741169477,-0.0211104374386793
7.49,-0.15777030780981,-0.0154709061103895
7.5,-0.157832563976545,-0.0104534883224178
7.51,-0.15799421862894,-0.0060029930215762
7.52,-0.158401863317026,-0.00202484207754424
7.53,-0.159172108882748,0.00160837099687632
7.54,-0.160384622896046,0.00504840776578487
7.55,-0.162077458375439,0.0084615257376112
7.56,-0.164244921516887,0.0120178304771906
7.57,-0.166838076015356,0.0158804742443447
7.58,-0.16976782999176,0.0201953330920046
7.59,-0.17291040370094,0.0250817591784475
7.6,-0.176114845412123,0.0306249383395267
7.61,-0.179212151327352,0.036870286237536
7.62,-0.182025459019573,0.0438202005687934
7.63,-0.184380723171328,0.0514333557027875
7.64,-0.186117261983671,0.0596265817991477
7.65,-0.187097560923487,0.0682792293565533
7.66,-0.187215764934065,0.0772397792802372
