"Freq [GHz]","re(S(Antenna1_1_1,Antenna1_1_1)) []","im(S(Antenna1_1_1,Antenna1_1_1)) []"
3,-0.242116475460263,-0.186381147632029
3.01,-0.248195631101218,-0.175913795022217
3.02,-0.253869004887938,-0.165142645078962
3.03,-0.259101755947396,-0.154066192869912
3.04,-0.26385367045361,-0.142690409808912
3.05,-0.26808120423589,-0.131030574116598
3.06,-0.271740109929641,-0.119112452861638
3.07,-0.27478841634298,-0.106972653205015
3.08,-0.277189474084056,-0.0946580503361896
3.09,-0.278914765222586,-0.0822243023033494
3.1,-0.279946194556246,-0.0697335638794
3.11,-0.280277634884972,-0.0572515981260422
3.12,-0.279915577565687,-0.0448445452031656
3.13,-0.278878834214593,-0.0325756378248041
3.14,-0.277197328400093,-0.0205021466374813
3.15,-0.274910101258671,-0.0086728052531581
3.16,-0.272062717498,0.00287409498839893
3.17,-0.268704296835453,0.0141118207813244
3.18,-0.264884407295458,0.0250254787633755
3.19,-0.26065004495211,0.0356114863957189
3.2,-0.256042894583711,0.0458763095590933
3.21,-0.25109702675607,0.0558345817211837
3.22,-0.245837145023655,0.0655067415996799
3.23,-0.240277458913952,0.0749163331886501
3.24,-0.234421227834833,0.0840871123706301
3.25,-0.228260997886673,0.0930401020399123
3.26,-0.221779535231598,0.101790735576208
3.27,-0.214951442265854,0.110346234281631
3.28,-0.207745419747864,0.118703369159755
3.29,-0.200127107968921,0.126846766043809
3.3,-0.192062397448788,0.134747912573078
3.31,-0.183521050363996,0.14236501339259
3.32,-0.174480419244278,0.149643808699352
3.33,-0.164929001276,0.156519416633347
3.34,-0.154869531485034,0.162919184367326
3.35,-0.144321309310588,0.168766438983219
3.36,-0.133321476450098,0.173984927134373
3.37,-0.121925024137302,0.178503636898097
3.38,-0.110203404780621,0.182261616327335
3.39,-0.0982417471098972,0.185212359701556
3.4,-0.086134815651248,0.187327331161673
3.41,-0.0739819959017757,0.188598244171192
3.42,-0.061881708456111,0.189037812805488
3.43,-0.0499257420843211,0.188678828504156
3.44,-0.0381940315565597,0.187571580344624
3.45,-0.0267503849691391,0.185779809475088
3.46,-0.0156395853144894,0.183375546114848
3.47,-0.00488616082003483,0.180433303406807
3.48,0.00550504865407029,0.177024176394581
3.49,0.0155465860821763,0.173210409923095
3.5,0.0252645683563349,0.169040950618166
3.51,0.0346937616251697,0.164548392650218
3.52,0.0438720361741147,0.159747578573543
3.53,0.0528347466932621,0.154635941350326
3.54,0.0616095725649224,0.149195495008556
3.55,0.0702122853809341,0.143396221103955
3.56,0.0786437947775123,0.137200471033817
3.57,0.0868886785229363,0.130567927857151
3.58,0.0949152445220154,0.123460646290823
3.59,0.102677022665427,0.115847719037796
3.6,0.110115458806397,0.10770919023361
3.61,0.117163492503808,0.0990389415347083
3.62,0.123749653599062,0.0898463968670882
3.63,0.129802306575592,0.0801570136930439
3.64,0.135253704337233,0.0700116354577577
3.65,0.140043571841284,0.0594648656432261
3.66,0.144122016719743,0.0485826785185101
3.67,0.147451644402477,0.0374395093236951
3.68,0.15000883208869,0.0261150659427222
3.69,0.15178417952061,0.0146910848771624
3.7,0.15278220386951,0.00324822079044044
3.71,0.153020377977901,-0.00813677929640161
3.72,0.152527629789402,-0.0193935058128425
3.73,0.151342427739602,-0.0304598440154908
3.74,0.149510577116668,-0.0412834132702874
3.75,0.147082848025075,-0.0518224677340835
3.76,0.144112550016454,-0.0620462590504477
3.77,0.140653160725407,-0.0719348811127725
3.78,0.136756107540415,-0.0814786338434125
3.79,0.132468789993478,-0.090676960360991
3.8,0.127832916580579,-0.0995370253937187
3.81,0.122883212587752,-0.108072015505983
3.82,0.117646535789153,-0.116299247995457
3.83,0.112141416923707,-0.124238177089097
3.84,0.106378023114862,-0.131908382149991
3.85,0.100358528202595,-0.139327613966527
3.86,0.0940778639459218,-0.146509965151339
3.87,0.087524822550326,-0.153464220686497
3.88,0.080683480782661,-0.160192439345344
3.89,0.0735349169136352,-0.166688815508157
3.9,0.0660591901402531,-0.172938877516837
3.91,0.0582375436703675,-0.178919086903345
3.92,0.0500547749232149,-0.184596912892886
3.93,0.0415016879186048,-0.189931460009042
3.94,0.0325775072963979,-0.194874718716307
3.95,0.0232920924179441,-0.199373485357875
3.96,0.013667755843602,-0.20337195260405
3.97,0.0037404669782768,-0.206814909567469
3.98,-0.0064397775942986,-0.209651412767624
3.99,-0.0168096069098737,-0.211838705330413
4,-0.0272940777694912,-0.213346084320424
4.01,-0.0378096585672862,-0.214158358208135
4.02,-0.0482683070288333,-0.214278509350689
4.03,-0.0585824206721441,-0.213729194951706
4.04,-0.0686703094197381,-0.212552784327843
4.05,-0.0784617312481447,-0.210809744373241
4.06,-0.0879029624291205,-0.208575338055704
4.07,-0.0969608603782453,-0.20593477814599
4.08,-0.10562542366369,-0.202977162115306
4.09,-0.113910467052384,-0.199788677835338
4.1,-0.121852196658942,-0.196445693629563
4.11,-0.129505679136331,-0.193008408938497
4.12,-0.136939424299532,-0.189515731123856
4.13,-0.144228517355821,-0.185981956514475
4.14,-0.151446916971256,-0.182395672233951
4.15,-0.15865965523763,-0.178721080477459
4.16,-0.165915716709856,-0.174901695447728
4.17,-0.173242329130166,-0.170866110336199
4.18,-0.180641269027341,-0.166535301972165
4.19,-0.188087585240497,-0.161830767856953
4.2,-0.195530893496932,-0.156682690026941
4.21,-0.202899126228943,-0.151037311710096
4.22,-0.2101043623279,-0.144862792040195
4.23,-0.217050145895353,-0.138152967254256
4.24,-0.223639551840778,-0.130928670514945
4.25,-0.229783190725616,-0.123236523267283
4.26,-0.235406369039649,-0.115145374812211
4.27,-0.2404547301069,-0.106740806278817
4.28,-0.244897881135717,-0.0981183001656069
4.29,-0.248730738944289,-0.0893757902918088
4.3,-0.251972572734851,-0.0806063361862786
4.31,-0.254663959288493,-0.0718916142722507
4.32,-0.256862064420666,-0.0632967932246464
4.33,-0.258634806235409,-0.0548671827548066
4.34,-0.260054527825555,-0.0466268379159282
4.35,-0.261191803148598,-0.0385790900863622
4.36,-0.262109932699318,-0.0307087865039099
4.37,-0.262860561005442,-0.0229858727818501
4.38,-0.263480692788107,-0.0153698596434457
4.39,-0.263991215406086,-0.00781468253281004
4.4,-0.264396876812221,-0.000273486830184412
4.41,-0.264687535735967,0.00729705755411741
4.42,-0.264840408427696,0.0149332047450639
4.43,-0.264822988420197,0.0226615189752049
4.44,-0.264596312080524,0.0304972564769714
4.45,-0.264118274764047,0.0384437019522453
4.46,-0.263346760254692,0.0464923448942999
4.47,-0.262242417092523,0.0546237394466061
4.48,-0.260770983665783,0.0628088776112374
4.49,-0.258905123663598,0.0710109182308936
4.5,-0.256625773549074,0.0791871397203654
4.51,-0.253923025619838,0.0872910174739946
4.52,-0.250796572999442,0.0952743542314913
4.53,-0.247255735923603,0.103089410497272
4.54,-0.243319074839685,0.110690985473196
4.55,-0.239013588513974,0.118038390773246
4.56,-0.234373495518684,0.125097241611721
4.57,-0.229438613418707,0.131840970812299
4.58,-0.224252378414027,0.138251957297638
4.59,-0.218859587969635,0.144322160009739
4.6,-0.213303991780613,0.150053164885082
4.61,-0.207625894993138,0.155455588555184
4.62,-0.201859963292347,0.160547835683132
4.63,-0.196033424100347,0.165354270581794
4.64,-0.190164839253775,0.169902930372191
4.65,-0.18426357936125,0.174222965934072
4.66,-0.178330065177391,0.178342037384193
4.67,-0.172356761435481,0.182283907518516
4.68,-0.166329826377146,0.186066462444356
4.69,-0.160231246319294,0.189700345353502
4.7,-0.154041229158579,0.193188321282928
4.71,-0.147740604429115,0.196525405998703
4.72,-0.141312982098316,0.19969970232439
4.73,-0.134746460974889,0.202693806050581
4.74,-0.128034741574971,0.205486580765826
4.75,-0.121177582527112,0.208055067430496
4.76,-0.114180628157161,0.210376294497116
4.77,-0.107054717087165,0.212428787207357
4.78,-0.0998148440212743,0.214193636344702
4.79,-0.0924789806108541,0.215655065946733
4.8,-0.0850669608757806,0.216800525659591
4.81,-0.0775996033492258,0.217620410508313
4.82,-0.0700981800696261,0.218107568688673
4.83,-0.0625842641502912,0.218256785408446
4.84,-0.0550799036143036,0.218064423681734
4.85,-0.0476079957261128,0.217528362721262
4.86,-0.0401926845554467,0.216648305610519
4.87,-0.0328595857997313,0.215426444134198
4.88,-0.0256356600042678,0.21386838056666
4.89,-0.0185486087509673,0.211984132319748
4.9,-0.0116257488935187,0.209788995907494
4.91,-0.00489241828411369,0.207304034455277
4.92,0.00162993584191082,0.204555979882402
4.93,0.00792575074883404,0.201576408217892
4.94,0.0139871353991999,0.198400142825179
4.95,0.0198151490313338,0.19506295681896
4.96,0.0254203008563504,0.191598761900523
4.97,0.0308220772524111,0.1880365719103
4.98,0.0360474151212774,0.184397597070023
4.99,0.0411281738146111,0.180692848752745
5,0.0460977973690763,0.176921606763564
5.01,0.0509874815431256,0.173071023095888
5.02,0.0558222512672492,0.169117015883732
5.03,0.0606173969065615,0.165026458125716
5.04,0.0653757057815868,0.160760506817556
5.05,0.0700858566678041,0.156278770336766
5.06,0.0747222265111973,0.151543894211813
5.07,0.0792462036748255,0.146526075358588
5.08,0.0836089299591812,0.141207001657548
5.09,0.0877552238326608,0.135582762385164
5.1,0.0916282946313369,0.129665378917253
5.11,0.0951747561688376,0.123482754736681
5.12,0.0983494048250984,0.117077018669396
5.13,0.101119245680213,0.110501417113778
5.14,0.103466329740747,0.103816075166559
5.15,0.105389096458798,0.0970830750453767
5.16,0.106902081818945,0.0903613759965646
5.17,0.108034034712497,0.0837021156385126
5.18,0.108824659531889,0.0771447853003646
5.19,0.109320352489571,0.0707146700615036
5.2,0.109569403114152,0.064421797430349
5.21,0.109617181944426,0.0582614687767731
5.22,0.10950182447358,0.052216271481747
5.23,0.109250852843296,0.0462593107053923
5.24,0.108879060814821,0.0403582737568224
5.25,0.10838783803715,0.0344798619062314
5.26,0.107765946264025,0.0285941011037767
5.27,0.106991599421125,0.0226780749505171
5.28,0.106035563819064,0.0167187054648637
5.29,0.104864893622165,0.0107143278430548
5.3,0.103446864526242,0.00467494895030479
5.31,0.101752666386284,-0.00137877000199515
5.32,0.0997604624923842,-0.00741762710135895
5.33,0.0974575121260516,-0.0134067970379196
5.34,0.0948411714508139,-0.0193091835162209
5.35,0.0919187221026207,-0.025088806573281
5.36,0.0887061108529939,-0.0307138395184783
5.37,0.0852258033078632,-0.036158966502132
5.38,0.0815040464346073,-0.0414068233206453
5.39,0.0775678905978533,-0.0464483985606201
5.4,0.0734423363534779,-0.0512823964446126
5.41,0.0691479442053776,-0.0559136832149833
5.42,0.0646991814438835,-0.0603510422037041
5.43,0.0601036864054669,-0.0646045383469216
5.44,0.0553625181676287,-0.068682832948704
5.45,0.0504713410666058,-0.0725907902019007
5.46,0.0454223819846495,-0.0763276788445382
5.47,0.0402069055756862,-0.0798861990501378
5.48,0.0348178891599013,-0.0832524657652153
5.49,0.0292525523635923,-0.086406963557294
5.5,0.0235144091985135,-0.0893263702530634
5.51,0.0176145624539361,-0.0919860380020024
5.52,0.0115720460387169,-0.0943628342516353
5.53,0.00541313222025144,-0.0964379927529206
5.54,-0.0008303552969081,-0.0981996109913883
5.55,-0.0071235577229336,-0.0996444605056035
5.56,-0.0134316542727659,-0.100778846962644
5.57,-0.0197231390021719,-0.101618361894187
5.58,-0.0259729079490567,-0.102186495878894
5.59,-0.032164767807583,-0.102512220342293
5.6,-0.0382930292856189,-0.102626775358155
5.61,-0.044362943134378,-0.102560008201511
5.62,-0.050389865397089,-0.102336677744673
5.63,-0.0563971857232921,-0.101973163135517
5.64,-0.0624132030458325,-0.101474986231851
5.65,-0.0684672661190255,-0.100835477589404
5.66,-0.0745855978457086,-0.100035792969326
5.67,-0.0807872753016741,-0.0990463348585732
5.68,-0.0870808366752056,-0.0978294684960889
5.69,-0.093461926945605,-0.0963432655421452
5.7,-0.099912284312116,-0.0945458791015884
5.71,-0.106400219226663,-0.0924000691609715
5.72,-0.112882566002056,-0.0898773691628949
5.73,-0.119307913970624,-0.0869614167145627
5.74,-0.125620772331483,-0.0836500627679816
5.75,-0.131766210633747,-0.0799560118247236
5.76,-0.137694457696192,-0.0759059165302252
5.77,-0.143364946595247,-0.0715380293318851
5.78,-0.148749358915731,-0.0668986828917727
5.79,-0.153833341889159,-0.0620380046676013
5.8,-0.158616730815182,-0.0570053558141035
5.81,-0.163112286661991,-0.0518450082779727
5.82,-0.167343131901089,-0.0465925343734111
5.83,-0.171339215121384,-0.0412722874164533
5.84,-0.175133238301377,-0.0358962111578894
5.85,-0.178756527364271,-0.0304640511818569
5.86,-0.182235312872732,-0.0249648726568214
5.87,-0.185587817070233,-0.0193796389485035
5.88,-0.18882242617052,-0.0136844924785645
5.89,-0.191937081110626,-0.00785431650866444
5.9,-0.19491986506051,-0.00186614959956578
5.91,-0.19775062245277,0.00429792792495668
5.92,-0.200403331573071,0.0106487232746048
5.93,-0.202848881647059,0.0171888406671465
5.94,-0.205057885694904,0.0239125995155696
5.95,-0.207003189133323,0.030806860677126
5.96,-0.208661805292958,0.0378525542248524
5.97,-0.210016110568109,0.045026632148597
5.98,-0.211054245926149,0.052304143190604
5.99,-0.211769783921428,0.0596601430203466
6,-0.212160813465319,0.0670712079980195
6.01,-0.212228658241968,0.0745164017815525
6.02,-0.211976472120392,0.0819776393527547
6.03,-0.21140794498188,0.0894394867266086
6.04,-0.210526310158766,0.0968885141911205
6.05,-0.209333778201812,0.104312375842863
6.06,-0.20783144388384,0.111698813097064
6.07,-0.206019634886713,0.119034773206521
6.08,-0.203898603762535,0.126305799985721
6.09,-0.201469418273186,0.133495799910429
6.1,-0.198734882922498,0.140587221534662
6.11,-0.195700328469483,0.147561621130728
6.12,-0.192374132888341,0.154400530689832
6.13,-0.188767880826914,0.161086503283742
6.14,-0.184896122239156,0.167604189948563
6.15,-0.180775745077846,0.173941301678162
6.16,-0.176425026091437,0.180089328363087
6.17,-0.171862461331645,0.186043918891759
6.18,-0.167105500459064,0.191804868071608
6.19,-0.162169316614872,0.197375699665963
6.2,-0.157065736343629,0.202762876772437
6.21,-0.151802435684704,0.207974705157559
6.22,-0.146382481691396,0.213020022033809
6.23,-0.140804267905561,0.217906778117999
6.24,-0.135061859873049,0.222640628033045
6.25,-0.129145736060557,0.227223642370029
6.26,-0.123043880940434,0.231653245688893
6.27,-0.116743162286234,0.235921471247626
6.28,-0.110230903804882,0.240014603577333
6.29,-0.103496547184155,0.243913257396494
6.3,-0.0965332860686971,0.247592914440578
6.31,-0.0893395480764476,0.251024909407187
6.32,-0.0819202022025171,0.254177823601758
6.33,-0.0742873788054287,0.257019210620578
6.34,-0.0664608089732845,0.259517546596216
6.35,-0.0584676194560922,0.261644269096275
6.36,-0.0503415585430771,0.263375749361381
6.37,-0.0421216740813351,0.264695034260536
6.38,-0.0338505134358802,0.265593200308383
6.39,-0.0255719633644905,0.266070184064474
6.4,-0.0173288875566173,0.266134989813808
6.41,-0.0091607482826239,0.265805225389602
6.42,-0.00110140992372512,0.265105974915551
6.43,0.00682268456093139,0.26406807786555
6.44,0.0145938005730284,0.262725940423221
6.45,0.022203541911819,0.261115051095475
6.46,0.0296527612768782,0.259269402578861
6.47,0.0369507517908335,0.257219032113213
6.48,0.0441137843646185,0.254987882030816
6.49,0.0511631126072643,0.252592152447375
6.5,0.0581226096690916,0.25003927212566
6.51,0.065016229133812,0.247327557523601
6.52,0.0718654876675068,0.244446571097663
6.53,0.0786871573971076,0.241378132746814
6.54,0.0854913281569638,0.238097890963472
6.55,0.0922799620575752,0.234577324711163
6.56,0.099046020007286,0.23078602633793
6.57,0.10577319529165,0.226694108971142
6.58,0.112436249943918,0.222274587432319
6.59,0.119001916712656,0.217505595007863
6.6,0.125430304451866,0.212372317350223
6.61,0.1316767265238,0.206868544313324
6.62,0.137693858947818,0.200997759817042
6.63,0.143434125093682,0.19477370686106
6.64,0.148852193070459,0.188220381413933
6.65,0.153907461461033,0.181371427285598
6.66,0.158566397298026,0.174268924933518
6.67,0.162804580215209,0.166961596425833
6.68,0.166608301199157,0.159502483508998
6.69,0.16997556940859,0.151946198683235
6.7,0.172916397098352,0.144345895148898
6.71,0.175452268548152,0.136750146904952
6.72,0.177614749953483,0.129199966807328
6.73,0.179443265691764,0.121726213177716
6.74,0.180982144324663,0.114347634136439
6.75,0.182277119287768,0.107069772907875
6.76,0.183371542396211,0.099884901165029
6.77,0.18430262473999,0.092773066062889
6.78,0.185098047341564,0.0857042349507455
6.79,0.185773277388348,0.0786414105989861
6.8,0.1863298808537,0.0715444815566921
6.81,0.186755040736925,0.064374480735788
6.82,0.187022378864168,0.0570978637937509
6.83,0.187094048711278,0.049690396521552
6.84,0.186923933384206,0.0421402640416133
6.85,0.186461660909694,0.0344500825480552
6.86,0.185657055522566,0.0266376018667471
6.87,0.184464591112946,0.0187350219931301
6.88,0.18284740808324,0.0107869935012068
6.89,0.180780502016544,0.00284751232242082
6.9,0.178252783709131,-0.00502396305716074
6.91,0.17526783725507,-0.0127667654811583
6.92,0.171843348769077,-0.0203232069617146
6.93,0.168009324637282,-0.0276422850088521
6.94,0.163805347319214,-0.0346825630614437
6.95,0.159277211210357,-0.0414139906311334
6.96,0.154473330093514,-0.04781856218395
6.97,0.149441306416598,-0.0538898556883889
6.98,0.144225001627263,-0.0596316173815311
6.99,0.138862355754617,-0.0650556590031553
7,0.133384087236038,-0.0701793897411193
7.01,0.127813277290117,-0.0750233141920681
7.02,0.122165726781808,-0.0796087900292922
7.03,0.116450882115947,-0.0839562622625236
7.04,0.110673074538248,-0.0880840886110469
7.05,0.104832808312427,-0.0920079592696514
7.06,0.098927869493333,-0.0957408119755567
7.07,0.0929540977828463,-0.099293065183959
7.08,0.0869057596501986,-0.102672952172778
7.09,0.0807755629029835,-0.105886740134449
7.1,0.0745544438352742,-0.108938661992044
7.11,0.068231323504143,-0.111830466653828
7.12,0.061793057230611,-0.11456059208798
7.13,0.0552247842723947,-0.117123068244439
7.14,0.0485108274215759,-0.11950634704215
7.15,0.0416361990571516,-0.121692316505218
7.16,0.0345886575431825,-0.123655775320369
7.17,0.0273611423469437,-0.125364616800898
7.18,0.0199543161679038,-0.126780897473997
7.19,0.0123788739073883,-0.12786285620762
7.2,0.00465725724457303,-0.128567816572744
7.21,-0.00317555869016154,-0.128855767259511
7.22,-0.0110724590655631,-0.128693294158007
7.23,-0.018975892542016,-0.128057448916541
7.24,-0.0268208616843991,-0.126939098500471
7.25,-0.0345390158832475,-0.125345316579251
7.26,-0.0420635119634865,-0.12330045172432
7.27,-0.0493341883973199,-0.120845631418737
7.28,-0.0563025276445305,-0.118036623758788
7.29,-0.062935869849145,-0.114940159344368
7.3,-0.0692203907614021,-0.111628994047998
7.31,-0.0751624680683269,-0.108176146266442
7.32,-0.0807882156542434,-0.104648853077462
7.33,-0.0861411541233895,-0.101102841089984
7.34,-0.0912781813812849,-0.097577495141597
7.35,-0.096264189548804,-0.0940924310304476
7.36,-0.101165823831396,-0.0906458438575664
7.37,-0.106044974937145,-0.0872148289214487
7.38,-0.110952632465023,-0.0837576722533068
7.39,-0.115923694173343,-0.0802179106940459
7.4,-0.120973233600211,-0.0765297817140204
7.41,-0.126094581623743,-0.0726245465965885
7.42,-0.131259397448038,-0.0684370864494812
7.43,-0.136419707390603,-0.0639121501122253
7.44,-0.141511698301405,-0.0590096747804778
7.45,-0.146460886443268,-0.0537087015568159
7.46,-0.151188158820418,-0.0480095523668659
7.47,-0.155616113231904,-0.0419341114073728
7.48,-0.159675112790077,-0.0355242378266793
7.49,-0.16330851650981,-0.0288385134563895
7.5,-0.166476647014545,-0.0219476779303178
7.51,-0.16915919235694,-0.0149292118782462
7.52,-0.171355899523026,-0.00786158679374424
7.53,-0.173085583263748,-0.00081870534312368
7.54,-0.174383628536046,0.00613499102978487
7.55,-0.175298293022439,0.0129483600766112
7.56,-0.175886207191187,0.0195860770461906
7.57,-0.176207515472656,0.0260297075593447
7.58,-0.17632110157546,0.0322773508870046
7.59,-0.17628029835894,0.0383419988354475
7.6,-0.176129403977123,0.0442488600415267
7.61,-0.175901222740552,0.050031970919536
7.62,-0.175615734158573,0.0557304472720934
7.63,-0.175279880361328,0.0613847264063275
7.64,-0.174888360081671,0.0670331091070477
7.65,-0.174425240284487,0.0727088461695533
7.66,-0.173866146253065,0.0784379302082372
