"Freq [GHz]","re(S(Antenna1_1_1,Antenna1_1_1)) []","im(S(Antenna1_1_1,Antenna1_1_1)) []"
3,-0.242324547579263,-0.181795666704029
3.01,-0.247282257685218,-0.171369228060217
3.02,-0.251861638799938,-0.160908159386962
3.03,-0.256091500149336,-0.150402118829912
3.04,-0.25999339938731,-0.139833242135412
3.05,-0.26358007082789,-0.129178091623098
3.06,-0.266854301178641,-0.118409888631638
3.07,-0.26980829006598,-0.107500943364015
3.08,-0.272423523543056,-0.0964251955695896
3.09,-0.274671182308586,-0.0851607778835494
3.1,-0.276513098198246,-0.0736925060004
3.11,-0.277903262657372,-0.0620141897310422
3.12,-0.278789874368087,-0.0501306470161656
3.13,-0.279117886020593,-0.0380592921178041
3.14,-0.278831980254693,-0.0258311638154813
3.15,-0.277879860298871,-0.0134912652861581
3.16,-0.2762157006021,-0.00109810535760107
3.17,-0.273803558079453,0.0112776332791244
3.18,-0.270620512839458,0.0235553218502755
3.19,-0.26665928721811,0.0356474657047189
3.2,-0.261930094441711,0.0474635180372933
3.21,-0.25646149434207,0.0589142295837837
3.22,-0.250300086921655,0.0699162643371799
3.23,-0.243508951526152,0.0803967547666501
3.24,-0.236164836958233,0.0902974369456301
3.25,-0.228354217023673,0.0995780033299123
3.26,-0.220168435062598,0.108218344637208
3.27,-0.211698262881354,0.116219418151631
3.28,-0.203028275443964,0.123602581363755
3.29,-0.194231490447921,0.130407349958209
3.3,-0.185364728341788,0.136687677216578
3.31,-0.176465112380996,0.14250698658159
3.32,-0.167548051743278,0.147932311467352
3.33,-0.158606936984,0.153027991996947
3.34,-0.149614637611034,0.157849435710426
3.35,-0.140526738247688,0.162437462783219
3.36,-0.131286296723098,0.166813722809373
3.37,-0.121829772086302,0.170977590000097
3.38,-0.112093660091621,0.174904827141335
3.39,-0.102021308414697,0.178548162934556
3.4,-0.091569359184948,0.181839767724673
3.41,-0.0807132938787757,0.184695453571792
3.42,-0.069451627723111,0.187020281029088
3.43,-0.0578084102593211,0.188715137693156
3.44,-0.0458338285385597,0.189683776469224
3.45,-0.0336028634011391,0.189839766384358
3.46,-0.0212121063214894,0.189112820836748
3.47,-0.00877498795483483,0.187454023487807
3.48,0.00358420845667029,0.184839565888581
3.49,0.0157370870051763,0.181272732801095
3.5,0.0275581211861349,0.176784012079166
3.51,0.0389313594574697,0.171429352346218
3.52,0.0497563669901147,0.165286732653543
3.53,0.0599529875452621,0.158451332116326
3.54,0.0694646089719224,0.151029686923956
3.55,0.0782597363939341,0.143133286748955
3.56,0.0863318122075123,0.134872092974917
3.57,0.0936973541889363,0.126348451680951
3.58,0.100392609782015,0.117651829488823
3.59,0.106469029069427,0.108854722909796
3.6,0.111987938238427,0.10000998961161
3.61,0.117014841819808,0.0911497304867083
3.62,0.121613791330262,0.0822857267430882
3.63,0.125842231676992,0.0734113133590439
3.64,0.129746677791233,0.0645044659947577
3.65,0.133359486044284,0.0555317931622261
3.66,0.136696880904743,0.0464530764502101
3.67,0.139758283230477,0.0372259821010951
3.68,0.14252687678469,0.0278105878384222
3.69,0.14497125509261,0.0181734176492624
3.7,0.14704791862251,0.00829075334294044
3.71,0.148704351682901,-0.00184891867940161
3.72,0.149882400545802,-0.0122433719898425
3.73,0.150521698004102,-0.0228759782064908
3.74,0.150562928780368,-0.0337158119162874
3.75,0.149950796345025,-0.0447183763090835
3.76,0.148636622210954,-0.0558267910154477
3.77,0.146580573161407,-0.0669733018987725
3.78,0.143753556807415,-0.0780810129984125
3.79,0.140138847495478,-0.089065793634091
3.8,0.135733494829579,-0.0998383706707187
3.81,0.130549531780752,-0.110306657023983
3.82,0.124614944090153,-0.120378389377757
3.83,0.117974296980707,-0.129964137784097
3.84,0.110688857644862,-0.138980705670991
3.85,0.102836011432795,-0.147354866142527
3.86,0.0945077643849218,-0.155027285668339
3.87,0.085808159360526,-0.161956386174497
3.88,0.076849511515361,-0.168121805726344
3.89,0.0677474870416352,-0.173527058221157
3.9,0.0586151954192531,-0.178200973627837
3.91,0.0495566206533675,-0.182197540867345
3.92,0.0406598633872149,-0.185593871218586
3.93,0.0319907769926048,-0.188486154023242
3.94,0.0235876386733979,-0.190983669604507
3.95,0.0154574888209441,-0.193201142197875
3.96,0.007574682185602,-0.19524992876905
3.97,-0.0001179625187232,-0.197228723373469
3.98,-0.0077052514503986,-0.199214584115624
3.99,-0.0152930428460737,-0.201255142200413
4,-0.0229993906165912,-0.203362812812424
4.01,-0.0309440407642862,-0.205511698172135
4.02,-0.0392371311788333,-0.207637660042689
4.03,-0.0479680805351441,-0.209641758375706
4.04,-0.0571956951927381,-0.211396937682543
4.05,-0.0669404605521447,-0.212757520294141
4.06,-0.0771798196841205,-0.213570774282704
4.07,-0.0878469897432453,-0.21368959529799
4.08,-0.09883355068769,-0.212985199640306
4.09,-0.109995691614384,-0.211358693073338
4.1,-0.121163655111442,-0.208750454444563
4.11,-0.132153611958031,-0.205146457921497
4.12,-0.142780964323232,-0.200580925568856
4.13,-0.152873932938821,-0.195135032722475
4.14,-0.162286253120256,-0.188931748274951
4.15,-0.17090788284263,-0.182127238229459
4.16,-0.178672810549856,-0.174899570187728
4.17,-0.185563313470166,-0.167435687963299
4.18,-0.191610340151341,-0.159917767830165
4.19,-0.196890033869497,-0.152510102355953
4.2,-0.201516749049932,-0.145347587675941
4.21,-0.205633203162943,-0.138526727156096
4.22,-0.2093986344676,-0.132099822710195
4.23,-0.212975971981753,-0.126072735354256
4.24,-0.216519072691778,-0.120406285830945
4.25,-0.220161031955616,-0.115021061861283
4.26,-0.224004440642649,-0.109805133170211
4.27,-0.2281142675589,-0.104623963876017
4.28,-0.232513800077717,-0.0993316733851069
4.29,-0.237183814907289,-0.0937827369898088
4.3,-0.242064891917851,-0.0878432349282786
4.31,-0.247062548863493,-0.0814008460602507
4.32,-0.252054685996666,-0.0743729257416464
4.33,-0.256900692123309,-0.0667121916688066
4.34,-0.261451486438135,-0.0584097450479282
4.35,-0.265559757067298,-0.0494953603053622
4.36,-0.269089692282318,-0.0400351719939099
4.37,-0.271925587224442,-0.0301270513388501
4.38,-0.273978825736107,-0.0198940984404457
4.39,-0.275192878421086,-0.00947676437431004
4.4,-0.275546106077221,0.000975832643415588
4.41,-0.275052306245967,0.0113148224353174
4.42,-0.273759078891696,0.0214001816870639
4.43,-0.271744206159197,0.0311085209032049
4.44,-0.269110341321524,0.0403396389669714
4.45,-0.265978377379947,0.0490215163232453
4.46,-0.262479918599592,0.0571135178192999
4.47,-0.258749305151823,0.0646076766606061
4.48,-0.254915649887783,0.0715280399562374
4.49,-0.251095330760598,0.0779281501028936
4.5,-0.247385351041074,0.0838868353483654
4.51,-0.243857928264838,0.0895025632122946
4.52,-0.240556609522442,0.0948866861622513
4.53,-0.237494126973603,0.100155965162972
4.54,-0.234652120569685,0.105424800416196
4.55,-0.231982751002974,0.110797617945246
4.56,-0.229412122852684,0.116361861367721
4.57,-0.226845332561207,0.122182012273299
4.58,-0.224172855665789,0.128295013301638
4.59,-0.221277901473235,0.134707393464739
4.6,-0.218044292809013,0.141394300185082
4.61,-0.214364384491138,0.148300529590184
4.62,-0.210146516525347,0.155343521519132
4.63,-0.205321515594347,0.162418159706394
4.64,-0.199847805307775,0.169403093414791
4.65,-0.19371476912025,0.176168188862072
4.66,-0.186944116335391,0.182582633576993
4.67,-0.179589133270481,0.188523160465516
4.68,-0.171731844755146,0.193881839595356
4.69,-0.163478254673994,0.198572905629502
4.7,-0.154951974664579,0.202538146343928
4.71,-0.146286664136215,0.205750473740703
4.72,-0.137617797495316,0.20821542329439
4.73,-0.129074323198489,0.209970471363581
4.74,-0.120770793711971,0.211082217604826
4.75,-0.112800510686112,0.211641631734896
4.76,-0.105230157544161,0.211757703050016
4.77,-0.098096283017165,0.211549945903967
4.78,-0.0914038629742743,0.211140292811502
4.79,-0.0851270155158541,0.210644947400433
4.8,-0.0792117885567806,0.210166762554791
4.81,-0.0735807900847258,0.209788664348313
4.82,-0.0681393055556261,0.209568554685673
4.83,-0.0627824461209912,0.209536010665446
4.84,-0.057402812770502,0.209690961600734
4.85,-0.0518981393115128,0.210004377748262
4.86,-0.0461783980229467,0.210420864513519
4.87,-0.0401719090137313,0.210862922900198
4.88,-0.0338300824772678,0.21123653578746
4.89,-0.0271305337939673,0.211437660924698
4.9,-0.0200784357495187,0.211359174022094
4.91,-0.0127060942261137,0.210897796739477
4.92,-0.00507085367108918,0.209960575288202
4.93,0.00274846118083404,0.208470526396092
4.94,0.0106562830431999,0.206371148335179
4.95,0.0185458785619338,0.20362958109796
4.96,0.0263053989283504,0.200238297575523
4.97,0.0338240363737111,0.1962152994083
4.98,0.0409979381441774,0.191602878613023
4.99,0.0477355695216111,0.186465076882745
5,0.0539622644750763,0.180884034383564
5.01,0.0596237626531256,0.174955461508588
5.02,0.0646885903522492,0.168783493433932
5.03,0.0691492031635615,0.162475201332516
5.04,0.0730218671435868,0.156135035838456
5.05,0.0763453062468041,0.149859470650766
5.06,0.0791781958651973,0.143732099807813
5.07,0.0815956257148255,0.137819419248588
5.08,0.0836846972927312,0.132167498955548
5.09,0.0855394609121608,0.126799714589164
5.1,0.0872554272673369,0.121715670917253
5.11,0.0889239197298376,0.116891399435681
5.12,0.0906265514180984,0.112280859759396
5.13,0.0924301220952128,0.107818711092278
5.14,0.094382226731747,0.103424256242259
5.15,0.096507848919798,0.0990063890851767
5.16,0.098807176968945,0.0944693130075646
5.17,0.101254827065497,0.0897187339135126
5.18,0.103800588971489,0.0846681863743646
5.19,0.106371723405571,0.0792451164105036
5.2,0.108876748018352,0.073396336232349
5.21,0.111210549617026,0.0670924784807731
5.22,0.11326056312058,0.060331119670747
5.23,0.114913673212296,0.0531383070617923
5.24,0.116063424796821,0.0455683148497224
5.25,0.11661708349315,0.0377015623178214
5.26,0.116502070542025,0.0296407503699767
5.27,0.115671316523125,0.0215053944683171
5.28,0.114107125032664,0.0134250558838637
5.29,0.111823223540765,0.00553167550405482
5.3,0.108864789130442,-0.00204849945369521
5.31,0.105306369560084,-0.00920285703899515
5.32,0.101247766830484,-0.015839674706659
5.33,0.0968080981771916,-0.0218941565959196
5.34,0.0921183899000139,-0.0273327887981209
5.35,0.0873131794299207,-0.032155653362281
5.36,0.0825216916008939,-0.0363964733809083
5.37,0.0778592051998632,-0.040120322146292
5.38,0.0734192341890073,-0.0434190978423453
5.39,0.0692671074383533,-0.0464050333730201
5.4,0.0654354427915779,-0.0492026654926126
5.41,0.0619218857530776,-0.0519398145952833
5.42,0.0586893207725835,-0.0547382136315041
5.43,0.0556685818824669,-0.0577044670115216
5.44,0.0527635015487287,-0.060922008334004
5.45,0.0498579556829058,-0.0644446625931007
5.46,0.0468244045409495,-0.0682923041971382
5.47,0.0435333104369862,-0.0724489503640378
5.48,0.0398627397207013,-0.0768634424394153
5.49,0.0357074372227923,-0.081452674132194
5.5,0.0309867010487285,-0.0861071269963634
5.51,0.0256504775996361,-0.0906982967037024
5.52,0.0196832353424169,-0.0950874521743353
5.53,0.0131053499864514,-0.0991350681474206
5.54,0.0059719281687919,-0.102710229977188
5.55,-0.0016308086025336,-0.105699320768504
5.56,-0.0095912715557659,-0.108013368888704
5.57,-0.0177799220826719,-0.109593548623687
5.58,-0.0260577844780567,-0.110414480633794
5.59,-0.034285411138783,-0.110485154021393
5.6,-0.0423316496005189,-0.109847474897155
5.61,-0.050081596789678,-0.108572621610511
5.62,-0.057443213070989,-0.106755540487673
5.63,-0.0643521878756921,-0.104508034001517
5.64,-0.0707747955579325,-0.101950972634351
5.65,-0.0767086336400255,-0.099206195515904
5.66,-0.0821812891227086,-0.096388654566726
5.67,-0.0872471173886741,-0.0935993074897732
5.68,-0.0919824317662056,-0.0909191859804889
5.69,-0.096479488514605,-0.0884049589327452
5.7,-0.100839702142416,-0.0860861968305884
5.71,-0.105166547237163,-0.0839644229389715
5.72,-0.109558590755156,-0.0820139229858949
5.73,-0.114103063004424,-0.0801841839085627
5.74,-0.118870320344483,-0.0784037457739816
5.75,-0.123909478349747,-0.0765851866547236
5.76,-0.129245419737192,-0.0746309119433252
5.77,-0.134877294080247,-0.0724393960868851
5.78,-0.140778545268731,-0.0699115152280727
5.79,-0.146898422152159,-0.0669566175888013
5.8,-0.153164853211182,-0.0634980060863035
5.81,-0.159488499003991,-0.0594775419709727
5.82,-0.165767739907289,-0.0548591317394111
5.83,-0.171894309285984,-0.0496309186044533
5.84,-0.177759250934807,-0.0438060710398894
5.85,-0.183258862960971,-0.0374221365228569
5.86,-0.188300291309432,-0.0305390070488214
5.87,-0.192806453960233,-0.0232356226797035
5.88,-0.19672001666052,-0.0156056108598645
5.89,-0.200006194581626,-0.00775212208876444
5.9,-0.20265422382651,0.00021783006873422
5.91,-0.20467742859877,0.00819918736815668
5.92,-0.206111892032071,0.0160944787813048
5.93,-0.207013827261859,0.0238189360793465
5.94,-0.207455819235704,0.0313047979165696
5.95,-0.207522175935323,0.038504562189126
5.96,-0.207303675892368,0.0453930139378524
5.97,-0.206892025423009,0.051967934417597
5.98,-0.206374351511549,0.058249475422404
5.99,-0.205828039183528,0.0642782619482466
6,-0.205316195584719,0.0701123536656195
6.01,-0.204883977905168,0.0758232557113525
6.02,-0.204555967607492,0.0814912108399547
6.03,-0.20433471350938,0.0872000356068766
6.04,-0.204200505331766,0.0930317759849205
6.05,-0.204112377546812,0.099061460760463
6.06,-0.20401028734884,0.105352218846464
6.07,-0.203818357173413,0.111951008155521
6.08,-0.203449026523637,0.118885176315021
6.09,-0.202807915272486,0.126160036558429
6.1,-0.201799165273998,0.133757603525762
6.11,-0.200330998331203,0.141636583325428
6.12,-0.198321206354141,0.149733658459832
6.13,-0.195702279619014,0.157966047798442
6.14,-0.192425877150256,0.166235254367963
6.15,-0.188466361809546,0.174431845844962
6.16,-0.183823152986837,0.182441043957287
6.17,-0.178521700433645,0.190148836150359
6.18,-0.172612953540064,0.197448270382308
6.19,-0.166171281409872,0.204245558298063
6.2,-0.159290898385229,0.210465598240737
6.21,-0.152080947156004,0.216056541768359
6.22,-0.144659494683396,0.220993065557809
6.23,-0.137146781720061,0.225278080484999
6.24,-0.129658138418579,0.228942700786045
6.25,-0.122297022334957,0.232044406625029
6.26,-0.115148646452134,0.234663459183893
6.27,-0.108274645787034,0.236897748624766
6.28,-0.101709170750882,0.238856374893033
6.29,-0.095456712198155,0.240652358409394
6.3,-0.0894918478166971,0.242394950387978
6.31,-0.0837609708024476,0.244182052343387
6.32,-0.0781859263045171,0.246093256769458
6.33,-0.0726693465785287,0.248183989011578
6.34,-0.0671013571779845,0.250481159504216
6.35,-0.0613672298742922,0.252980640561275
6.36,-0.0553554881876771,0.255646761312381
6.37,-0.0489659385118351,0.258413881090536
6.38,-0.0421170998355802,0.261189967904383
6.39,-0.0347525400714905,0.263861972685874
6.4,-0.0268456944586173,0.266302678535808
6.41,-0.0184028338866239,0.268378601771602
6.42,-0.00946396723872512,0.269958455063351
6.43,-0.00010158544506861,0.27092164059285
6.44,0.0095827079920284,0.271166232075421
6.45,0.019463504671819,0.270615928605475
6.46,0.0293985390136782,0.269225517005861
6.47,0.0392368674882335,0.266984461268213
6.48,0.0488277862956185,0.263918346817816
6.49,0.0580299311115643,0.260088031894375
6.5,0.0667199773841916,0.25558650061666
6.51,0.074800361489812,0.250533558837601
6.52,0.0822054888515068,0.245068656761063
6.53,0.0889059707421076,0.239342259390914
6.54,0.0949105462529638,0.233506296463572
6.55,0.100265487688575,0.227704309110363
6.56,0.105051449655286,0.22206195665673
6.57,0.10937790150865,0.216678550664142
6.58,0.113375455640718,0.211620236908319
6.59,0.117186569836156,0.206915355982863
6.6,0.120955236301966,0.202552375021223
6.61,0.1248163694585,0.198480610386324
6.62,0.128885651722518,0.194613762523042
6.63,0.133250587281682,0.19083607492106
6.64,0.137963448776459,0.187010725950933
6.65,0.143036674688033,0.182989879827598
6.66,0.148441105546026,0.178625683989718
6.67,0.154107234365209,0.173781408629333
6.68,0.159929420929157,0.168341899052698
6.69,0.16577278478059,0.162222550770235
6.7,0.171482284189152,0.155376122379898
6.71,0.176893309750152,0.147796863428952
6.72,0.181843002529183,0.139521641303328
6.73,0.186181445464664,0.130627984031716
6.74,0.189781892768863,0.121229198396439
6.75,0.192549276590768,0.111466947771875
6.76,0.194426376786211,0.101501869708559
6.77,0.19539722520299,0.091502955782789
6.78,0.195487539833564,0.0816365007123455
6.79,0.194762215486348,0.0720554428074861
6.8,0.1933201227347,0.0628898665766921
6.81,0.191286665106925,0.054239328388788
6.82,0.188804696135068,0.0461675054497509
6.83,0.186024502433578,0.038699476886552
6.84,0.183093594878006,0.0318217364366133
6.85,0.180147033880194,0.0254848327410552
6.86,0.177298940315566,0.0196083472337471
6.87,0.174635722940946,0.0140877673441301
6.88,0.17221140670724,0.0088027035901068
6.89,0.170045273987544,0.00362583945402082
6.9,0.168121863500131,-0.00156801114106074
6.91,0.16639321108807,-0.0068933294308583
6.92,0.164783077248077,-0.0124463210577146
6.93,0.163192799162282,-0.0182987713108521
6.94,0.161508328584414,-0.0244936307364437
6.95,0.159607976459357,-0.0310425104281334
6.96,0.157370376745014,-0.03792514559295
6.97,0.154682202742398,-0.0450907676353889
6.98,0.151445210846463,-0.0524612294355311
6.99,0.147582249314617,-0.0599356428991553
7,0.143041939041038,-0.0673962253601193
7.01,0.137801815580117,-0.0747150056721681
7.02,0.131869801078808,-0.0817610128253922
7.03,0.125283960163947,-0.0884075587500236
7.04,0.118110573907248,-0.0945392300010469
7.05,0.110440646641427,-0.100058220952651
7.06,0.102385032774333,-0.104889671706557
7.07,0.0940684420792793,-0.108985721804959
7.08,0.0856226406111986,-0.112328047472778
7.09,0.0771792130835835,-0.114928723595449
7.1,0.0688622880143742,-0.116829336788044
7.11,0.060781641128643,-0.118098368005828
7.12,0.053026586504611,-0.11882696182198
7.13,0.0456610362203947,-0.119123299436639
7.14,0.0387200518675759,-0.11910588253215
7.15,0.0322081342271516,-0.118896115795818
7.16,0.0260993972361825,-0.118610633414019
7.17,0.0203396569429437,-0.118353848114198
7.18,0.0148503428509038,-0.118211203997997
7.19,0.0095340171525883,-0.11824358264262
7.2,0.00428117141157303,-0.118483248804744
7.21,-0.00102212280256154,-0.118931630227511
7.22,-0.0064862015186631,-0.119559106964007
7.23,-0.012209963167716,-0.120306853772541
7.24,-0.0182737160333991,-0.121090637679471
7.25,-0.0247332065422475,-0.121806338008251
7.26,-0.0316152396104865,-0.12233683312262
7.27,-0.0389151982323199,-0.122559800446637
7.28,-0.0465966406025305,-0.122355909617298
7.29,-0.054593007808145,-0.121616858166168
7.3,-0.0628113343474021,-0.120252708840998
7.31,-0.0711377107553269,-0.118198036144442
7.32,-0.0794441321934434,-0.115416470087462
7.33,-0.0875962696500895,-0.111903339268984
7.34,-0.0954616428419849,-0.107686244177597
7.35,-0.102917649781804,-0.102823535266448
7.36,-0.109858922189396,-0.0974008105495664
7.37,-0.116203528707145,-0.0915256805974487
7.38,-0.121897628406023,-0.0853211609723068
7.39,-0.126918289001343,-0.0789181374496459
7.4,-0.131274305811211,-0.0724474054191204
7.41,-0.135004994534743,-0.0660318038305885
7.42,-0.138177061879038,-0.0597789481794812
7.43,-0.140879779887603,-0.0537750210382253
7.44,-0.143218796833505,-0.0480800010544778
7.45,-0.145308995842168,-0.0427246119798159
7.46,-0.147266866524218,-0.0377091610268659
7.47,-0.149202875971904,-0.0330043113693728
7.48,-0.151214315940077,-0.0285537134986793
7.49,-0.15337906611681,-0.0242783076433895
7.5,-0.155750646925545,-0.0200820060154178
7.51,-0.15835485220494,-0.0158583897615762
7.52,-0.161188150564026,-0.0114979956595442
7.53,-0.164217934493748,-0.00689574009312368
7.54,-0.167384585450046,-0.00195802671721513
7.55,-0.170605213817439,0.0033908939546112
7.56,-0.173778836466887,0.0092036928451906
7.57,-0.176792669331656,0.0155061706003447
7.58,-0.17952915071576,0.0222951301640046
7.59,-0.18187326877194,0.0295380383274475
7.6,-0.183719748721123,0.0371744959975267
7.61,-0.184979665217552,0.045119430116536
7.62,-0.185586077702573,0.0532678180087934
7.63,-0.185498340341328,0.0615006627643475
7.64,-0.184704819035671,0.0696918632941477
7.65,-0.183223836131487,0.0777155639425533
7.66,-0.181102771733065,0.0854535369602372
