"Freq [GHz]","re(S(Tx_p1,Tx_p1)) []","im(S(Tx_p1,Tx_p1)) []"
1,0.7041620739,-0.363058312
1.01,0.6984194486,-0.3641647732
1.02,0.6928304048,-0.3655915179
1.03,0.6873759953,-0.3673283135
1.04,0.6820381396,-0.3693650108
1.05,0.6767995842,-0.3716915396
1.06,0.6716438662,-0.3742979051
1.07,0.6665552786,-0.377174184
1.08,0.661518838,-0.3803105215
1.09,0.6565202548,-0.3836971293
1.1,0.6515459047,-0.3873242824
1.11,0.6465828024,-0.3911823178
1.12,0.6416185765,-0.3952616325
1.13,0.6366414465,-0.3995526822
1.14,0.6316402008,-0.4040459803
1.15,0.6266041759,-0.408732097
1.16,0.6215232371,-0.4136016585
1.17,0.61638776,-0.4186453469
1.18,0.6111886136,-0.4238538997
1.19,0.6059171439,-0.4292181103
1.2,0.6005651579,-0.4347288277
1.21,0.59512491,-0.4403769571
1.22,0.5895890873,-0.4461534602
1.23,0.5839507971,-0.4520493564
1.24,0.5782035541,-0.4580557228
1.25,0.5723412687,-0.464163696
1.26,0.566358236,-0.4703644724
1.27,0.5602491246,-0.4766493101
1.28,0.554008967,-0.4830095293
1.29,0.5476331492,-0.4894365146
1.3,0.5411174021,-0.4959217157
1.31,0.5344577919,-0.5024566495
1.32,0.5276507121,-0.5090329012
1.33,0.5206928749,-0.5156421266
1.34,0.5135813036,-0.5222760532
1.35,0.506313325,-0.5289264827
1.36,0.4988865619,-0.5355852922
1.37,0.4912989262,-0.5422444366
1.38,0.4835486122,-0.5488959504
1.39,0.4756340897,-0.5555319496
1.4,0.4675540978,-0.562144634
1.41,0.4593076387,-0.5687262891
1.42,0.4508939718,-0.5752692881
1.43,0.4423126076,-0.5817660943
1.44,0.433563302,-0.5882092629
1.45,0.4246460509,-0.5945914436
1.46,0.4155610847,-0.6009053822
1.47,0.4063088626,-0.6071439234
1.48,0.3968900682,-0.6133000125
1.49,0.3873056034,-0.6193666978
1.5,0.3775565839,-0.6253371326
1.51,0.3676443342,-0.6312045777
1.52,0.3575703827,-0.6369624033
1.53,0.3473364566,-0.6426040912
1.54,0.3369444776,-0.6481232371
1.55,0.3263965569,-0.6535135524
1.56,0.3156949904,-0.6587688667
1.57,0.3048422546,-0.6638831296
1.58,0.2938410014,-0.6688504128
1.59,0.2826940542,-0.6736649123
1.6,0.2714044029,-0.6783209503
1.61,0.2599751996,-0.6828129769
1.62,0.2484097543,-0.6871355726
1.63,0.2367115302,-0.6912834496
1.64,0.2248841398,-0.6952514541
1.65,0.2129313397,-0.6990345678
1.66,0.200857027,-0.70262791
1.67,0.1886652347,-0.7060267389
1.68,0.176360127,-0.7092264537
1.69,0.1639459957,-0.7122225957
1.7,0.1514272551,-0.7150108506
1.71,0.1388084381,-0.7175870493
1.72,0.1260941922,-0.7199471696
1.73,0.1132892743,-0.7220873379
1.74,0.1003985473,-0.72400383
1.75,0.08742697541,-0.725693073
1.76,0.07437961979,-0.7271516458
1.77,0.0612616345,-0.7283762808
1.78,0.04807826208,-0.7293638648
1.79,0.03483482932,-0.73011144
1.8,0.02153674302,-0.7306162049
1.81,0.008189485688,-0.7308755153
1.82,-0.005201388667,-0.7308868849
1.83,-0.0186302588,-0.7306479864
1.84,-0.03209144048,-0.7301566515
1.85,-0.04557919067,-0.7294108725
1.86,-0.05908771178,-0.7284088015
1.87,-0.0726111559,-0.7271487522
1.88,-0.08614362891,-0.7256291991
1.89,-0.09967919475,-0.7238487785
1.9,-0.1132118796,-0.7218062884
1.91,-0.1267356758,-0.7195006888
1.92,-0.1402445464,-0.7169311013
1.93,-0.153732429,-0.7140968097
1.94,-0.1671932398,-0.7109972596
1.95,-0.180620878,-0.7076320579
1.96,-0.1940092294,-0.704000973
1.97,-0.2073521707,-0.7001039342
1.98,-0.2206435739,-0.6959410313
1.99,-0.2338773093,-0.6915125141
2,-0.2470472504,-0.6868187918
2.01,-0.2601472774,-0.6818604323
2.02,-0.2731712812,-0.6766381615
2.03,-0.2861131671,-0.6711528624
2.04,-0.2989668589,-0.6654055745
2.05,-0.3117263024,-0.6593974922
2.06,-0.3243854694,-0.6531299643
2.07,-0.3369383615,-0.6466044927
2.08,-0.3493790132,-0.639822731
2.09,-0.3617014964,-0.6327864836
2.1,-0.3738999232,-0.6254977038
2.11,-0.3859684499,-0.6179584931
2.12,-0.3979012805,-0.6101710989
2.13,-0.40969267,-0.6021379136
2.14,-0.4213369278,-0.5938614725
2.15,-0.4328284211,-0.5853444525
2.16,-0.4441615783,-0.5765896698
2.17,-0.4553308923,-0.5676000786
2.18,-0.4663309232,-0.5583787688
2.19,-0.4771563022,-0.5489289644
2.2,-0.4878017341,-0.539254021
2.21,-0.4982620007,-0.5293574242
2.22,-0.5085319634,-0.5192427872
2.23,-0.5186065666,-0.5089138485
2.24,-0.5284808401,-0.4983744698
2.25,-0.538149902,-0.4876286338
2.26,-0.5476089617,-0.4766804415
2.27,-0.5568533222,-0.4655341101
2.28,-0.5658783829,-0.4541939704
2.29,-0.5746796423,-0.4426644641
2.3,-0.5832526999,-0.4309501416
2.31,-0.5915932592,-0.4190556592
2.32,-0.5996971299,-0.4069857763
2.33,-0.6075602298,-0.3947453531
2.34,-0.6151785876,-0.3823393474
2.35,-0.6225483445,-0.3697728122
2.36,-0.6296657565,-0.3570508927
2.37,-0.6365271964,-0.3441788235
2.38,-0.6431291558,-0.3311619256
2.39,-0.6494682466,-0.3180056039
2.4,-0.6555412034,-0.3047153435
2.41,-0.6613448844,-0.2912967077
2.42,-0.6668762739,-0.2777553341
2.43,-0.6721324832,-0.2640969321
2.44,-0.6771107525,-0.2503272797
2.45,-0.681808452,-0.2364522204
2.46,-0.6862230837,-0.2224776603
2.47,-0.6903522821,-0.2084095644
2.48,-0.6941938161,-0.1942539544
2.49,-0.6977455895,-0.1800169047
2.5,-0.7010056423,-0.1657045396
2.51,-0.703972152,-0.1513230303
2.52,-0.7066434341,-0.1368785911
2.53,-0.709017943,-0.1223774769
2.54,-0.7110942731,-0.1078259796
2.55,-0.7128711591,-0.09323042486
2.56,-0.714347477,-0.07859716902
2.57,-0.7155222445,-0.06393259578
2.58,-0.7163946213,-0.04924311295
2.59,-0.7169639099,-0.03453514928
2.6,-0.7172295557,-0.01981515111
2.61,-0.7171911475,-0.005089579226
2.62,-0.7168484173,0.009635094457
2.63,-0.7162012409,0.0243523901
2.64,-0.7152496378,0.0390558232
2.65,-0.713993771,0.05373890779
2.66,-0.7124339474,0.06839515973
2.67,-0.7105706172,0.08301809985
2.68,-0.7084043738,0.09760125722
2.69,-0.7059359539,0.1121381723
2.7,-0.7031662367,0.1266224003
2.71,-0.7000962436,0.1410475139
2.72,-0.6967271379,0.1554071072
2.73,-0.6930602243,0.169694798
2.74,-0.6890969478,0.1839042316
2.75,-0.6848388936,0.1980290835
2.76,-0.6802877862,0.2120630627
2.77,-0.6754454884,0.2259999149
2.78,-0.6703140007,0.2398334252
2.79,-0.6648954601,0.2535574214
2.8,-0.6591921393,0.267165777
2.81,-0.6532064455,0.2806524141
2.82,-0.6469409196,0.2940113065
2.83,-0.6403982346,0.3072364824
2.84,-0.6335811945,0.3203220277
2.85,-0.6264927331,0.3332620884
2.86,-0.6191359126,0.3460508739
2.87,-0.6115139219,0.3586826595
2.88,-0.6036300756,0.3711517894
2.89,-0.5954878122,0.3834526793
2.9,-0.5870906921,0.3955798192
2.91,-0.5784423968,0.4075277763
2.92,-0.5695467265,0.4192911971
2.93,-0.5604075983,0.4308648106
2.94,-0.551029045,0.4422434306
2.95,-0.5414152125,0.4534219581
2.96,-0.5315703582,0.464395384
2.97,-0.5214988491,0.4751587918
2.98,-0.5112051594,0.4857073592
2.99,-0.5006938688,0.4960363614
3,-0.48996966,0.5061411728
3.01,-0.4790373168,0.5160172693
3.02,-0.4679017215,0.525660231
3.03,-0.4565678529,0.5350657438
3.04,-0.4450407839,0.5442296018
3.05,-0.433325679,0.5531477095
3.06,-0.4214277918,0.5618160833
3.07,-0.4093524628,0.5702308543
3.08,-0.3971051167,0.5783882692
3.09,-0.3846912595,0.5862846931
3.1,-0.3721164766,0.5939166106
3.11,-0.3593864296,0.6012806279
3.12,-0.3465068538,0.6083734745
3.13,-0.3334835552,0.6151920044
3.14,-0.3203224083,0.6217331983
3.15,-0.3070293529,0.6279941647
3.16,-0.2936103911,0.6339721412
3.17,-0.2800715849,0.6396644964
3.18,-0.266419053,0.6450687305
3.19,-0.252658968,0.6501824774
3.2,-0.2387975531,0.6550035049
3.21,-0.2248410799,0.6595297168
3.22,-0.2107958644,0.6637591531
3.23,-0.1966682648,0.6676899917
3.24,-0.1824646779,0.6713205486
3.25,-0.1681915363,0.6746492793
3.26,-0.1538553053,0.6776747795
3.27,-0.1394624797,0.6803957853
3.28,-0.1250195806,0.6828111746
3.29,-0.1105331525,0.6849199671
3.3,-0.09600975996,0.6867213249
3.31,-0.08145598438,0.6882145531
3.32,-0.06687842104,0.6893990999
3.33,-0.05228367579,0.6902745571
3.34,-0.03767836186,0.6908406601
3.35,-0.02306909668,0.6910972882
3.36,-0.008462498723,0.6910444646
3.37,0.006134815746,0.6906823562
3.38,0.02071623582,0.690011274
3.39,0.03527515915,0.6890316722
3.4,0.04980499515,0.6877441487
3.41,0.06429916813,0.6861494443
3.42,0.07875112053,0.6842484425
3.43,0.093154316,0.6820421692
3.44,0.1075022426,0.6795317917
3.45,0.121788416,0.6767186187
3.46,0.1360063824,0.6736040993
3.47,0.1501497219,0.6701898221
3.48,0.1642120514,0.6664775149
3.49,0.1781870275,0.6624690432
3.5,0.1920683501,0.6581664097
3.51,0.2058497648,0.6535717533
3.52,0.2195250662,0.6486873478
3.53,0.2330881009,0.6435156005
3.54,0.2465327704,0.6380590518
3.55,0.2598530337,0.6323203729
3.56,0.2730429108,0.6263023654
3.57,0.2860964848,0.6200079592
3.58,0.2990079054,0.6134402113
3.59,0.3117713912,0.6066023041
3.6,0.3243812326,0.5994975442
3.61,0.3368317945,0.5921293602
3.62,0.349117519,0.5845013014
3.63,0.3612329276,0.5766170356
3.64,0.3731726247,0.5684803478
3.65,0.3849312989,0.5600951378
3.66,0.3965037266,0.5514654186
3.67,0.4078847737,0.5425953143
3.68,0.4190693982,0.5334890578
3.69,0.4300526526,0.5241509891
3.7,0.4408296862,0.5145855528
3.71,0.4513957472,0.5047972961
3.72,0.461746185,0.4947908666
3.73,0.4718764521,0.4845710097
3.74,0.4817821065,0.4741425665
3.75,0.4914588134,0.4635104714
3.76,0.5009023476,0.4526797497
3.77,0.5101085948,0.4416555149
3.78,0.5190735539,0.4304429664
3.79,0.5277933386,0.4190473871
3.8,0.5362641792,0.4074741402
3.81,0.5444824243,0.3957286676
3.82,0.5524445422,0.3838164861
3.83,0.5601471228,0.3717431857
3.84,0.5675868785,0.3595144263
3.85,0.5747606465,0.3471359351
3.86,0.5816653892,0.3346135039
3.87,0.5882981962,0.3219529864
3.88,0.5946562854,0.3091602952
3.89,0.6007370037,0.2962413989
3.9,0.6065378287,0.2832023195
3.91,0.6120563696,0.2700491294
3.92,0.6172903679,0.2567879484
3.93,0.6222376985,0.2434249409
3.94,0.6268963707,0.2299663129
3.95,0.6312645287,0.2164183092
3.96,0.6353404526,0.2027872103
3.97,0.6391225587,0.1890793294
3.98,0.6426094005,0.1753010095
3.99,0.6457996689,0.1614586205
4,0.6486921929,0.1475585561
4.01,0.6512859396,0.1336072306
4.02,0.6535800151,0.1196110764
4.03,0.6555736645,0.1055765405
4.04,0.6572662717,0.09151008175
4.05,0.6586573602,0.07741816777
4.06,0.6597465929,0.06330727198
4.07,0.6605337719,0.04918387054
4.08,0.6610188387,0.03505443939
4.09,0.6612018741,0.02092545126
4.1,0.6610830977,0.006803372648
4.11,0.6606628681,-0.007305339158
4.12,0.6599416822,-0.02139423902
4.13,0.658920175,-0.03545689696
4.14,0.6575991192,-0.04948690104
4.15,0.6559794246,-0.06347786041
4.16,0.6540621377,-0.07742340811
4.17,0.6518484408,-0.09131720407
4.18,0.6493396516,-0.105152938
4.19,0.6465372223,-0.1189243321
4.2,0.6434427389,-0.1326251444
4.21,0.6400579202,-0.1462491707
4.22,0.6363846171,-0.1597902486
4.23,0.6324248113,-0.1732422591
4.24,0.6281806146,-0.1865991301
4.25,0.6236542677,-0.1998548392
4.26,0.6188481387,-0.2130034157
4.27,0.6137647226,-0.2260389442
4.28,0.6084066394,-0.2389555668
4.29,0.6027766331,-0.2517474854
4.3,0.5968775701,-0.2644089653
4.31,0.5907124382,-0.2769343367
4.32,0.5842843446,-0.289317998
4.33,0.5775965147,-0.3015544179
4.34,0.5706522905,-0.3136381382
4.35,0.5634551288,-0.3255637759
4.36,0.5560085995,-0.3373260258
4.37,0.5483163843,-0.3489196631
4.38,0.5403822742,-0.3603395453
4.39,0.5322101683,-0.3715806146
4.4,0.5238040715,-0.3826379007
4.41,0.5151680931,-0.3935065221
4.42,0.5063064439,-0.404181689
4.43,0.4972234352,-0.4146587051
4.44,0.4879234762,-0.42493297
4.45,0.4784110717,-0.4349999809
4.46,0.4686908207,-0.4448553345
4.47,0.4587674132,-0.4544947295
4.48,0.448645629,-0.4639139682
4.49,0.4383303345,-0.4731089582
4.5,0.4278264811,-0.4820757145
4.51,0.4171391025,-0.490810361
4.52,0.4062733122,-0.4993091324
4.53,0.3952343015,-0.5075683758
4.54,0.3840273368,-0.5155845524
4.55,0.3726577567,-0.523354239
4.56,0.3611309704,-0.5308741292
4.57,0.3494524544,-0.5381410354
4.58,0.3376277499,-0.5451518897
4.59,0.3256624608,-0.5519037456
4.6,0.3135622504,-0.5583937791
4.61,0.3013328392,-0.5646192899
4.62,0.2889800018,-0.5705777027
4.63,0.2765095645,-0.576266568
4.64,0.2639274023,-0.5816835637
4.65,0.2512394363,-0.5868264954
4.66,0.2384516311,-0.5916932981
4.67,0.2255699914,-0.5962820361
4.68,0.2126005596,-0.6005909049
4.69,0.1995494131,-0.6046182312
4.7,0.1864226609,-0.6083624735
4.71,0.1732264414,-0.6118222235
4.72,0.1599669187,-0.6149962058
4.73,0.1466502806,-0.6178832789
4.74,0.133282735,-0.6204824354
4.75,0.1198705071,-0.6227928026
4.76,0.1064198369,-0.6248136424
4.77,0.09293697568,-0.626544352
4.78,0.07942818351,-0.6279844639
4.79,0.06589972604,-0.6291336457
4.8,0.05235787169,-0.6299917007
4.81,0.03880888865,-0.6305585675
4.82,0.02525904199,-0.6308343199
4.83,0.01171459065,-0.630819167
4.84,-0.001818215432,-0.6305134528
4.85,-0.01533313829,-0.6299176559
4.86,-0.02882395481,-0.6290323893
4.87,-0.0422844597,-0.6278584
4.88,-0.05570846833,-0.6263965682
4.89,-0.06908981966,-0.6246479071
4.9,-0.08242237914,-0.6226135624
4.91,-0.09570004149,-0.620294811
4.92,-0.1089167337,-0.6176930612
4.93,-0.1220664175,-0.6148098511
4.94,-0.1351430929,-0.611646848
4.95,-0.1481408,-0.6082058479
4.96,-0.1610536225,-0.6044887739
4.97,-0.1738756903,-0.6004976754
4.98,-0.186601182,-0.5962347272
4.99,-0.1992243278,-0.5917022281
5,-0.2117394119,-0.5869025998
5.01,-0.2241407756,-0.5818383856
5.02,-0.2364228193,-0.5765122489
5.03,-0.2485800059,-0.5709269722
5.04,-0.2606068622,-0.5650854553
5.05,-0.2724979827,-0.5589907139
5.06,-0.2842480309,-0.5526458781
5.07,-0.2958517426,-0.5460541908
5.08,-0.3073039277,-0.539219006
5.09,-0.3185994731,-0.532143787
5.1,-0.3297333446,-0.5248321047
5.11,-0.3407005892,-0.517287636
5.12,-0.3514963376,-0.5095141615
5.13,-0.3621158062,-0.5015155641
5.14,-0.3725542992,-0.4932958266
5.15,-0.3828072108,-0.4848590298
5.16,-0.3928700275,-0.4762093508
5.17,-0.4027383294,-0.4673510604
5.18,-0.4124077929,-0.4582885214
5.19,-0.4218741923,-0.449026186
5.2,-0.4311334016,-0.4395685941
5.21,-0.4401813962,-0.4299203705
5.22,-0.4490142553,-0.4200862232
5.23,-0.4576281626,-0.4100709406
5.24,-0.4660194088,-0.3998793891
5.25,-0.4741843929,-0.3895165113
5.26,-0.4821196236,-0.378987323
5.27,-0.4898217208,-0.3682969109
5.28,-0.4972874174,-0.3574504301
5.29,-0.5045135603,-0.346453102
5.3,-0.5114971118,-0.3353102109
5.31,-0.5182351509,-0.3240271023
5.32,-0.5247248744,-0.3126091797
5.33,-0.5309635984,-0.3010619025
5.34,-0.5369487589,-0.289390783
5.35,-0.5426779131,-0.2776013836
5.36,-0.5481487403,-0.2656993148
5.37,-0.5533590428,-0.2536902318
5.38,-0.5583067469,-0.2415798321
5.39,-0.5629899035,-0.229373853
5.4,-0.5674066887,-0.2170780683
5.41,-0.571555405,-0.204698286
5.42,-0.5754344813,-0.1922403457
5.43,-0.5790424738,-0.1797101151
5.44,-0.5823780665,-0.167113488
5.45,-0.5854400712,-0.1544563812
5.46,-0.5882274286,-0.1417447315
5.47,-0.5907392079,-0.1289844934
5.48,-0.5929746075,-0.1161816359
5.49,-0.5949329549,-0.1033421398
5.5,-0.5966137071,-0.0904719951
5.51,-0.5980164505,-0.07757719793
5.52,-0.5991409007,-0.06466374794
5.53,-0.599986903,-0.05173764544
5.54,-0.6005544315,-0.03880488867
5.55,-0.6008435899,-0.02587147095
5.56,-0.6008546104,-0.01294337797
5.57,-0.6005878537,-2.658501879E-05
5.58,-0.600043809,0.01287294579
5.59,-0.599223093,0.02574926823
5.6,-0.5981264499,0.03859645471
5.61,-0.5967547506,0.05140859899
5.62,-0.5951089922,0.06417981886
5.63,-0.5931902976,0.07690425885
5.64,-0.5909999142,0.08957609286
5.65,-0.5885392138,0.1021895269
5.66,-0.5858096915,0.1147388015
5.67,-0.5828129649,0.1272181947
5.68,-0.579550773,0.1396220243
5.69,-0.5760249755,0.1519446506
5.7,-0.5722375517,0.1641804787
5.71,-0.5681905993,0.1763239615
5.72,-0.5638863334,0.1883696016
5.73,-0.5593270852,0.2003119545
5.74,-0.5545153011,0.2121456301
5.75,-0.5494535409,0.2238652961
5.76,-0.5441444769,0.2354656796
5.77,-0.5385908923,0.2469415698
5.78,-0.5327956799,0.2582878206
5.79,-0.5267618406,0.2694993521
5.8,-0.5204924816,0.2805711537
5.81,-0.5139908153,0.2914982859
5.82,-0.5072601575,0.3022758824
5.83,-0.5003039255,0.3128991525
5.84,-0.4931256368,0.3233633831
5.85,-0.4857289071,0.3336639409
5.86,-0.4781174483,0.3437962741
5.87,-0.4702950673,0.3537559148
5.88,-0.4622656635,0.3635384808
5.89,-0.4540332274,0.3731396774
5.9,-0.4456018381,0.3825552995
5.91,-0.4369756618,0.3917812332
5.92,-0.4281589495,0.4008134579
5.93,-0.419156035,0.4096480476
5.94,-0.4099713328,0.418281173
5.95,-0.4006093361,0.4267091031
5.96,-0.3910746142,0.4349282065
5.97,-0.381371811,0.4429349534
5.98,-0.371505642,0.4507259167
5.99,-0.3614808926,0.4582977739
6,-0.3513024157,0.465647308
