"Freq [GHz]","re(S(Tx_p1,Tx_p1)) []","im(S(Tx_p1,Tx_p1)) []"
1,0.007236490578,-0.1283585365
1.01,0.003313150136,-0.1283580557
1.02,-0.0006205140668,-0.1282419565
1.03,-0.004560393664,-0.1280091949
1.04,-0.008502374373,-0.1276589188
1.05,-0.01244234341,-0.1271904614
1.06,-0.01637619623,-0.1266033347
1.07,-0.02029984269,-0.1258972233
1.08,-0.02420921253,-0.1250719781
1.09,-0.02810026031,-0.1241276096
1.1,-0.03196896979,-0.1230642823
1.11,-0.03581135777,-0.1218823087
1.12,-0.03962347741,-0.1205821429
1.13,-0.04340142107,-0.1191643758
1.14,-0.04714132271,-0.1176297293
1.15,-0.0508393599,-0.1159790512
1.16,-0.05449175539,-0.1142133105
1.17,-0.05809477838,-0.1123335927
1.18,-0.06164474545,-0.1103410959
1.19,-0.0651380212,-0.1082371265
1.2,-0.0685710187,-0.1060230956
1.21,-0.07194019964,-0.1037005162
1.22,-0.07524207439,-0.1012709998
1.23,-0.0784732019,-0.09873625431
1.24,-0.08163018945,-0.0960980813
1.25,-0.08470969242,-0.09335837463
1.26,-0.08770841397,-0.09051911873
1.27,-0.09062310472,-0.08758238745
1.28,-0.09345056254,-0.08455034324
1.29,-0.09618763232,-0.0814252366
1.3,-0.0988312059,-0.07820940588
1.31,-0.1013782221,-0.07490527734
1.32,-0.1038256671,-0.0715153655
1.33,-0.1061705745,-0.06804227369
1.34,-0.1084100261,-0.06448869489
1.35,-0.1105411532,-0.06085741275
1.36,-0.1125611367,-0.05715130273
1.37,-0.1144672097,-0.05337333351
1.38,-0.1162566583,-0.04952656838
1.39,-0.1179268239,-0.04561416685
1.4,-0.1194751056,-0.04163938619
1.41,-0.120898963,-0.03760558313
1.42,-0.1221959188,-0.03351621544
1.43,-0.1233635624,-0.02937484353
1.44,-0.1243995539,-0.02518513196
1.45,-0.1253016275,-0.02095085088
1.46,-0.1260675965,-0.01667587723
1.47,-0.1266953578,-0.01236419586
1.48,-0.127182897,-0.008019900427
1.49,-0.1275282938,-0.003647193987
1.5,-0.1277297278,0.0007496106179
1.51,-0.1277854842,0.005166090721
1.52,-0.1276939607,0.009597714113
1.53,-0.1274536733,0.01403983969
1.54,-0.1270632635,0.01848771851
1.55,-0.1265215054,0.02293649525
1.56,-0.1258273123,0.02738121011
1.57,-0.1249797445,0.03181680123
1.58,-0.1239780165,0.03623810749
1.59,-0.1228215044,0.04063987195
1.6,-0.1215097536,0.0450167457
1.61,-0.1200424863,0.04936329231
1.62,-0.118419609,0.05367399279
1.63,-0.1166412199,0.05794325114
1.64,-0.1147076164,0.06216540042
1.65,-0.1126193022,0.06633470944
1.66,-0.1103769943,0.07044538996
1.67,-0.1079816299,0.07449160447
1.68,-0.1054343728,0.07846747453
1.69,-0.1027366199,0.08236708968
1.7,-0.09989000659,0.08618451685
1.71,-0.09689641278,0.08991381031
1.72,-0.09375796758,0.09354902213
1.73,-0.09047705404,0.09708421311
1.74,-0.08705631323,0.1005134642
1.75,-0.08349864775,0.1038308884
1.76,-0.07980722471,0.1070306429
1.77,-0.07598547809,0.1101069416
1.78,-0.07203711045,0.1130540687
1.79,-0.06796609395,0.1158663913
1.8,-0.0637766707,0.118538373
1.81,-0.0594733524,0.1210645885
1.82,-0.05506091912,0.1234397365
1.83,-0.05054441747,0.1256586549
1.84,-0.04592915784,0.1277163341
1.85,-0.04122071092,0.129607932
1.86,-0.03642490339,0.1313287881
1.87,-0.03154781272,0.1328744378
1.88,-0.02659576123,0.1342406264
1.89,-0.02157530927,0.1354233237
1.9,-0.0164932475,0.1364187372
1.91,-0.01135658849,0.1372233263
1.92,-0.00617255732,0.1378338152
1.93,-0.0009485814685,0.1382472063
1.94,0.004307720124,0.1384607924
1.95,0.009588548805,0.1384721694
1.96,0.01488593872,0.1382792472
1.97,0.02019177005,0.1378802617
1.98,0.02549778301,0.1372737846
1.99,0.03079559254,0.1364587336
2,0.03607670358,0.1354343817
2.01,0.0413325271,0.1342003654
2.02,0.04655439663,0.1327566927
2.03,0.05173358535,0.1311037497
2.04,0.05686132376,0.1292423069
2.05,0.0619288177,0.1271735244
2.06,0.06692726688,0.1248989558
2.07,0.07184788373,0.1224205519
2.08,0.0766819126,0.1197406628
2.09,0.08142064916,0.1168620395
2.1,0.08605546011,0.113787834
2.11,0.0905778029,0.1105215987
2.12,0.09497924569,0.1070672847
2.13,0.09925148725,0.103429239
2.14,0.1033863769,0.09961220062
2.15,0.1073759341,0.09562129568
2.16,0.1112123687,0.09146203142
2.17,0.1148880997,0.08714028918
2.18,0.1183957748,0.08266231626
2.19,0.1217282895,0.0780347168
2.2,0.1248788051,0.07326444156
2.21,0.1278407671,0.06835877675
2.22,0.1306079227,0.06332533187
2.23,0.1331743375,0.05817202648
2.24,0.1355344124,0.05290707617
2.25,0.1376828987,0.04753897753
2.26,0.1396149136,0.04207649226
2.27,0.1413259541,0.0365286305
2.28,0.1428119102,0.03090463326
2.29,0.1440690781,0.0252139542
2.3,0.145094171,0.01946624064
2.31,0.1458843303,0.01367131396
2.32,0.1464371351,0.007839149333
2.33,0.1467506107,0.001979854978
2.34,0.1468232363,-0.003896349143
2.35,0.1466539515,-0.009779153033
2.36,0.1462421619,-0.01565817876
2.37,0.1455877427,-0.02152300288
2.38,0.1446910425,-0.02736317911
2.39,0.1435528849,-0.03316826118
2.4,0.1421745693,-0.03892782587
2.41,0.1405578703,-0.04463149604
2.42,0.1387050364,-0.0502689637
2.43,0.1366187868,-0.05583001306
2.44,0.1343023078,-0.06130454333
2.45,0.1317592473,-0.06668259144
2.46,0.1289937084,-0.07195435447
2.47,0.1260102423,-0.07711021173
2.48,0.1228138391,-0.08214074646
2.49,0.1194099185,-0.08703676713
2.5,0.1158043184,-0.09178932815
2.51,0.1120032837,-0.09638975012
2.52,0.1080134527,-0.1008296393
2.53,0.1038418433,-0.1051009068
2.54,0.0994958386,-0.1091957861
2.55,0.09498317023,-0.1131068511
2.56,0.09031190229,-0.1168270324
2.57,0.0854904136,-0.1203496329
2.58,0.08052737941,-0.1236683425
2.59,0.07543175241,-0.1267772521
2.6,0.07021274303,-0.1296708663
2.61,0.06487979909,-0.132344115
2.62,0.059442585,-0.1347923644
2.63,0.05391096034,-0.1370114263
2.64,0.04829495805,-0.1389975667
2.65,0.04260476229,-0.1407475132
2.66,0.03685068591,-0.1422584612
2.67,0.03104314768,-0.143528079
2.68,0.02519264939,-0.1445545115
2.69,0.01930975273,-0.1453363828
2.7,0.01340505621,-0.1458727983
2.71,0.007489172015,-0.1461633442
2.72,0.001572702949,-0.1462080872
2.73,-0.004333780501,-0.1460075725
2.74,-0.01021976289,-0.1455628201
2.75,-0.01607480631,-0.1448753211
2.76,-0.02188857254,-0.1439470318
2.77,-0.02765084487,-0.1427803675
2.78,-0.03335154943,-0.1413781948
2.79,-0.03898077611,-0.1397438225
2.8,-0.04452879888,-0.1378809926
2.81,-0.04998609555,-0.1357938692
2.82,-0.05534336686,-0.1334870273
2.83,-0.06059155495,-0.1309654395
2.84,-0.06572186099,-0.1282344637
2.85,-0.07072576213,-0.125299828
2.86,-0.07559502763,-0.1221676162
2.87,-0.08032173406,-0.1188442522
2.88,-0.08489827971,-0.1153364833
2.89,-0.08931739803,-0.1116513636
2.9,-0.09357217016,-0.1077962359
2.91,-0.09765603648,-0.1037787146
2.92,-0.1015628072,-0.0996066661
2.93,-0.1052866719,-0.09528819065
2.94,-0.108822208,-0.0908316028
2.95,-0.1121643884,-0.08624541189
2.96,-0.1153085882,-0.08153830229
2.97,-0.1182505895,-0.07671911341
2.98,-0.1209865863,-0.0717968197
2.99,-0.123513188,-0.06678051046
3,-0.1258274212,-0.06167936975
3.01,-0.1279267314,-0.05650265627
3.02,-0.1298089832,-0.05125968343
3.03,-0.1314724598,-0.04595979951
3.04,-0.1329158608,-0.04061236806
3.05,-0.1341383001,-0.03522674856
3.06,-0.1351393022,-0.02981227739
3.07,-0.1359187975,-0.02437824916
3.08,-0.136477117,-0.01893389845
3.09,-0.1368149863,-0.01348838196
3.1,-0.1369335184,-0.008050761194
3.11,-0.1368342057,-0.002629985667
3.12,-0.1365189119,0.002765123368
3.13,-0.1359898622,0.008125888549
3.14,-0.1352496337,0.01344379143
3.15,-0.1343011446,0.01871048683
3.16,-0.1331476431,0.02391781653
3.17,-0.1317926959,0.02905782222
3.18,-0.1302401756,0.03412275776
3.19,-0.1284942484,0.03910510065
3.2,-0.1265593608,0.04399756278
3.21,-0.1244402263,0.0487931004
3.22,-0.1221418115,0.05348492324
3.23,-0.1196693223,0.05806650298
3.24,-0.1170281896,0.06253158078
3.25,-0.1142240548,0.06687417409
3.26,-0.1112627552,0.07108858267
3.27,-0.1081503097,0.07516939378
3.28,-0.1048929038,0.07911148664
3.29,-0.1014968752,0.08291003607
3.3,-0.09796869891,0.08656051537
3.31,-0.09431497283,0.09005869852
3.32,-0.09054240345,0.09340066153
3.33,-0.08665779143,0.09658278321
3.34,-0.08266801766,0.09960174514
3.35,-0.07858002936,0.102454531
3.36,-0.07440082657,0.1051384253
3.37,-0.07013744886,0.1076510115
3.38,-0.06579696241,0.1099901693
3.39,-0.06138644741,0.1121540717
3.4,-0.05691298587,0.1141411814
3.41,-0.05238364979,0.1159502467
3.42,-0.04780548978,0.1175802966
3.43,-0.04318552411,0.1190306362
3.44,-0.03853072818,0.1203008408
3.45,-0.03384802455,0.1213907506
3.46,-0.02914427332,0.1223004638
3.47,-0.02442626308,0.123030331
3.48,-0.01970070238,0.1235809476
3.49,-0.0149742116,0.1239531475
3.5,-0.01025331539,0.1241479955
3.51,-0.005544435627,0.1241667801
3.52,-0.0008538848204,0.1240110059
3.53,0.003812139968,0.1236823859
3.54,0.0084475627,0.1231828343
3.55,0.01304643347,0.122514458
3.56,0.01760293315,0.1216795495
3.57,0.02211137754,0.1206805787
3.58,0.02656622109,0.1195201858
3.59,0.03096206025,0.1182011726
3.6,0.03529363625,0.1167264963
3.61,0.03955583766,0.1150992607
3.62,0.04374370244,0.1133227101
3.63,0.04785241969,0.1114002211
3.64,0.05187733101,0.1093352963
3.65,0.05581393162,0.1071315573
3.66,0.05965787111,0.1047927378
3.67,0.06340495394,0.1023226776
3.68,0.06705113967,0.0997253163
3.69,0.07059254302,0.09700468701
3.7,0.07402543367,0.09416491111
3.71,0.07734623587,0.09121019247
3.72,0.08055152795,0.08814481229
3.73,0.08363804166,0.08497312413
3.74,0.0866026614,0.08169954913
3.75,0.08944242335,0.0783285715
3.76,0.09215451457,0.07486473428
3.77,0.09473627207,0.0713126353
3.78,0.09718518173,0.06767692335
3.79,0.09949887742,0.06396229463
3.8,0.10167514,0.06017348932
3.81,0.1037118962,0.05631528846
3.82,0.1056072181,0.0523925109
3.83,0.107359322,0.04841001048
3.84,0.1089665677,0.04437267337
3.85,0.1104274581,0.04028541555
3.86,0.1117406381,0.03615318036
3.87,0.1129048951,0.03198093626
3.88,0.1139191575,0.02777367454
3.89,0.1147824956,0.02353640724
3.9,0.1154941208,0.01927416506
3.91,0.1160533861,0.01499199524
3.92,0.1164597861,0.01069495958
3.93,0.1167129576,0.00638813237
3.94,0.1168126797,0.002076598296
3.95,0.1167588749,-0.002234549659
3.96,0.1165516095,-0.006540212406
3.97,0.1161910949,-0.01083528701
3.98,0.1156776881,-0.01511466906
3.99,0.115011893,-0.01937325513
4,0.114194362,-0.02360594542
4.01,0.1132258967,-0.02780764647
4.02,0.1121074498,-0.03197327414
4.03,0.1108401259,-0.03609775664
4.04,0.1094251837,-0.04017603785
4.05,0.107864037,-0.04420308081
4.06,0.1061582563,-0.04817387139
4.07,0.1043095704,-0.0520834222
4.08,0.1023198678,-0.05592677676
4.09,0.1001911981,-0.05969901379
4.1,0.09792577333,-0.06339525189
4.11,0.09552596921,-0.06701065432
4.12,0.09299432633,-0.07054043408
4.13,0.0903335511,-0.07397985926
4.14,0.08754651663,-0.0773242585
4.15,0.08463626336,-0.08056902685
4.16,0.08160599957,-0.08370963172
4.17,0.07845910157,-0.08674161908
4.18,0.07519911377,-0.08966061995
4.19,0.07182974835,-0.09246235693
4.2,0.06835488477,-0.09514265109
4.21,0.06477856889,-0.09769742887
4.22,0.06110501178,-0.1001227293
4.23,0.05733858826,-0.1024147111
4.24,0.053483835,-0.1045696604
4.25,0.04954544828,-0.1065839979
4.26,0.04552828134,-0.1084542865
4.27,0.04143734141,-0.110177239
4.28,0.03727778621,-0.111749726
4.29,0.03305492012,-0.113168783
4.3,0.02877418986,-0.1144316187
4.31,0.02444117976,-0.1155356221
4.32,0.0200616066,-0.1164783703
4.33,0.01564131395,-0.1172576361
4.34,0.0111862661,-0.1178713949
4.35,0.006702541541,-0.1183178323
4.36,0.002196325948,-0.1185953509
4.37,-0.002326095219,-0.118702577
4.38,-0.006858344604,-0.1186383674
4.39,-0.01139396126,-0.1184018156
4.4,-0.01592640938,-0.1179922576
4.41,-0.02044908747,-0.1174092777
4.42,-0.02495533786,-0.1166527139
4.43,-0.02943845667,-0.1157226627
4.44,-0.03389170413,-0.1146194835
4.45,-0.03830831525,-0.1133438031
4.46,-0.04268151079,-0.1118965189
4.47,-0.0470045086,-0.1102788022
4.48,-0.05127053522,-0.1084921007
4.49,-0.05547283774,-0.1065381411
4.5,-0.05960469591,-0.1044189301
4.51,-0.06365943447,-0.1021367554
4.52,-0.06763043561,-0.09969418679
4.53,-0.07151115167,-0.09709407506
4.54,-0.07529511787,-0.09433955181
4.55,-0.07897596519,-0.0914340278
4.56,-0.08254743325,-0.0883811909
4.57,-0.0860033833,-0.08518500339
4.58,-0.08933781107,-0.08184969855
4.59,-0.09254485968,-0.0783797767
4.6,-0.0956188324,-0.07478000047
4.61,-0.09855420531,-0.07105538945
4.62,-0.1013456398,-0.06721121421
4.63,-0.1039879949,-0.06325298961
4.64,-0.1064763392,-0.05918646751
4.65,-0.1088059629,-0.05501762882
4.66,-0.1109723892,-0.05075267489
4.67,-0.1129713851,-0.04639801834
4.68,-0.114798973,-0.04196027324
4.69,-0.1164514401,-0.03744624469
4.7,-0.117925349,-0.03286291791
4.71,-0.1192175469,-0.02821744666
4.72,-0.1203251745,-0.02351714126
4.73,-0.1212456746,-0.01876945602
4.74,-0.1219767994,-0.01398197622
4.75,-0.1225166185,-0.009162404645
4.76,-0.1228635249,-0.004318547709
4.77,-0.1230162412,0.0005416988202
4.78,-0.1229738246,0.005410364448
4.79,-0.1227356722,0.0102794189
4.8,-0.1223015239,0.01514078735
4.81,-0.1216714663,0.01998636589
4.82,-0.1208459348,0.02480803725
4.83,-0.1198257152,0.02959768663
4.84,-0.1186119448,0.0343472177
4.85,-0.1172061121,0.0390485687
4.86,-0.1156100567,0.04369372857
4.87,-0.1138259671,0.04827475311
4.88,-0.1118563789,0.05278378107
4.89,-0.1097041717,0.05721305025
4.9,-0.1073725651,0.06155491337
4.91,-0.1048651138,0.0658018539
4.92,-0.1021857029,0.06994650161
4.93,-0.0993385409,0.07398164792
4.94,-0.0963281532,0.07790026098
4.95,-0.09315937424,0.08169550036
4.96,-0.08983733909,0.08536073153
4.97,-0.08636747426,0.08888953975
4.98,-0.0827554879,0.09227574369
4.99,-0.07900735926,0.09551340851
5,-0.07512932754,0.09859685842
5.01,-0.07112788009,0.1015206887
5.02,-0.06700974005,0.1042797774
5.03,-0.06278185343,0.1068692957
5.04,-0.05845137562,0.1092847187
5.05,-0.05402565744,0.1115218347
5.06,-0.04951223071,0.1135767543
5.07,-0.04491879341,0.1154459183
5.08,-0.04025319442,0.1171261054
5.09,-0.03552341793,0.118614439
5.1,-0.03073756752,0.1199083928
5.11,-0.02590384999,0.1210057963
5.12,-0.02103055895,0.1219048392
5.13,-0.01612605818,0.1226040745
5.14,-0.01119876489,0.123102422
5.15,-0.006257132881,0.1233991697
5.16,-0.001309635557,0.1234939751
5.17,0.003635250987,0.1233868654
5.18,0.008569064913,0.1230782374
5.19,0.01348337551,0.1225688554
5.2,0.01836979998,0.1218598498
5.21,0.02322002002,0.1209527137
5.22,0.02802579831,0.1198492994
5.23,0.03277899469,0.1185518135
5.24,0.03747158211,0.1170628119
5.25,0.04209566228,0.1153851938
5.26,0.04664348095,0.1135221945
5.27,0.05110744284,0.1114773784
5.28,0.05548012615,0.1092546301
5.29,0.05975429659,0.1068581463
5.3,0.06392292096,0.1042924259
5.31,0.06797918026,0.1015622595
5.32,0.07191648214,0.09867271939
5.33,0.07572847291,0.09562914781
5.34,0.07940904888,0.09243714517
5.35,0.0829523671,0.08910255788
5.36,0.0863528555,0.08563146548
5.37,0.08960522227,0.08203016751
5.38,0.09270446468,0.07830516993
5.39,0.09564587715,0.07446317117
5.4,0.09842505859,0.07051104792
5.41,0.1010379191,0.0664558406
5.42,0.1034806857,0.06230473863
5.43,0.1057499079,0.05806506545
5.44,0.1078424618,0.05374426344
5.45,0.1097555538,0.04934987867
5.46,0.1114867237,0.04488954559
5.47,0.1130338469,0.04037097169
5.48,0.1143951358,0.03580192212
5.49,0.1155691403,0.03119020434
5.5,0.1165547484,0.02654365291
5.51,0.1173511847,0.02187011426
5.52,0.1179580098,0.01717743174
5.53,0.1183751172,0.01247343073
5.54,0.1186027315,0.007765904028
5.55,0.118641404,0.003062597462
5.56,0.1184920093,-0.00162880424
5.57,0.1181557401,-0.006300691255
5.58,0.117634102,-0.01094554215
5.59,0.1169289073,-0.01555593698
5.6,0.116042269,-0.02012457006
5.61,0.1149765932,-0.02464426225
5.62,0.1137345717,-0.02910797285
5.63,0.1123191742,-0.03350881103
5.64,0.1107336394,-0.03784004679
5.65,0.1089814664,-0.0420951214
5.66,0.1070664051,-0.04626765737
5.67,0.1049924465,-0.05035146787
5.68,0.1027638131,-0.05434056559
5.69,0.1003849477,-0.0582291711
5.7,0.09786050365,-0.06201172064
5.71,0.0951953334,-0.06568287329
5.72,0.0923944776,-0.06923751766
5.73,0.08946315383,-0.07267077793
5.74,0.0864067451,-0.07597801933
5.75,0.08323078836,-0.07915485307
5.76,0.07994096281,-0.0821971407
5.77,0.0765430782,-0.08510099781
5.78,0.0730430631,-0.08786279727
5.79,0.06944695314,-0.09047917187
5.8,0.06576087928,-0.09294701635
5.81,0.06199105616,-0.09526348897
5.82,0.05814377047,-0.09742601248
5.83,0.05422536948,-0.09943227461
5.84,0.05024224969,-0.101280228
5.85,0.04620084555,-0.1029680898
5.86,0.04210761849,-0.1044943403
5.87,0.03796904601,-0.1058577218
5.88,0.03379161107,-0.1070572367
5.89,0.02958179169,-0.1080921447
5.9,0.02534605074,-0.1089619606
5.91,0.02109082612,-0.1096664505
5.92,0.01682252107,-0.110205629
5.93,0.01254749489,-0.1105797545
5.94,0.008272053902,-0.1107893256
5.95,0.004002442751,-0.1108350764
5.96,-0.000255163993,-0.1107179713
5.97,-0.004494669876,-0.1104392005
5.98,-0.008710064285,-0.1100001742
5.99,-0.01289542982,-0.1094025172
6,-0.01704494932,-0.1086480632
