"Freq [GHz]","re(S(Tx_p1,Tx_p1)) []","im(S(Tx_p1,Tx_p1)) []"
1,0.007221773986,-0.1283589129
1.01,0.003298214779,-0.1283577365
1.02,-0.0006356349677,-0.128240922
1.03,-0.004575665539,-0.1280074273
1.04,-0.008517761383,-0.1276564016
1.05,-0.01245780852,-0.1271871801
1.06,-0.01639170132,-0.1265992766
1.07,-0.02031534861,-0.1258923776
1.08,-0.02422467922,-0.1250663358
1.09,-0.02811564689,-0.124121164
1.1,-0.03198423467,-0.1230570287
1.11,-0.03582645876,-0.1218742445
1.12,-0.0396383718,-0.1205732677
1.13,-0.04341606578,-0.1191546916
1.14,-0.0471556744,-0.1176192401
1.15,-0.05085337507,-0.1159677634
1.16,-0.0545053905,-0.1142012328
1.17,-0.05810799001,-0.1123207364
1.18,-0.06165749037,-0.1103274743
1.19,-0.06515025655,-0.1082227553
1.2,-0.06858270207,-0.106007993
1.21,-0.07195128922,-0.1036847027
1.22,-0.0752525291,-0.1012544982
1.23,-0.0784829815,-0.09871908963
1.24,-0.08163925468,-0.09608028093
1.25,-0.08471800511,-0.09333996818
1.26,-0.08771593718,-0.09050013798
1.27,-0.09062980287,-0.08756286632
1.28,-0.09345640151,-0.08453031772
1.29,-0.09619257956,-0.08140474471
1.3,-0.09883523057,-0.07818848759
1.31,-0.1013812952,-0.07488397448
1.32,-0.1038277615,-0.07149372169
1.33,-0.106171665,-0.06802033425
1.34,-0.1084100899,-0.06446650675
1.35,-0.1105401694,-0.06083502431
1.36,-0.112559087,-0.05712876383
1.37,-0.114464078,-0.05335069524
1.38,-0.116252431,-0.04950388302
1.39,-0.11792149,-0.04559148771
1.4,-0.1194686568,-0.04161676751
1.41,-0.1208913934,-0.03758307993
1.42,-0.1221872255,-0.0334938834
1.43,-0.1233537452,-0.02935273885
1.44,-0.1243886154,-0.02516331123
1.45,-0.1252895732,-0.02092937091
1.46,-0.1260544348,-0.01665479492
1.47,-0.1266810999,-0.01234356808
1.48,-0.1271675571,-0.0079997838
1.49,-0.1275118891,-0.003627644804
1.5,-0.1277122782,0.0007685365827
1.51,-0.1277670128,0.005184338352
1.52,-0.1276744932,0.009615229106
1.53,-0.1274332385,0.01405656871
1.54,-0.127041893,0.01850360933
1.55,-0.1264992334,0.0229514969
1.56,-0.1258041759,0.02739527305
1.57,-0.1249557834,0.03182987746
1.58,-0.123953273,0.03625015072
1.59,-0.1227960233,0.04065083773
1.6,-0.1214835823,0.04502659155
1.61,-0.1200156745,0.04937197786
1.62,-0.1183922085,0.05368147991
1.63,-0.116613285,0.05794950406
1.64,-0.1146792031,0.06217038587
1.65,-0.1125904687,0.06633839672
1.66,-0.1103478005,0.07044775109
1.67,-0.1079521373,0.07449261426
1.68,-0.1054046447,0.07846711072
1.69,-0.1027067207,0.082365333
1.7,-0.09986000223,0.08618135109
1.71,-0.09686637017,0.08990922241
1.72,-0.09372795462,0.09354300227
1.73,-0.09044713946,0.09707675475
1.74,-0.08702656638,0.1005045641
1.75,-0.08346913848,0.1038205467
1.76,-0.07977802317,0.1070188632
1.77,-0.07595665459,0.110093731
1.78,-0.07200873526,0.1130394376
1.79,-0.06793823715,0.1158503536
1.8,-0.06374940201,0.1185209463
1.81,-0.05944674097,0.1210457936
1.82,-0.05503503341,0.1234195978
1.83,-0.05051932502,0.1256372
1.84,-0.04590492514,0.1276935943
1.85,-0.04119740322,0.1295839419
1.86,-0.03640258453,0.1313035855
1.87,-0.03152654498,0.1328480637
1.88,-0.02657560513,0.1342131252
1.89,-0.02155632344,0.1353947427
1.9,-0.01647548852,0.1363891267
1.91,-0.01134011071,0.1371927396
1.92,-0.006157412738,0.1378023085
1.93,-0.00093481957,0.1382148384
1.94,0.004320052501,0.1384276248
1.95,0.009599407605,0.1384382658
1.96,0.0148952828,0.1382446741
1.97,0.0201995613,0.1378450875
1.98,0.02550398647,0.1372380798
1.99,0.0308001765,0.1364225707
2,0.03607963971,0.1353978349
2.01,0.04133379051,0.1341635105
2.02,0.04655396596,0.132719607
2.03,0.05173144289,0.1310665118
2.04,0.05685745546,0.1292049965
2.05,0.06192321327,0.1271362219
2.06,0.06691991984,0.1248617427
2.07,0.07183879144,0.1223835099
2.08,0.07667107631,0.1197038744
2.09,0.08140807403,0.116825587
2.1,0.08604115521,0.1137517999
2.11,0.09056178127,0.1104860653
2.12,0.09496152428,0.1070323339
2.13,0.09923208694,0.1033949522
2.14,0.1033653224,0.09957865838
2.15,0.1073532543,0.09558857765
2.16,0.1111880959,0.09143021612
2.17,0.1148622702,0.08710945382
2.18,0.1183684287,0.08263253656
2.19,0.1216994705,0.07800606679
2.2,0.1248485604,0.07323699343
2.21,0.1278091476,0.06833260065
2.22,0.1305749825,0.06330049575
2.23,0.1331401343,0.05814859592
2.24,0.1354990069,0.05288511423
2.25,0.1376463548,0.04751854459
2.26,0.1395772981,0.04205764588
2.27,0.1412873367,0.03651142522
2.28,0.1427723634,0.03088912054
2.29,0.1440286769,0.02520018223
2.3,0.1450529928,0.01945425424
2.31,0.1458424548,0.01366115446
2.32,0.146394644,0.007830854453
2.33,0.1467075877,0.001973458732
2.34,0.146779767,-0.003900816546
2.35,0.1466101231,-0.009781665276
2.36,0.1461980627,-0.0156587135
2.37,0.1455434626,-0.02152154181
2.38,0.1446466723,-0.02735970803
2.39,0.1435085162,-0.03316277006
2.4,0.1421302943,-0.03892030886
2.41,0.1405137819,-0.04462195154
2.42,0.1386612275,-0.05025739439
2.43,0.1365753507,-0.05581642588
2.44,0.1342593374,-0.06128894952
2.45,0.1317168353,-0.06666500654
2.46,0.128951947,-0.07193479828
2.47,0.1259692228,-0.07708870833
2.48,0.1227736522,-0.08211732415
2.49,0.1193706534,-0.08701145841
2.5,0.1157660634,-0.09176216968
2.51,0.1119661254,-0.09636078264
2.52,0.107977476,-0.1007989076
2.53,0.1038071314,-0.1050684596
2.54,0.09946247233,-0.109161676
2.55,0.09495122846,-0.1130711345
2.56,0.09028146141,-0.1167897694
2.57,0.08546154742,-0.1203108872
2.58,0.08050015901,-0.1236281812
2.59,0.07540624596,-0.1267357457
2.6,0.07018901563,-0.1296280886
2.61,0.06485791266,-0.1323001428
2.62,0.0594225981,-0.1347472774
2.63,0.05389292803,-0.136965307
2.64,0.04827893179,-0.1389505004
2.65,0.04259078981,-0.1406995876
2.66,0.03683881107,-0.1422097663
2.67,0.03103341038,-0.1434787069
2.68,0.02518508546,-0.1445045563
2.69,0.01930439385,-0.1452859406
2.7,0.01340192982,-0.1458219664
2.71,0.007488301237,-0.1461122217
2.72,0.001574106502,-0.1461567744
2.73,-0.004330088341,-0.1459561704
2.74,-0.01021377235,-0.1455114309
2.75,-0.01606651216,-0.1448240475
2.76,-0.02187797413,-0.143895977
2.77,-0.02763794614,-0.1427296349
2.78,-0.03333635897,-0.1413278876
2.79,-0.03896330713,-0.1396940441
2.8,-0.0445090692,-0.1378318459
2.81,-0.04996412763,-0.1357454566
2.82,-0.05531918775,-0.13343945
2.83,-0.06056519626,-0.1309187982
2.84,-0.06569335887,-0.1281888576
2.85,-0.07069515724,-0.125255355
2.86,-0.07556236503,-0.1221243727
2.87,-0.0802870632,-0.1188023327
2.88,-0.08486165432,-0.1152959803
2.89,-0.08927887607,-0.1116123673
2.9,-0.09353181372,-0.1077588345
2.91,-0.09761391167,-0.1037429933
2.92,-0.101518984,-0.09957270757
2.93,-0.1052412242,-0.09525607466
2.94,-0.1087752134,-0.09080140599
2.95,-0.112115928,-0.08621720764
2.96,-0.1152587465,-0.08151216056
2.97,-0.1181994543,-0.0766951006
2.98,-0.1209342486,-0.07177499845
2.99,-0.1234597416,-0.06676093957
3,-0.1257729628,-0.06166210398
3.01,-0.1278713605,-0.05648774625
3.02,-0.1297528016,-0.05124717554
3.03,-0.1314155715,-0.04594973572
3.04,-0.1328583721,-0.04060478586
3.05,-0.1340803192,-0.03522168084
3.06,-0.1350809389,-0.02980975237
3.07,-0.135860163,-0.02437829027
3.08,-0.136418324,-0.01893652427
3.09,-0.1367561486,-0.01349360615
3.1,-0.1368747505,-0.008058592459
3.11,-0.1367756231,-0.002640427661
3.12,-0.1364606301,0.002752072054
3.13,-0.1359319973,0.008110234424
3.14,-0.1351923015,0.01342554613
3.15,-0.1342444609,0.01868966713
3.16,-0.1330917233,0.02389444434
3.17,-0.1317376546,0.02903192459
3.18,-0.1301861265,0.03409436686
3.19,-0.1284413042,0.03907425374
3.2,-0.1265076327,0.04396430219
3.21,-0.1243898239,0.04875747346
3.22,-0.1220928428,0.05344698225
3.23,-0.1196218932,0.05802630514
3.24,-0.1169824037,0.06248918809
3.25,-0.1141800133,0.0668296533
3.26,-0.1112205566,0.07104200516
3.27,-0.1081100497,0.07512083549
3.28,-0.1048546749,0.07906102791
3.29,-0.1014607666,0.08285776155
3.3,-0.09793479639,0.0865065139
3.31,-0.09428335847,0.09000306294
3.32,-0.09051315543,0.09334348858
3.33,-0.0866309839,0.09652417335
3.34,-0.08264372051,0.09954180238
3.35,-0.07855830811,0.1023933627
3.36,-0.07438174214,0.1050761421
3.37,-0.07012105747,0.107587727
3.38,-0.0657833154,0.1099259998
3.39,-0.06137559112,0.1120891362
3.4,-0.0569049615,0.1140756014
3.41,-0.05237849328,0.1158841457
3.42,-0.04780323169,0.1175138
3.43,-0.04318618953,0.1189638713
3.44,-0.03853433663,0.1202339362
3.45,-0.03385458989,0.1213238362
3.46,-0.02915380368,0.1222336705
3.47,-0.02443876082,0.1229637904
3.48,-0.01971616399,0.1235147919
3.49,-0.01499262771,0.1238875089
3.5,-0.01027467071,0.1240830063
3.51,-0.005568708951,0.1241025723
3.52,-0.0008810489932,0.1239477108
3.53,0.003782118023,0.1236201341
3.54,0.008414721972,0.1231217552
3.55,0.01301081883,0.1224546797
3.56,0.0175645953,0.1216211984
3.57,0.02207037297,0.1206237795
3.58,0.02652261201,0.1194650606
3.59,0.0309159145,0.1181478415
3.6,0.03524502724,0.1166750763
3.61,0.03950484422,0.1150498662
3.62,0.04369040875,0.1132754521
3.63,0.0477969151,0.1113552071
3.64,0.05181970997,0.1092926303
3.65,0.05575429348,0.1070913391
3.66,0.05959631996,0.1047550633
3.67,0.06334159845,0.102287638
3.68,0.0669860929,0.09969299828
3.69,0.07052592224,0.09697517245
3.7,0.07395736012,0.09413827679
3.71,0.07727683458,0.09118650993
3.72,0.08048092749,0.08812414765
3.73,0.0835663739,0.08495553788
3.74,0.08653006129,0.08168509598
3.75,0.08936902864,0.07831730023
3.76,0.09208046558,0.07485668758
3.77,0.09466171138,0.07130784963
3.78,0.09711025394,0.06767542884
3.79,0.09942372884,0.06396411495
3.8,0.1015999183,0.0601786416
3.81,0.1036367504,0.05632378318
3.82,0.1055322978,0.05240435184
3.83,0.1072847775,0.04842519465
3.84,0.1088925495,0.04439119099
3.85,0.1103541165,0.04030724999
3.86,0.1116681232,0.03617830815
3.87,0.112833356,0.03200932704
3.88,0.1138487425,0.02780529116
3.89,0.1147133515,0.02357120572
3.9,0.1154263929,0.01931209465
3.91,0.1159872175,0.01503299849
3.92,0.1163953178,0.01073897242
3.93,0.1166503278,0.006435084173
3.94,0.1167520238,0.002126412003
3.95,0.1167003251,-0.002181957425
3.96,0.1164952945,-0.006484931207
3.97,0.1161371394,-0.01077741245
3.98,0.1156262127,-0.0150543026
3.99,0.1149630142,-0.01931050396
4,0.1141481913,-0.0235409222
4.01,0.113182541,-0.0277404692
4.02,0.1120670104,-0.03190406588
4.03,0.110802699,-0.03602664531
4.04,0.1093908597,-0.040103156
4.05,0.1078329005,-0.04412856533
4.06,0.1061303857,-0.04809786328
4.07,0.1042850378,-0.05200606628
4.08,0.1022987387,-0.05584822137
4.09,0.1001735315,-0.05961941052
4.1,0.09791162134,-0.06331475525
4.11,0.09551537688,-0.06692942145
4.12,0.09298733161,-0.07045862441
4.13,0.09033018471,-0.07389763418
4.14,0.08754680193,-0.07724178104
4.15,0.08464021628,-0.08048646134
4.16,0.08161362851,-0.08362714341
4.17,0.0784704074,-0.08665937386
4.18,0.07521408972,-0.08957878391
4.19,0.07184838006,-0.09238109608
4.2,0.06837715022,-0.09506213095
4.21,0.06480443844,-0.09761781416
4.22,0.06113444823,-0.1000441835
4.23,0.05737154684,-0.1023373963
4.24,0.05352026347,-0.1044937366
4.25,0.049585287,-0.1065096229
4.26,0.04557146337,-0.1083816156
4.27,0.04148379262,-0.1101064245
4.28,0.03732742542,-0.1116809169
4.29,0.03310765923,-0.1131021248
4.3,0.02882993403,-0.1143672528
4.31,0.02449982761,-0.1154736856
4.32,0.02012305035,-0.116418996
4.33,0.01570543967,-0.1172009517
4.34,0.01125295394,-0.1178175229
4.35,0.006771665949,-0.1182668899
4.36,0.002267755932,-0.1185474495
4.37,-0.002252495822,-0.1186578221
4.38,-0.006782716853,-0.1185968582
4.39,-0.01131645082,-0.1183636448
4.4,-0.01584716622,-0.1179575114
4.41,-0.02036826553,-0.1173780353
4.42,-0.02487309476,-0.1166250475
4.43,-0.02935495338,-0.1156986371
4.44,-0.0338071046,-0.1145991564
4.45,-0.03822278607,-0.1133272245
4.46,-0.04259522084,-0.111883731
4.47,-0.04691762872,-0.1102698397
4.48,-0.05118323779,-0.1084869903
4.49,-0.05538529635,-0.1065369017
4.5,-0.05951708498,-0.1044215723
4.51,-0.06357192886,-0.1021432823
4.52,-0.06754321026,-0.09970459302
4.53,-0.07142438121,-0.09710834744
4.54,-0.07520897625,-0.09435766909
4.55,-0.07889062531,-0.09145596078
4.56,-0.08246306658,-0.08840690245
4.57,-0.0859201595,-0.08521444852
4.58,-0.08925589764,-0.08188282455
4.59,-0.09246442159,-0.0784165232
4.6,-0.09554003174,-0.07482029959
4.61,-0.09847720093,-0.07109916593
4.62,-0.101270587,-0.06725838557
4.63,-0.103915045,-0.06330346634
4.64,-0.1064056393,-0.05924015327
4.65,-0.1087376556,-0.0550744206
4.66,-0.1109066122,-0.0508124633
4.67,-0.1129082711,-0.04646068778
4.68,-0.1147386489,-0.04202570219
4.69,-0.1163940275,-0.03751430597
4.7,-0.1178709633,-0.03293347894
4.71,-0.1191662975,-0.02829036977
4.72,-0.1202771642,-0.02359228397
4.73,-0.1212009994,-0.01884667136
4.74,-0.1219355489,-0.01406111303
4.75,-0.1224788751,-0.00924330793
4.76,-0.1228293636,-0.004401058956
4.77,-0.1229857299,0.0004577412963
4.78,-0.1229470237,0.005325125155
4.79,-0.1227126345,0.01019306481
4.8,-0.1222822944,0.01505348755
4.81,-0.1216560825,0.01989829122
4.82,-0.1208344262,0.02471935993
4.83,-0.1198181034,0.02950857989
4.84,-0.1186082436,0.03425785542
4.85,-0.1172063275,0.03895912505
4.86,-0.1156141866,0.04360437763
4.87,-0.1138340015,0.0481856685
4.88,-0.1118683002,0.0526951356
4.89,-0.1097199544,0.05712501555
4.9,-0.107392176,0.06146765955
4.91,-0.1048885122,0.06571554917
4.92,-0.1022128404,0.06986131197
4.93,-0.099369362,0.0738977368
4.94,-0.09636259503,0.0778177889
4.95,-0.09319736691,0.08161462465
4.96,-0.0898788058,0.08528160596
4.97,-0.08641233153,0.08881231427
4.98,-0.08280364573,0.09220056411
4.99,-0.07905872137,0.09544041622
5,-0.07518379157,0.09852619012
5.01,-0.07118533785,0.1014524762
5.02,-0.06707007778,0.1042141471
5.03,-0.06284495202,0.1068063689
5.04,-0.05851711093,0.1092246108
5.05,-0.05409390053,0.1114646553
5.06,-0.04958284816,0.1135226069
5.07,-0.04499164759,0.1153949003
5.08,-0.04032814381,0.1170783077
5.09,-0.0356003174,0.1185699459
5.1,-0.03081626867,0.119867282
5.11,-0.02598420146,0.1209681387
5.12,-0.02111240672,0.1218706986
5.13,-0.01620924592,0.122573508
5.14,-0.01128313428,0.1230754795
5.15,-0.006342523903,0.1233758938
5.16,-0.001395886874,0.1234744014
5.17,0.00354830173,0.1233710223
5.18,0.008481580759,0.1230661459
5.19,0.01339551987,0.1225605295
5.2,0.01828173628,0.1218552963
5.21,0.02313191143,0.1209519322
5.22,0.02793780739,0.1198522823
5.23,0.03269128309,0.1185585462
5.24,0.03738431027,0.117073273
5.25,0.04200898909,0.1153993547
5.26,0.04655756352,0.1135400201
5.27,0.05102243615,0.1114988266
5.28,0.05539618279,0.1092796527
5.29,0.05967156649,0.1068866884
5.3,0.06384155114,0.1043244264
5.31,0.06789931453,0.1015976512
5.32,0.07183826089,0.09871142931
5.33,0.07565203285,0.09567109706
5.34,0.07933452282,0.0924822494
5.35,0.08287988374,0.08915072738
5.36,0.08628253919,0.0856826054
5.37,0.08953719285,0.08208417809
5.38,0.09263883728,0.0783619467
5.39,0.09558276201,0.07452260519
5.4,0.0983645609,0.07057302602
5.41,0.1009801388,0.0665202456
5.42,0.1034257176,0.06237144961
5.43,0.105697841,0.05813395798
5.44,0.1077933798,0.05381520983
5.45,0.1097095345,0.04942274825
5.46,0.1114438393,0.04496420494
5.47,0.1129941637,0.04044728492
5.48,0.114358714,0.0358797511
5.49,0.1155360343,0.03126940899
5.5,0.1165250065,0.02662409145
5.51,0.1173248491,0.02195164347
5.52,0.1179351166,0.01725990723
5.53,0.1183556964,0.01255670717
5.54,0.118586807,0.00784983545
5.55,0.1186289937,0.003147037469
5.56,0.1184831249,-0.001544002197
5.57,0.1181503872,-0.006215673635
5.58,0.1176322803,-0.01086045507
5.59,0.1169306105,-0.01547092599
5.6,0.1160474848,-0.02003977989
5.61,0.1149853036,-0.02455983658
5.62,0.1137467529,-0.02902405409
5.63,0.1123347967,-0.03342554009
5.64,0.1107526681,-0.03775756286
5.65,0.1090038608,-0.04201356176
5.66,0.1070921191,-0.04618715715
5.67,0.1050214291,-0.05027215987
5.68,0.1027960077,-0.05426258009
5.69,0.1004202931,-0.05815263566
5.7,0.09789893354,-0.06193675993
5.71,0.09523677676,-0.06560960891
5.72,0.09243885884,-0.06916606798
5.73,0.08951039288,-0.0726012579
5.74,0.0864567576,-0.07591054037
5.75,0.0832834858,-0.07908952291
5.76,0.07999625271,-0.08213406322
5.77,0.07660086427,-0.08504027292
5.78,0.07310324538,-0.08780452079
5.79,0.06950942822,-0.0904234354
5.8,0.06582554044,-0.09289390716
5.81,0.06205779355,-0.09521308991
5.82,0.0582124713,-0.09737840187
5.83,0.05429591822,-0.09938752615
5.84,0.0503145282,-0.1012384107
5.85,0.04627473332,-0.1029292678
5.86,0.04218299279,-0.104458573
5.87,0.0380457821,-0.1058250638
5.88,0.03386958238,-0.1070277373
5.89,0.02966086999,-0.1080658484
5.9,0.02542610637,-0.1089389068
5.91,0.02117172814,-0.1096466735
5.92,0.01690413746,-0.1101891579
5.93,0.01262969277,-0.1105666134
5.94,0.008354699681,-0.1107795333
5.95,0.004085402338,-0.1108286464
5.96,-0.0001720250015,-0.1107149122
5.97,-0.00441148601,-0.1104395155
5.98,-0.008626970011,-0.1100038613
5.99,-0.01281255936,-0.1094095693
6,-0.01696243645,-0.108658468
