"Freq [GHz]","re(S(Tx_p1,Tx_p1)) []","im(S(Tx_p1,Tx_p1)) []"
1,0.003144213277,-0.08852861925
1.01,0.0004350474903,-0.08845261738
1.02,-0.002277707565,-0.08829696904
1.03,-0.004991261069,-0.08806114266
1.04,-0.007702829145,-0.08774473334
1.05,-0.01040963943,-0.08734745783
1.06,-0.01310893515,-0.08686914943
1.07,-0.01579797875,-0.08630975299
1.08,-0.01847405503,-0.08566932
1.09,-0.02113447386,-0.08494800385
1.1,-0.02377657251,-0.08414605513
1.11,-0.02639771752,-0.08326381716
1.12,-0.0289953063,-0.08230172169
1.13,-0.03156676827,-0.08126028477
1.14,-0.03410956577,-0.08014010288
1.15,-0.03662119465,-0.07894184927
1.16,-0.03909918458,-0.07766627053
1.17,-0.04154109913,-0.07631418346
1.18,-0.04394453564,-0.07488647218
1.19,-0.04630712494,-0.07338408552
1.2,-0.04862653082,-0.0718080347
1.21,-0.05090044952,-0.0701593913
1.22,-0.05312660898,-0.06843928552
1.23,-0.05530276811,-0.06664890473
1.24,-0.05742671602,-0.06478949232
1.25,-0.05949627117,-0.06286234679
1.26,-0.06150928065,-0.06086882119
1.27,-0.06346361936,-0.05881032281
1.28,-0.06535718941,-0.05668831309
1.29,-0.0671879195,-0.0545043078
1.3,-0.06895376446,-0.05225987753
1.31,-0.07065270495,-0.04995664832
1.32,-0.07228274731,-0.0475963025
1.33,-0.07384192358,-0.04518057978
1.34,-0.07532829171,-0.04271127845
1.35,-0.07673993604,-0.04019025679
1.36,-0.07807496798,-0.0376194345
1.37,-0.07933152693,-0.0350007944
1.38,-0.08050778149,-0.03233638405
1.39,-0.0816019309,-0.0296283175
1.4,-0.0826122068,-0.02687877708
1.41,-0.08353687524,-0.02409001517
1.42,-0.08437423903,-0.02126435595
1.43,-0.08512264027,-0.0184041971
1.44,-0.08578046332,-0.01551201143
1.45,-0.08634613791,-0.01259034839
1.46,-0.08681814266,-0.009641835469
1.47,-0.08719500877,-0.006669179444
1.48,-0.08747532405,-0.0036751674
1.49,-0.08765773716,-0.0006626675877
1.5,-0.08774096213,0.002365369976
1.51,-0.08772378312,0.005405913157
1.52,-0.0876050593,0.008455847642
1.53,-0.08738373005,0.01151197717
1.54,-0.08705882026,0.0145710241
1.55,-0.08662944581,0.01762963029
1.56,-0.08609481916,0.02068435842
1.57,-0.08545425507,0.02373169354
1.58,-0.08470717637,0.0267680452
1.59,-0.08385311985,0.02978974981
1.6,-0.08289174207,0.03279307352
1.61,-0.08182282527,0.03577421552
1.62,-0.08064628319,0.0387293117
1.63,-0.0793621668,0.04165443879
1.64,-0.07797067006,0.04454561898
1.65,-0.07647213537,0.0473988249
1.66,-0.07486705902,0.05020998509
1.67,-0.07315609638,0.05297498985
1.68,-0.07134006683,0.0556896976
1.69,-0.06941995857,0.05834994158
1.7,-0.06739693297,0.06095153696
1.71,-0.06527232877,0.06349028844
1.72,-0.06304766581,0.06596199808
1.73,-0.06072464844,0.06836247362
1.74,-0.05830516855,0.07068753709
1.75,-0.05579130814,0.0729330337
1.76,-0.05318534141,0.07509484114
1.77,-0.05048973644,0.07716887904
1.78,-0.0477071563,0.07915111875
1.79,-0.04484045968,0.08103759328
1.8,-0.04189270093,0.08282440749
1.81,-0.03886712964,0.08450774839
1.82,-0.03576718947,0.08608389559
1.83,-0.0325965166,0.0875492318
1.84,-0.02935893738,0.08890025347
1.85,-0.02605846551,0.09013358132
1.86,-0.02269929853,0.09124597097
1.87,-0.01928581369,0.09223432345
1.88,-0.01582256324,0.09309569562
1.89,-0.01231426904,0.09382731049
1.9,-0.008765816563,0.0944265673
1.91,-0.005182248288,0.0948910515
1.92,-0.001568756475,0.09521854433
1.93,0.002069324666,0.09540703225
1.94,0.005726527391,0.09545471596
1.95,0.009397259419,0.09536001912
1.96,0.01307581348,0.09512159656
1.97,0.01675637743,0.09473834221
1.98,0.02043304481,0.0942093964
1.99,0.02409982601,0.09353415276
2,0.0277506598,0.09271226457
2.01,0.03137942535,0.09174365047
2.02,0.03497995466,0.09062849966
2.03,0.03854604535,0.08936727646
2.04,0.0420714738,0.08796072412
2.05,0.04555000859,0.08640986812
2.06,0.04897542423,0.08471601862
2.07,0.05234151511,0.08288077232
2.08,0.05564210962,0.08090601346
2.09,0.05887108448,0.07879391421
2.1,0.06202237912,0.07654693417
2.11,0.06509001015,0.07416781922
2.12,0.06806808582,0.07165959947
2.13,0.07095082057,0.06902558656
2.14,0.07373254933,0.06626937003
2.15,0.07640774189,0.06339481306
2.16,0.078971017,0.0604060473
2.17,0.0814171563,0.057307467
2.18,0.08374111802,0.05410372235
2.19,0.08593805037,0.05079971209
2.2,0.08800330461,0.04740057529
2.21,0.08993244774,0.04391168256
2.22,0.09172127477,0.04033862642
2.23,0.09336582052,0.03668721103
2.24,0.09486237097,0.03296344127
2.25,0.09620747398,0.02917351119
2.26,0.09739794957,0.02532379185
2.27,0.09843089945,0.02142081856
2.28,0.09930371601,0.0174712776
2.29,0.1000140906,0.01348199245
2.3,0.1005600211,0.009459909508
2.31,0.1009398187,0.005412083428
2.32,0.1011521142,0.001345662011
2.33,0.1011958632,-0.002732129214
2.34,0.1010703505,-0.006814002735
2.35,0.1007751939,-0.01089262506
2.36,0.1003103472,-0.01496063293
2.37,0.09967610223,-0.01901064974
2.38,0.09887308963,-0.02303530204
2.39,0.09790227967,-0.02702723615
2.4,0.09676498141,-0.03097913475
2.41,0.09546284137,-0.03488373359
2.42,0.09399784124,-0.03873383793
2.43,0.09237229471,-0.04252233909
2.44,0.0905888435,-0.04624223062
2.45,0.08865045246,-0.0498866245
2.46,0.08656040394,-0.05344876686
2.47,0.08432229125,-0.05692205356
2.48,0.08194001135,-0.06030004535
2.49,0.07941775676,-0.06357648269
2.5,0.07676000671,-0.0667453001
2.51,0.07397151753,-0.06980064006
2.52,0.07105731234,-0.0727368664
2.53,0.0680226701,-0.07554857711
2.54,0.06487311393,-0.07823061666
2.55,0.06161439886,-0.08077808756
2.56,0.05825249902,-0.08318636141
2.57,0.05479359423,-0.08545108914
2.58,0.05124405611,-0.08756821066
2.59,0.04761043375,-0.08953396366
2.6,0.04389943887,-0.09134489176
2.61,0.04011793071,-0.09299785179
2.62,0.03627290049,-0.09449002033
2.63,0.03237145562,-0.09581889939
2.64,0.02842080365,-0.09698232128
2.65,0.02442823597,-0.09797845269
2.66,0.02040111147,-0.09880579781
2.67,0.01634683995,-0.09946320071
2.68,0.01227286554,-0.09994984679
2.69,0.008186650129,-0.1002652634
2.7,0.004095656723,-0.1004093196
2.71,7.332988043E-06,-0.1003822251
2.72,-0.004070905155,-0.1001845283
2.73,-0.008131689752,-0.09981711362
2.74,-0.01216771682,-0.09928119769
2.75,-0.0161717621,-0.09857832524
2.76,-0.02013669655,-0.09771036381
2.77,-0.0240555014,-0.09667949779
2.78,-0.02792128299,-0.09548822182
2.79,-0.03172728703,-0.09413933333
2.8,-0.03546691253,-0.09263592447
2.81,-0.03913372515,-0.09098137335
2.82,-0.04272147013,-0.08917933467
2.83,-0.04622408458,-0.08723372972
2.84,-0.04963570923,-0.08514873579
2.85,-0.05295069958,-0.08292877509
2.86,-0.05616363639,-0.08057850316
2.87,-0.05926933556,-0.0781027968
2.88,-0.06226285726,-0.07550674159
2.89,-0.06513951445,-0.07279561903
2.9,-0.06789488064,-0.0699748933
2.91,-0.0705247969,-0.06705019779
2.92,-0.07302537823,-0.06402732131
2.93,-0.07539301911,-0.06091219409
2.94,-0.07762439829,-0.05771087359
2.95,-0.07971648286,-0.05442953023
2.96,-0.0816665316,-0.05107443296
2.97,-0.08347209749,-0.04765193481
2.98,-0.08513102954,-0.04416845843
2.99,-0.08664147383,-0.04063048162
3,-0.08800187384,-0.03704452301
3.01,-0.08921097005,-0.03341712775
3.02,-0.09026779881,-0.02975485342
3.03,-0.09117169051,-0.02606425609
3.04,-0.09192226709,-0.0223518766
3.05,-0.09251943887,-0.01862422712
3.06,-0.0929634007,-0.01488777797
3.07,-0.09325462756,-0.01114894477
3.08,-0.0933938695,-0.007414075937
3.09,-0.09338214599,-0.003689440597
3.1,-0.09322073983,1.87831574E-05
3.11,-0.09291119039,0.003704519532
3.12,-0.09245528644,0.007361805847
3.13,-0.09185505857,0.01098480288
3.14,-0.09111277104,0.01456780473
3.15,-0.09023091335,0.01810524811
3.16,-0.08921219142,0.02159172116
3.17,-0.08805951836,0.02502197171
3.18,-0.08677600509,0.02839091499
3.19,-0.0853649505,0.03169364069
3.2,-0.0838298316,0.03492541959
3.21,-0.08217429324,0.03808170951
3.22,-0.08040213789,0.04115816069
3.23,-0.07851731512,0.04415062062
3.24,-0.07652391107,0.04705513824
3.25,-0.07442613784,0.04986796765
3.26,-0.07222832285,0.05258557108
3.27,-0.06993489821,0.05520462148
3.28,-0.06755039008,0.05772200444
3.29,-0.06507940818,0.06013481956
3.3,-0.06252663531,0.06244038129
3.31,-0.05989681705,0.06463621931
3.32,-0.05719475154,0.06672007829
3.33,-0.05442527954,0.06868991723
3.34,-0.05159327459,0.07054390832
3.35,-0.04870363342,0.0722804353
3.36,-0.04576126667,0.07389809138
3.37,-0.04277108978,0.07539567684
3.38,-0.03973801422,0.0767721961
3.39,-0.03666693901,0.07802685452
3.4,-0.03356274253,0.07915905477
3.41,-0.03043027472,0.08016839297
3.42,-0.02727434959,0.08105465442
3.43,-0.02409973803,0.08181780915
3.44,-0.02091116108,0.08245800718
3.45,-0.01771328352,0.08297557356
3.46,-0.01451070781,0.08337100316
3.47,-0.01130796844,0.08364495542
3.48,-0.008109526681,0.08379824882
3.49,-0.00491976567,0.08383185525
3.5,-0.001742985895,0.08374689439
3.51,0.001416598936,0.08354462787
3.52,0.004554865665,0.08322645346
3.53,0.007667785076,0.08279389924
3.54,0.01075142494,0.08224861774
3.55,0.01380195269,0.08159238008
3.56,0.01681563779,0.08082707022
3.57,0.01978885372,0.07995467916
3.58,0.02271807969,0.07897729935
3.59,0.02559990203,0.07789711904
3.6,0.02843101525,0.0767164169
3.61,0.03120822294,0.07543755663
3.62,0.03392843826,0.0740629818
3.63,0.03658868427,0.0725952108
3.64,0.03918609403,0.07103683196
3.65,0.04171791048,0.06939049885
3.66,0.04418148611,0.06765892575
3.67,0.04657428247,0.06584488335
3.68,0.04889386955,0.06395119456
3.69,0.05113792495,0.06198073064
3.7,0.05330423302,0.05993640739
3.71,0.05539068382,0.05782118168
3.72,0.05739527207,0.05563804809
3.73,0.05931609599,0.0533900358
3.74,0.06115135606,0.05108020566
3.75,0.06289935385,0.04871164746
3.76,0.06455849075,0.04628747741
3.77,0.06612726674,0.04381083579
3.78,0.06760427916,0.04128488476
3.79,0.06898822153,0.03871280638
3.8,0.0702778824,0.03609780079
3.81,0.07147214429,0.03344308449
3.82,0.07256998265,0.03075188879
3.83,0.07357046495,0.02802745845
3.84,0.07447274982,0.02527305031
3.85,0.07527608634,0.02249193213
3.86,0.07597981338,0.0196873815
3.87,0.07658335913,0.01686268473
3.88,0.07708624064,0.01402113595
3.89,0.07748806359,0.01116603616
3.9,0.07778852214,0.00830069229
3.91,0.07798739887,0.005428416376
3.92,0.07808456496,0.002552524628
3.93,0.07807998034,-0.0003236634497
3.94,0.07797369412,-0.003196825997
3.95,0.07776584503,-0.006063639775
3.96,0.077456662,-0.008920781203
3.97,0.07704646493,-0.01176492747
3.98,0.07653566544,-0.01459275772
3.99,0.07592476777,-0.0174009544
4,0.07521436985,-0.02018620459
4.01,0.07440516426,-0.02294520161
4.02,0.07349793946,-0.02567464668
4.03,0.0724935809,-0.02837125069
4.04,0.07139307231,-0.03103173624
4.05,0.07019749689,-0.0336528397
4.06,0.06890803866,-0.03623131358
4.07,0.06752598364,-0.03876392897
4.08,0.06605272116,-0.0412474782
4.09,0.06448974503,-0.04367877768
4.1,0.06283865476,-0.04605467095
4.11,0.06110115662,-0.04837203186
4.12,0.05927906466,-0.050627768
4.13,0.05737430165,-0.05281882429
4.14,0.05538889987,-0.0549421867
4.15,0.05332500181,-0.05699488628
4.16,0.05118486064,-0.05897400322
4.17,0.04897084062,-0.0608766712
4.18,0.04668541725,-0.06270008178
4.19,0.04433117725,-0.06444148908
4.2,0.04191081834,-0.06609821446
4.21,0.03942714876,-0.06766765146
4.22,0.0368830866,-0.06914727075
4.23,0.03428165882,-0.07053462529
4.24,0.03162600003,-0.07182735544
4.25,0.02891935102,-0.07302319435
4.26,0.02616505696,-0.07411997316
4.27,0.0233665653,-0.07511562647
4.28,0.0205274234,-0.07600819771
4.29,0.01765127584,-0.0767958445
4.3,0.01474186138,-0.07747684411
4.31,0.01180300961,-0.07804959874
4.32,0.008838637332,-0.07851264087
4.33,0.005852744477,-0.07886463849
4.34,0.002849409843,-0.07910440018
4.35,-0.0001672136,-0.07923088016
4.36,-0.003192903684,-0.07924318314
4.37,-0.006223374365,-0.07914056907
4.38,-0.009254281347,-0.0789224576
4.39,-0.01228122804,-0.07858843248
4.4,-0.01529977179,-0.0781382456
4.41,-0.01830543047,-0.07757182089
4.42,-0.02129368927,-0.07688925785
4.43,-0.02426000783,-0.07609083493
4.44,-0.02719982762,-0.07517701244
4.45,-0.03010857953,-0.07414843529
4.46,-0.03298169178,-0.07300593528
4.47,-0.03581459791,-0.07175053308
4.48,-0.0386027451,-0.07038343981
4.49,-0.0413416026,-0.06890605826
4.5,-0.04402667032,-0.06731998368
4.51,-0.04665348755,-0.06562700415
4.52,-0.04921764184,-0.06382910053
4.53,-0.05171477792,-0.06192844598
4.54,-0.05414060671,-0.059927405
4.55,-0.05649091435,-0.05782853203
4.56,-0.05876157129,-0.05563456959
4.57,-0.06094854136,-0.05334844597
4.58,-0.06304789072,-0.05097327238
4.59,-0.06505579692,-0.0485123397
4.6,-0.0669685577,-0.0459691147
4.61,-0.06878259977,-0.04334723587
4.62,-0.07049448745,-0.04065050865
4.63,-0.07210093108,-0.0378829003
4.64,-0.07359879529,-0.03504853429
4.65,-0.07498510707,-0.03215168419
4.66,-0.0762570635,-0.02919676718
4.67,-0.07741203927,-0.0261883371
4.68,-0.07844759394,-0.02313107703
4.69,-0.07936147878,-0.0200297916
4.7,-0.08015164332,-0.01688939874
4.71,-0.08081624157,-0.01371492119
4.72,-0.08135363772,-0.01051147758
4.73,-0.08176241159,-0.00728427322
4.74,-0.0820413635,-0.004038590523
4.75,-0.08218951881,-0.0007797791932
4.76,-0.08220613187,0.002486753898
4.77,-0.08209068959,0.005755555062
4.78,-0.08184291446,0.009021134374
4.79,-0.08146276703,0.01227797644
4.8,-0.08095044791,0.01552055132
4.81,-0.08030639923,0.01874332564
4.82,-0.07953130548,0.02194077374
4.83,-0.07862609391,0.02510738895
4.84,-0.07759193428,0.02823769492
4.85,-0.07643023807,0.03132625699
4.86,-0.07514265711,0.03436769345
4.87,-0.07373108172,0.0373566869
4.88,-0.07219763814,0.04028799547
4.89,-0.07054468553,0.04315646392
4.9,-0.06877481231,0.04595703465
4.91,-0.06689083205,0.04868475857
4.92,-0.06489577869,0.05133480568
4.93,-0.0627929013,0.05390247559
4.94,-0.06058565833,0.05638320764
4.95,-0.05827771127,0.0587725908
4.96,-0.05587291788,0.06106637335
4.97,-0.05337532491,0.06326047206
4.98,-0.05078916036,0.06535098119
4.99,-0.04811882524,0.06733418095
5,-0.04536888503,0.06920654573
5.01,-0.04254406059,0.07096475172
5.02,-0.03964921877,0.07260568421
5.03,-0.03668936264,0.07412644438
5.04,-0.03366962141,0.07552435561
5.05,-0.03059523997,0.07679696928
5.06,-0.02747156823,0.07794207002
5.07,-0.02430405018,0.07895768049
5.08,-0.02109821269,0.07984206559
5.09,-0.01785965415,0.08059373607
5.1,-0.01459403295,0.08121145161
5.11,-0.01130705578,0.08169422333
5.12,-0.008004465876,0.08204131571
5.13,-0.004692031162,0.08225224791
5.14,-0.001375532341,0.08232679452
5.15,0.001939249005,0.0822649857
5.16,0.005246542312,0.08206710677
5.17,0.008540599875,0.08173369716
5.18,0.01181570862,0.08126554883
5.19,0.01506620174,0.08066370408
5.2,0.01828647024,0.07992945278
5.21,0.02147097425,0.07906432911
5.22,0.02461425421,0.07807010766
5.23,0.02771094177,0.07694879906
5.24,0.03075577046,0.07570264504
5.25,0.03374358609,0.07433411304
5.26,0.03666935683,0.07284589026
5.27,0.03952818299,0.07124087731
5.28,0.0423153064,0.06952218133
5.29,0.04502611943,0.06769310874
5.3,0.04765617369,0.06575715757
5.31,0.05020118817,0.06371800932
5.32,0.05265705709,0.06157952061
5.33,0.05501985723,0.05934571432
5.34,0.05728585476,0.05702077054
5.35,0.05945151169,0.05460901717
5.36,0.06151349175,0.05211492025
5.37,0.06346866579,0.04954307413
5.38,0.06531411669,0.0468981913
5.39,0.06704714368,0.04418509215
5.4,0.06866526627,0.04140869458
5.41,0.07016622747,0.03857400338
5.42,0.07154799666,0.0356860996
5.43,0.07280877179,0.03275012987
5.44,0.07394698108,0.02977129561
5.45,0.07496128428,0.02675484225
5.46,0.07585057322,0.02370604853
5.47,0.07661397203,0.02063021574
5.48,0.07725083671,0.01753265708
5.49,0.07776075424,0.01441868718
5.5,0.07814354118,0.0112936116
5.51,0.07839924178,0.008162716619
5.52,0.07852812563,0.005031259095
5.53,0.07853068479,0.001904456573
5.54,0.07840763056,-0.001212522411
5.55,0.07815988972,-0.00431456778
5.56,0.07778860038,-0.007396637117
5.57,0.07729510748,-0.01045376458
5.58,0.07668095782,-0.01348106952
5.59,0.0759478948,-0.01647376479
5.6,0.07509785275,-0.01942716475
5.61,0.07413295098,-0.02233669288
5.62,0.07305548753,-0.02519788905
5.63,0.07186793258,-0.02800641648
5.64,0.07057292167,-0.03075806824
5.65,0.06917324864,-0.03344877343
5.66,0.06767185834,-0.03607460289
5.67,0.06607183922,-0.0386317746
5.68,0.06437641566,-0.04111665861
5.69,0.0625889402,-0.04352578156
5.7,0.06071288566,-0.04585583082
5.71,0.0587518371,-0.04810365819
5.72,0.0567094838,-0.05026628319
5.73,0.05458961103,-0.05234089596
5.74,0.05239609199,-0.05432485971
5.75,0.05013287951,-0.05621571279
5.76,0.04780399796,-0.05801117035
5.77,0.04541353505,-0.05970912561
5.78,0.04296563373,-0.06130765074
5.79,0.0404644842,-0.06280499736
5.8,0.03791431587,-0.06419959666
5.81,0.03531938959,-0.06549005916
5.82,0.03268398991,-0.06667517415
5.83,0.03001241744,-0.06775390874
5.84,0.02730898145,-0.06872540663
5.85,0.02457799258,-0.06958898655
5.86,0.02182375572,-0.07034414036
5.87,0.01905056314,-0.07099053098
5.88,0.01626268773,-0.07152798988
5.89,0.01346437655,-0.0719565145
5.9,0.01065984451,-0.07227626525
5.91,0.007853268316,-0.07248756246
5.92,0.005048780704,-0.07259088295
5.93,0.002250464808,-0.07258685657
5.94,-0.0005376511439,-0.07247626243
5.95,-0.003311598919,-0.07226002506
5.96,-0.006067475105,-0.07193921036
5.97,-0.008801445689,-0.07151502148
5.98,-0.01150975038,-0.07098879454
5.99,-0.01418870666,-0.0703619943
6,-0.01683471362,-0.06963620969
