"Freq [GHz]","re(S(Tx_p1,Tx_p1)) []","im(S(Tx_p1,Tx_p1)) []"
1,-0.006690978555,-0.2044800396
1.01,-0.01338026406,-0.2035975879
1.02,-0.02004550216,-0.2024872486
1.03,-0.02667685826,-0.2011490449
1.04,-0.03326454394,-0.19958353
1.05,-0.03979884358,-0.1977917761
1.06,-0.04627014002,-0.195775363
1.07,-0.05266893933,-0.1935363653
1.08,-0.05898589459,-0.1910773383
1.09,-0.06521182865,-0.1884013042
1.1,-0.07133775582,-0.1855117361
1.11,-0.07735490259,-0.1824125425
1.12,-0.08325472718,-0.1791080501
1.13,-0.08902893804,-0.1756029866
1.14,-0.09466951121,-0.1719024626
1.15,-0.1001687065,-0.168011953
1.16,-0.1055190828,-0.1639372779
1.17,-0.1107135114,-0.1596845828
1.18,-0.1157451896,-0.1552603192
1.19,-0.1206076515,-0.1506712239
1.2,-0.1252947789,-0.1459242989
1.21,-0.1298008101,-0.1410267901
1.22,-0.1341203484,-0.1359861671
1.23,-0.1382483686,-0.1308101016
1.24,-0.142180223,-0.125506447
1.25,-0.1459116458,-0.120083217
1.26,-0.1494387566,-0.1145485649
1.27,-0.1527580626,-0.1089107628
1.28,-0.1558664602,-0.1031781809
1.29,-0.1587612347,-0.09735926749
1.3,-0.1614400599,-0.09146252866
1.31,-0.1639009959,-0.08549650863
1.32,-0.1661424863,-0.07946977053
1.33,-0.1681633543,-0.07339087746
1.34,-0.1699627984,-0.06726837415
1.35,-0.171540386,-0.06111076906
1.36,-0.1728960476,-0.05492651709
1.37,-0.1740300695,-0.04872400287
1.38,-0.1749430852,-0.04251152465
1.39,-0.1756360674,-0.03629727894
1.4,-0.1761103181,-0.03008934575
1.41,-0.1763674588,-0.0238956746
1.42,-0.1764094199,-0.01772407127
1.43,-0.1762384293,-0.01158218529
1.44,-0.1758570014,-0.005477498252
1.45,-0.1752679244,0.0005826871142
1.46,-0.1744742481,0.006591257032
1.47,-0.1734792716,0.01254129596
1.48,-0.1722865296,0.01842609505
1.49,-0.1708997796,0.02423915976
1.5,-0.1693229884,0.02997421662
1.51,-0.1675603185,0.03562521925
1.52,-0.1656161145,0.04118635342
1.53,-0.1634948892,0.04665204143
1.54,-0.1612013106,0.05201694556
1.55,-0.1587401876,0.05727597082
1.56,-0.1561164568,0.06242426686
1.57,-0.1533351694,0.06745722913
1.58,-0.1504014776,0.07237049934
1.59,-0.1473206222,0.07715996512
1.6,-0.1440979196,0.08182175907
1.61,-0.1407387495,0.08635225704
1.62,-0.1372485433,0.0907480759
1.63,-0.1336327719,0.09500607057
1.64,-0.1298969351,0.09912333053
1.65,-0.1260465504,0.1030971758
1.66,-0.1220871428,0.1069251524
1.67,-0.1180242353,0.1106050273
1.68,-0.1138633391,0.1141347828
1.69,-0.1096099454,0.1175126111
1.7,-0.1052695163,0.1207369076
1.71,-0.1008474784,0.1238062644
1.72,-0.09634921425,0.126719464
1.73,-0.09178005707,0.1294754714
1.74,-0.08714528407,0.1320734273
1.75,-0.08245011135,0.1345126409
1.76,-0.07769968913,0.1367925818
1.77,-0.07289909754,0.1389128724
1.78,-0.06805334309,0.1408732806
1.79,-0.06316735564,0.1426737121
1.8,-0.05824598596,0.1443142021
1.81,-0.05329400388,0.1457949084
1.82,-0.04831609698,0.1471161038
1.83,-0.04331686976,0.1482781683
1.84,-0.03830084342,0.1492815827
1.85,-0.03327245604,0.1501269209
1.86,-0.02823606331,0.1508148438
1.87,-0.02319593966,0.1513460926
1.88,-0.01815627985,0.1517214826
1.89,-0.01312120095,0.1519418975
1.9,-0.008094744653,0.1520082841
1.91,-0.003080880029,0.151921647
1.92,0.001916493522,0.1516830438
1.93,0.006893542962,0.1512935811
1.94,0.01184649809,0.1507544107
1.95,0.01677164777,0.1500667259
1.96,0.02166533606,0.1492317585
1.97,0.02652395807,0.1482507766
1.98,0.03134395583,0.1471250824
1.99,0.036121814,0.1458560107
2,0.04085405559,0.1444449276
2.01,0.04553723767,0.1428932301
2.02,0.05016794706,0.1412023458
2.03,0.05474279616,0.1393737333
2.04,0.05925841886,0.1374088829
2.05,0.06371146653,0.1353093179
2.06,0.06809860425,0.133076596
2.07,0.07241650722,0.1307123119
2.08,0.07666185738,0.1282180989
2.09,0.08083134031,0.1255956328
2.1,0.08492164241,0.1228466343
2.11,0.08892944844,0.1199728729
2.12,0.09285143932,0.1169761708
2.13,0.09668429041,0.1138584071
2.14,0.1004246701,0.1106215221
2.15,0.1040692387,0.1072675222
2.16,0.1076146482,0.1037984846
2.17,0.111057542,0.1002165626
2.18,0.1143945552,0.09652399056
2.19,0.1176223155,0.09272308961
2.2,0.1207374447,0.08881627273
2.21,0.1237365604,0.08480605039
2.22,0.1266162781,0.08069503598
2.23,0.1293732147,0.07648595131
2.24,0.1320039911,0.07218163191
2.25,0.1345052365,0.06778503241
2.26,0.1368735928,0.06329923163
2.27,0.1391057191,0.05872743757
2.28,0.1411982975,0.0540729922
2.29,0.1431480386,0.04933937598
2.3,0.144951688,0.0445302121
2.31,0.1466060329,0.0396492704
2.32,0.1481079095,0.03470047101
2.33,0.1494542104,0.02968788748
2.34,0.1506418929,0.02461574966
2.35,0.1516679871,0.01948844599
2.36,0.1525296047,0.01431052542
2.37,0.1532239484,0.009086698781
2.38,0.1537483208,0.003821839652
2.39,0.154100134,-0.001479015314
2.4,0.1542769201,-0.006810666656
2.41,0.1542763405,-0.01216775295
2.42,0.1540961965,-0.01754475224
2.43,0.1537344394,-0.02293598417
2.44,0.1531891814,-0.02833561263
2.45,0.1524587053,-0.0337376492
2.46,0.1515414758,-0.03913595711
2.47,0.1504361492,-0.044524256
2.48,0.1491415845,-0.04989612727
2.49,0.147656853,-0.05524502009
2.5,0.1459812488,-0.0605642582
2.51,0.1441142985,-0.06584704724
2.52,0.1420557713,-0.07108648286
2.53,0.1398056877,-0.07627555941
2.54,0.1373643291,-0.08140717933
2.55,0.1347322463,-0.08647416318
2.56,0.1319102678,-0.09146926024
2.57,0.1288995078,-0.09638515977
2.58,0.1257013733,-0.1012145028
2.59,0.1223175711,-0.1059498947
2.6,0.1187501142,-0.1105839177
2.61,0.1150013272,-0.1151091448
2.62,0.1110738518,-0.1195181534
2.63,0.1069706508,-0.1238035396
2.64,0.1026950118,-0.1279579332
2.65,0.09825055053,-0.1319740128
2.66,0.09364121287,-0.1358445214
2.67,0.08887127629,-0.1395622817
2.68,0.08394535059,-0.1431202129
2.69,0.07886837768,-0.1465113465
2.7,0.07364563065,-0.149728843
2.71,0.06828271184,-0.1527660083
2.72,0.06278555023,-0.1556163108
2.73,0.05716039771,-0.1582733975
2.74,0.05141382469,-0.1607311114
2.75,0.04555271467,-0.1629835076
2.76,0.03958425797,-0.1650248704
2.77,0.03351594454,-0.1668497292
2.78,0.02735555585,-0.1684528751
2.79,0.02111115599,-0.1698293766
2.8,0.0147910817,-0.1709745954
2.81,0.00840393173,-0.1718842017
2.82,0.001958555188,-0.1725541889
2.83,-0.004535960898,-0.1729808882
2.84,-0.01107030485,-0.1731609828
2.85,-0.01763495442,-0.1730915207
2.86,-0.02422019166,-0.1727699279
2.87,-0.03081611853,-0.1721940207
2.88,-0.03741267327,-0.1713620167
2.89,-0.04399964741,-0.1702725461
2.9,-0.05056670349,-0.1689246612
2.91,-0.05710339337,-0.167317846
2.92,-0.06359917718,-0.1654520244
2.93,-0.07004344275,-0.1633275677
2.94,-0.07642552557,-0.1609453009
2.95,-0.08273472921,-0.158306509
2.96,-0.08896034616,-0.1554129408
2.97,-0.095091679,-0.1522668132
2.98,-0.1011180619,-0.1488708138
2.99,-0.1070288826,-0.1452281021
3,-0.1128136038,-0.1413423105
3.01,-0.118461786,-0.1372175434
3.02,-0.1239631092,-0.1328583761
3.03,-0.1293073957,-0.1282698516
3.04,-0.1344846317,-0.1234574769
3.05,-0.13948499,-0.1184272183
3.06,-0.1442988519,-0.1131854952
3.07,-0.148916829,-0.1077391732
3.08,-0.1533297852,-0.1020955555
3.09,-0.1575288577,-0.09626237389
3.1,-0.1615054779,-0.09024777818
3.11,-0.1652513925,-0.08406032487
3.12,-0.1687586831,-0.07770896455
3.13,-0.1720197863,-0.07120302838
3.14,-0.1750275121,-0.06455221351
3.15,-0.177775063,-0.05776656759
3.16,-0.1802560512,-0.05085647226
3.17,-0.1824645157,-0.04383262572
3.18,-0.184394939,-0.03670602449
3.19,-0.1860422615,-0.02948794423
3.2,-0.1874018972,-0.02218991982
3.21,-0.1884697463,-0.0148237246
3.22,-0.1892422085,-0.007401348965
3.23,-0.1897161943,6.502178407E-05
3.24,-0.1898891359,0.007563030171
3.25,-0.1897589966,0.01508016989
3.26,-0.1893242793,0.02260380964
3.27,-0.1885840338,0.03012121749
3.28,-0.1875378631,0.0376195856
3.29,-0.1861859286,0.04508605532
3.3,-0.1845289535,0.05250774266
3.31,-0.1825682257,0.05987176387
3.32,-0.1803055992,0.06716526133
3.33,-0.1777434944,0.0743754295
3.34,-0.1748848966,0.08148954094
3.35,-0.1717333541,0.08849497234
3.36,-0.1682929745,0.0953792305
3.37,-0.1645684197,0.1021299781
3.38,-0.1605649002,0.1087350595
3.39,-0.1562881674,0.1151825259
3.4,-0.1517445054,0.1214606607
3.41,-0.1469407211,0.127558004
3.42,-0.1418841334,0.1334633771
3.43,-0.136582561,0.1391659061
3.44,-0.1310443091,0.1446550452
3.45,-0.1252781554,0.1499205995
3.46,-0.119293334,0.1549527468
3.47,-0.1130995197,0.1597420588
3.48,-0.1067068096,0.1642795219
3.49,-0.1001257054,0.1685565566
3.5,-0.09336709326,0.1725650363
3.51,-0.0864422239,0.1762973056
3.52,-0.07936269107,0.1797461965
3.53,-0.07214040968,0.1829050451
3.54,-0.06478759289,0.1857677059
3.55,-0.05731672867,0.1883285661
3.56,-0.04974055561,0.1905825577
3.57,-0.04207203811,0.1925251698
3.58,-0.03432434112,0.1941524582
3.59,-0.0265108043,0.1954610551
3.6,-0.01864491582,0.196448177
3.61,-0.01074028572,0.1971116312
3.62,-0.002810619042,0.1974498213
3.63,0.005130311342,0.1974617514
3.64,0.01306869205,0.1971470294
3.65,0.02099069663,0.1965058676
3.66,0.02888251309,0.1955390842
3.67,0.03673037137,0.1942481013
3.68,0.04452057076,0.1926349431
3.69,0.05223950722,0.1907022325
3.7,0.05987370043,0.1884531856
3.71,0.06740982065,0.185891606
3.72,0.07483471519,0.1830218775
3.73,0.08213543459,0.1798489552
3.74,0.08929925823,0.1763783557
3.75,0.09631371957,0.1726161459
3.76,0.1031666307,0.1685689314
3.77,0.1098461066,0.1642438424
3.78,0.1163405878,0.1596485197
3.79,0.1226388641,0.154791099
3.8,0.1287300952,0.1496801943
3.81,0.1346038326,0.1443248807
3.82,0.1402500396,0.1387346753
3.83,0.1456591101,0.1329195182
3.84,0.1508218874,0.1268897524
3.85,0.1557296813,0.1206561022
3.86,0.1603742844,0.1142296516
3.87,0.1647479873,0.1076218219
3.88,0.1688435927,0.1008443485
3.89,0.1726544285,0.09390925652
3.9,0.1761743596,0.08682883728
3.91,0.1793977985,0.07961562289
3.92,0.1823197149,0.07228236114
3.93,0.184935644,0.06484198992
3.94,0.1872416933,0.05730761117
3.95,0.1892345489,0.04969246475
3.96,0.1909114796,0.04200990201
3.97,0.1922703406,0.0342733593
3.98,0.1933095752,0.02649633135
3.99,0.1940282161,0.01869234469
4,0.1944258848,0.01087493112
4.01,0.1945027899,0.003057601251
4.02,0.1942597243,-0.004746181735
4.03,0.1936980611,-0.01252302812
4.04,0.1928197485,-0.02025964739
4.05,0.1916273032,-0.02794287365
4.06,0.1901238028,-0.0355596906
4.07,0.1883128772,-0.04309725609
4.08,0.1861986987,-0.05054292617
4.09,0.183785971,-0.05788427856
4.1,0.1810799175,-0.06510913556
4.11,0.1780862681,-0.07220558623
4.12,0.1748112456,-0.07916200795
4.13,0.1712615503,-0.0859670872
4.14,0.1674443448,-0.09260983955
4.15,0.1633672371,-0.09907962884
4.16,0.1590382633,-0.1053661855
4.17,0.1544658693,-0.1114596241
4.18,0.149658892,-0.1173504595
4.19,0.1446265399,-0.1230296229
4.2,0.1393783726,-0.1284884759
4.21,0.1339242801,-0.1337188245
4.22,0.128274462,-0.1387129311
4.23,0.122439405,-0.1434635267
4.24,0.1164298615,-0.1479638207
4.25,0.1102568267,-0.1522075105
4.26,0.103931516,-0.1561887896
4.27,0.09746534171,-0.1599023551
4.28,0.09086989007,-0.1633434134
4.29,0.08415689775,-0.1665076852
4.3,0.07733822836,-0.1693914097
4.31,0.07042584904,-0.1719913468
4.32,0.06343180686,-0.1743047792
4.33,0.0563682055,-0.1763295128
4.34,0.04924718191,-0.1780638763
4.35,0.0420808832,-0.1795067193
4.36,0.03488144375,-0.1806574102
4.37,0.02766096258,-0.1815158321
4.38,0.02043148105,-0.1820823783
4.39,0.01320496092,-0.1823579467
4.4,0.005993262796,-0.1823439334
4.41,-0.001191874926,-0.1820422246
4.42,-0.008338856655,-0.1814551886
4.43,-0.01543624966,-0.1805856664
4.44,-0.02247280354,-0.1794369615
4.45,-0.02943746915,-0.1780128289
4.46,-0.03631941675,-0.1763174632
4.47,-0.04310805365,-0.1743554865
4.48,-0.04979304104,-0.1721319347
4.49,-0.05636431009,-0.1696522441
4.5,-0.0628120774,-0.1669222367
4.51,-0.06912685951,-0.1639481051
4.52,-0.07529948677,-0.160736397
4.53,-0.08132111626,-0.1572939991
4.54,-0.08718324399,-0.1536281205
4.55,-0.09287771614,-0.1497462759
4.56,-0.09839673953,-0.1456562679
4.57,-0.1037328912,-0.1413661701
4.58,-0.108879127,-0.1368843082
4.59,-0.1138287895,-0.1322192429
4.6,-0.1185756149,-0.1273797507
4.61,-0.1231137391,-0.1223748059
4.62,-0.1274377025,-0.1172135621
4.63,-0.1315424549,-0.1119053332
4.64,-0.1354233584,-0.1064595751
4.65,-0.13907619,-0.1008858668
4.66,-0.1424971435,-0.09519389224
4.67,-0.1456828302,-0.08939342144
4.68,-0.1486302787,-0.08349429255
4.69,-0.1513369345,-0.07750639356
4.7,-0.1538006581,-0.07143964451
4.71,-0.1560197227,-0.06530397983
4.72,-0.1579928112,-0.05910933101
4.73,-0.159719012,-0.05286560961
4.74,-0.1611978148,-0.04658269062
4.75,-0.1624291051,-0.04027039614
4.76,-0.1634131582,-0.03393847958
4.77,-0.1641506331,-0.02759661023
4.78,-0.1646425649,-0.0212543583
4.79,-0.1648903571,-0.01492118043
4.8,-0.1648957737,-0.008606405789
4.81,-0.1646609299,-0.002319222584
4.82,-0.1641882834,0.003931334794
4.83,-0.1634806242,0.01013639811
4.84,-0.1625410649,0.01628727706
4.85,-0.1613730297,0.02237547038
4.86,-0.1599802442,0.0283926765
4.87,-0.1583667234,0.03433080346
4.88,-0.1565367612,0.04018197828
4.89,-0.1544949177,0.04593855572
4.9,-0.1522460083,0.05159312636
4.91,-0.1497950905,0.05713852417
4.92,-0.1471474526,0.06256783332
4.93,-0.1443086008,0.06787439453
4.94,-0.1412842466,0.07305181062
4.95,-0.1380802949,0.07809395165
4.96,-0.1347028306,0.0829949593
4.97,-0.1311581068,0.08774925076
4.98,-0.1274525315,0.09235152192
4.99,-0.1235926559,0.09679675017
5,-0.1195851613,0.1010801964
5.01,-0.1154368473,0.1051974067
5.02,-0.1111546192,0.1091442133
5.03,-0.1067454763,0.1129167352
5.04,-0.1022165,0.1165113781
5.05,-0.09757484196,0.119924834
5.06,-0.09282771271,0.1231540803
5.07,-0.08798237062,0.1261963782
5.08,-0.08304611075,0.1290492714
5.09,-0.07802625423,0.1317105833
5.1,-0.07293013781,0.1341784149
5.11,-0.06776510374,0.1364511414
5.12,-0.06253848992,0.1385274094
5.13,-0.05725762042,0.1404061328
5.14,-0.05192979624,0.142086489
5.15,-0.04656228647,0.1435679151
5.16,-0.04116231975,0.1448501029
5.17,-0.03573707605,0.1459329942
5.18,-0.03029367881,0.1468167764
5.19,-0.02483918747,0.147501877
5.2,-0.01938059025,0.1479889584
5.21,-0.01392479734,0.1482789123
5.22,-0.008478634409,0.1483728546
5.23,-0.003048836467,0.1482721192
5.24,0.002357957956,0.1479782526
5.25,0.007735212287,0.147493008
5.26,0.01307649707,0.1468183392
5.27,0.01837549482,0.1459563948
5.28,0.02362600451,0.1449095124
5.29,0.02882194585,0.1436802124
5.3,0.03395736319,0.1422711922
5.31,0.03902642921,0.1406853202
5.32,0.04402344823,0.1389256298
5.33,0.04894285943,0.1369953139
5.34,0.05377923963,0.1348977186
5.35,0.05852730597,0.1326363379
5.36,0.06318191833,0.130214808
5.37,0.06773808149,0.1276369013
5.38,0.07219094715,0.1249065216
5.39,0.07653581574,0.1220276982
5.4,0.08076813803,0.1190045809
5.41,0.08488351667,0.1158414346
5.42,0.08887770745,0.1125426344
5.43,0.09274662051,0.1091126608
5.44,0.09648632146,0.1055560945
5.45,0.1000930323,0.101877612
5.46,0.1035631322,0.09808198083
5.47,0.1068931586,0.09417405496
5.48,0.1100798075,0.09015877063
5.49,0.1131199343,0.08604114191
5.5,0.1160105546,0.08182625653
5.51,0.1187488442,0.0775192718
5.52,0.1213321403,0.07312541057
5.53,0.1237579415,0.06864995734
5.54,0.1260239084,0.06409825437
5.55,0.1281278641,0.05947569794
5.56,0.130067795,0.05478773457
5.57,0.1318418503,0.05003985741
5.58,0.1334483438,0.04523760259
5.59,0.1348857533,0.04038654562
5.6,0.1361527216,0.03549229783
5.61,0.137248057,0.03056050285
5.62,0.1381707337,0.02559683302
5.63,0.1389198927,0.02060698591
5.64,0.1394948419,0.01559668071
5.65,0.1398950571,0.01057165468
5.66,0.1401201825,0.005537659558
5.67,0.1401700312,0.0005004578849
5.68,0.1400445861,-0.004534180671
5.69,0.1397440006,-0.009560483072
5.7,0.139268599,-0.01457267673
5.71,0.1386188772,-0.01956499339
5.72,0.1377955036,-0.02453167313
5.73,0.1367993197,-0.02946696839
5.74,0.1356313404,-0.03436514816
5.75,0.1342927551,-0.0392205022
5.76,0.1327849276,-0.04402734546
5.77,0.1311093973,-0.04878002253
5.78,0.1292678792,-0.05347291221
5.79,0.1272622643,-0.05810043228
5.8,0.1250946201,-0.06265704425
5.81,0.1227671906,-0.06713725841
5.82,0.1202823963,-0.07153563883
5.83,0.1176428345,-0.0758468086
5.84,0.1148512789,-0.08006545517
5.85,0.1119106794,-0.08418633574
5.86,0.1088241616,-0.08820428287
5.87,0.1055950261,-0.09211421016
5.88,0.102226748,-0.09591111802
5.89,0.09872297573,-0.09959009957
5.9,0.09508752974,-0.1031463466
5.91,0.0913244014,-0.1065751558
5.92,0.08743775125,-0.1098719346
5.93,0.08343190713,-0.1130322079
5.94,0.07931136216,-0.116051624
5.95,0.07508077236,-0.1189259609
5.96,0.07074495406,-0.1216511331
5.97,0.06630888101,-0.1242231978
5.98,0.06177768125,-0.1266383613
5.99,0.05715663364,-0.1288929855
6,0.05245116411,-0.1309835945
