"Freq [GHz]","re(S(Tx_p1,Tx_p1)) []","im(S(Tx_p1,Tx_p1)) []"
1,-0.001786315942,-0.05330129577
1.01,-0.003444496126,-0.05304757771
1.02,-0.005093366392,-0.05274263789
1.03,-0.006730953261,-0.0523867871
1.04,-0.008355322417,-0.05198043532
1.05,-0.009964583097,-0.05152408667
1.06,-0.01155689208,-0.05101833431
1.07,-0.01313045726,-0.05046385529
1.08,-0.01468354087,-0.04986140533
1.09,-0.01621446227,-0.04921181356
1.1,-0.01772160035,-0.04851597735
1.11,-0.01920339561,-0.04777485699
1.12,-0.02065835183,-0.0469894706
1.13,-0.02208503737,-0.04616088894
1.14,-0.02348208615,-0.04529023041
1.15,-0.0248481983,-0.04437865604
1.16,-0.02618214045,-0.04342736471
1.17,-0.02748274573,-0.0424375884
1.18,-0.02874891349,-0.04141058764
1.19,-0.02997960867,-0.0403476471
1.2,-0.03117386104,-0.03925007139
1.21,-0.03233076399,-0.03811918099
1.22,-0.03344947329,-0.03695630845
1.23,-0.0345292055,-0.03576279474
1.24,-0.03556923625,-0.03453998586
1.25,-0.0365688983,-0.03328922971
1.26,-0.03752757946,-0.0320118731
1.27,-0.0384447204,-0.03070925912
1.28,-0.03931981227,-0.02938272469
1.29,-0.0401523943,-0.02803359837
1.3,-0.04094205126,-0.02666319846
1.31,-0.04168841087,-0.02527283134
1.32,-0.04239114121,-0.02386379003
1.33,-0.04304994806,-0.02243735307
1.34,-0.04366457224,-0.0209947836
1.35,-0.04423478702,-0.01953732873
1.36,-0.04476039549,-0.01806621913
1.37,-0.04524122803,-0.01658266885
1.38,-0.04567713985,-0.01508787538
1.39,-0.04606800861,-0.01358301993
1.4,-0.0464137321,-0.01206926794
1.41,-0.04671422611,-0.01054776977
1.42,-0.0469694224,-0.00901966154
1.43,-0.04717926679,-0.007486066249
1.44,-0.04734371741,-0.00594809495
1.45,-0.04746274321,-0.004406848137
1.46,-0.0475363225,-0.002863417242
1.47,-0.04756444178,-0.001318886257
1.48,-0.04754709476,0.0002256665418
1.49,-0.04748428153,0.001769166789
1.5,-0.04737600799,0.00331054215
1.51,-0.04722228547,0.004848720394
1.52,-0.04702313056,0.006382627429
1.53,-0.04677856519,0.007911185323
1.54,-0.04648861688,0.009433310325
1.55,-0.04615331924,0.0109479109
1.56,-0.0457727127,0.01245388583
1.57,-0.04534684542,0.01395012228
1.58,-0.0448757744,0.01543549408
1.59,-0.04435956686,0.01690885995
1.6,-0.04379830174,0.01836906191
1.61,-0.04319207145,0.01981492381
1.62,-0.04254098374,0.02124524992
1.63,-0.0418451638,0.02265882379
1.64,-0.04110475649,0.02405440715
1.65,-0.04031992871,0.02543073906
1.66,-0.03949087191,0.02678653526
1.67,-0.03861780475,0.02812048763
1.68,-0.03770097585,0.02943126398
1.69,-0.03674066658,0.03071750796
1.7,-0.03573719401,0.03197783925
1.71,-0.03469091387,0.03321085397
1.72,-0.03360222359,0.03441512535
1.73,-0.03247156526,0.03558920459
1.74,-0.03129942878,0.03673162206
1.75,-0.03008635482,0.03784088867
1.76,-0.02883293783,0.03891549755
1.77,-0.02753982904,0.03995392592
1.78,-0.02620773933,0.04095463731
1.79,-0.02483744201,0.04191608392
1.8,-0.02342977557,0.04283670934
1.81,-0.02198564624,0.04371495141
1.82,-0.02050603041,0.04454924537
1.83,-0.01899197699,0.04533802722
1.84,-0.01744460943,0.04607973736
1.85,-0.01586512774,0.04677282432
1.86,-0.01425481012,0.0474157488
1.87,-0.01261501453,0.04800698785
1.88,-0.01094717991,0.04854503922
1.89,-0.009252827214,0.04902842592
1.9,-0.007533560135,0.04945570084
1.91,-0.005791065605,0.04982545157
1.92,-0.004027113974,0.05013630532
1.93,-0.002243558903,0.05038693394
1.94,-0.0004423369529,0.05057605896
1.95,0.001374533134,0.0507024568
1.96,0.00320495148,0.0507649639
1.97,0.005046738437,0.05076248195
1.98,0.006897636279,0.05069398312
1.99,0.008755311232,0.05055851519
2,0.01061735583,0.05035520675
2.01,0.01248129161,0.05008327225
2.02,0.01434457213,0.04974201699
2.03,0.01620458633,0.04933084206
2.04,0.01805866222,0.04884924904
2.05,0.01990407086,0.04829684466
2.06,0.02173803068,0.04767334526
2.07,0.02355771214,0.04697858102
2.08,0.02536024261,0.04621250004
2.09,0.02714271159,0.04537517215
2.1,0.0289021762,0.0444667925
2.11,0.03063566694,0.04348768487
2.12,0.03234019369,0.0424383047
2.13,0.0340127519,0.04131924185
2.14,0.03565032913,0.04013122295
2.15,0.03724991163,0.03887511357
2.16,0.03880849122,0.03755191987
2.17,0.04032307227,0.03616279005
2.18,0.0417906789,0.03470901534
2.19,0.04320836217,0.03319203061
2.2,0.04457320756,0.03161341463
2.21,0.04588234234,0.02997488989
2.22,0.04713294316,0.02827832207
2.23,0.04832224355,0.026525719
2.24,0.04944754151,0.02471922931
2.25,0.05050620705,0.02286114058
2.26,0.05149568974,0.02095387715
2.27,0.05241352614,0.01899999738
2.28,0.05325734715,0.01700219065
2.29,0.05402488535,0.01496327378
2.3,0.05471398204,0.01288618717
2.31,0.05532259428,0.01077399048
2.32,0.05584880165,0.008629857826
2.33,0.05629081285,0.006457072752
2.34,0.05664697206,0.004259022662
2.35,0.05691576504,0.002039192964
2.36,0.05709582496,-0.0001988391779
2.37,0.05718593797,-0.002451411429
2.38,0.0571850484,-0.00471478321
2.39,0.05709226367,-0.006985142927
2.4,0.05690685881,-0.009258615517
2.41,0.05662828066,-0.01153127026
2.42,0.05625615162,-0.01379912886
2.43,0.05579027304,-0.01605817376
2.44,0.05523062817,-0.01830435669
2.45,0.05457738469,-0.0205336074
2.46,0.05383089679,-0.02274184256
2.47,0.05299170679,-0.02492497483
2.48,0.05206054628,-0.02707892203
2.49,0.05103833684,-0.02919961645
2.5,0.04992619023,-0.03128301419
2.51,0.04872540807,-0.03332510456
2.52,0.04743748112,-0.03532191955
2.53,0.04606408799,-0.03726954321
2.54,0.04460709337,-0.03916412104
2.55,0.04306854581,-0.04100186938
2.56,0.04145067493,-0.04277908462
2.57,0.03975588824,-0.04449215231
2.58,0.03798676738,-0.04613755625
2.59,0.03614606395,-0.04771188721
2.6,0.03423669487,-0.04921185166
2.61,0.03226173725,-0.05063428016
2.62,0.03022442281,-0.05197613555
2.63,0.02812813191,-0.05323452085
2.64,0.02597638711,-0.05440668691
2.65,0.02377284638,-0.05549003973
2.66,0.02152129582,-0.05648214742
2.67,0.01922564216,-0.0573807468
2.68,0.01688990472,-0.05818374971
2.69,0.01451820723,-0.05888924879
2.7,0.01211476918,-0.05949552295
2.71,0.009683896973,-0.06000104237
2.72,0.007229974755,-0.06040447304
2.73,0.004757455049,-0.06070468086
2.74,0.002270849134,-0.06090073526
2.75,-0.0002252827564,-0.06099191232
2.76,-0.002726341406,-0.0609776974
2.77,-0.005227698732,-0.0608577873
2.78,-0.007724708006,-0.06063209181
2.79,-0.01021271418,-0.06030073486
2.8,-0.01268706426,-0.05986405504
2.81,-0.0151431177,-0.05932260568
2.82,-0.01757625683,-0.05867715431
2.83,-0.01998189725,-0.0579286817
2.84,-0.02235549813,-0.05707838024
2.85,-0.02469257252,-0.05612765193
2.86,-0.02698869745,-0.05507810576
2.87,-0.02923952394,-0.05393155459
2.88,-0.03144078691,-0.05269001156
2.89,-0.03358831477,-0.05135568597
2.9,-0.0356780389,-0.04993097868
2.91,-0.03770600287,-0.04841847704
2.92,-0.03966837135,-0.04682094935
2.93,-0.04156143876,-0.0451413389
2.94,-0.04338163764,-0.04338275754
2.95,-0.04512554665,-0.04154847887
2.96,-0.04678989819,-0.039641931
2.97,-0.04837158569,-0.03766668897
2.98,-0.04986767051,-0.0356264668
2.99,-0.05127538837,-0.03352510919
3,-0.05259215541,-0.03136658294
3.01,-0.05381557378,-0.02915496807
3.02,-0.05494343676,-0.02689444863
3.03,-0.05597373346,-0.02458930337
3.04,-0.05690465294,-0.0222438961
3.05,-0.05773458792,-0.01986266589
3.06,-0.058462138,-0.01745011715
3.07,-0.05908611229,-0.01501080952
3.08,-0.05960553156,-0.01254934769
3.09,-0.06001962995,-0.01007037109
3.1,-0.06032785601,-0.007578543599
3.11,-0.06052987335,-0.005078543169
3.12,-0.0606255607,-0.00257505147
3.13,-0.06061501148,-7.274356762E-05
3.14,-0.0604985328,0.002423722346
3.15,-0.06027664403,0.004909715142
3.16,-0.05995007482,0.007380640828
3.17,-0.05951976259,0.009831952495
3.18,-0.0589868496,0.0122591601
3.19,-0.05835267947,0.01465784004
3.2,-0.0576187933,0.01702364459
3.21,-0.05678692531,0.01935231099
3.22,-0.05585899799,0.02163967037
3.23,-0.0548371169,0.02388165639
3.24,-0.05372356504,0.02607431351
3.25,-0.0525207968,0.02821380503
3.26,-0.05123143155,0.03029642072
3.27,-0.04985824692,0.03231858415
3.28,-0.04840417167,0.03427685958
3.29,-0.04687227834,0.03616795857
3.3,-0.04526577551,0.03798874606
3.31,-0.04358799987,0.03973624611
3.32,-0.04184240803,0.0414076472
3.33,-0.04003256807,0.04300030713
3.34,-0.03816215095,0.04451175736
3.35,-0.03623492173,0.04593970702
3.36,-0.03425473058,0.04728204638
3.37,-0.03222550381,0.04853684992
3.38,-0.03015123462,0.04970237884
3.39,-0.02803597395,0.0507770832
3.4,-0.02588382117,0.0517596035
3.41,-0.0236989148,0.05264877184
3.42,-0.0214854232,0.05344361261
3.43,-0.01924753534,0.05414334266
3.44,-0.01698945153,0.05474737109
3.45,-0.01471537435,0.05525529852
3.46,-0.01242949957,0.05566691593
3.47,-0.01013600725,0.05598220303
3.48,-0.007839052943,0.0562013263
3.49,-0.005542759137,0.05632463645
3.5,-0.003251206788,0.05635266564
3.51,-0.000968427128,0.05628612413
3.52,0.001301606325,0.05612589671
3.53,0.003554985515,0.05587303867
3.54,0.005787875329,0.05552877141
3.55,0.0079965208,0.05509447779
3.56,0.01017725402,0.05457169705
3.57,0.01232650076,0.05396211955
3.58,0.01444078672,0.05326758114
3.59,0.01651674351,0.05249005731
3.6,0.01855111426,0.05163165706
3.61,0.02054075885,0.0506946166
3.62,0.02248265883,0.04968129283
3.63,0.02437392192,0.04859415657
3.64,0.02621178618,0.04743578576
3.65,0.02799362375,0.04620885838
3.66,0.02971694427,0.04491614539
3.67,0.03137939785,0.04356050344
3.68,0.03297877769,0.04214486762
3.69,0.0345130223,0.04067224407
3.7,0.03598021733,0.03914570262
3.71,0.03737859701,0.03756836936
3.72,0.03870654526,0.0359434193
3.73,0.03996259632,0.03427406894
3.74,0.0411454351,0.03256356902
3.75,0.04225389716,0.03081519724
3.76,0.04328696824,0.0290322511
3.77,0.0442437836,0.02721804085
3.78,0.04512362681,0.02537588257
3.79,0.04592592846,0.02350909135
3.8,0.04665026431,0.02162097465
3.81,0.04729635331,0.01971482586
3.82,0.04786405525,0.01779391796
3.83,0.04835336813,0.01586149745
3.84,0.04876442528,0.0139207785
3.85,0.04909749225,0.01197493722
3.86,0.0493529634,0.0100271063
3.87,0.04953135833,0.008080369758
3.88,0.04963331809,0.006137758048
3.89,0.04965960119,0.004202243358
3.9,0.04961107942,0.002276735199
3.91,0.04948873358,0.0003640762572
3.92,0.049293649,-0.001532961475
3.93,0.04902701097,-0.003411680294
3.94,0.04869010008,-0.005269460092
3.95,0.04828428741,-0.007103761389
3.96,0.04781102975,-0.008912128075
3.97,0.04727186467,-0.01069218987
3.98,0.04666840561,-0.01244166452
3.99,0.04600233689,-0.01415835966
4,0.04527540882,-0.01584017448
4.01,0.04448943266,-0.01748510106
4.02,0.04364627577,-0.01909122542
4.03,0.0427478567,-0.02065672841
4.04,0.0417961403,-0.02217988621
4.05,0.04079313305,-0.02365907071
4.06,0.03974087826,-0.02509274952
4.07,0.03864145154,-0.02647948588
4.08,0.0374969563,-0.02781793824
4.09,0.03630951929,-0.0291068597
4.1,0.03508128642,-0.0303450972
4.11,0.03381441858,-0.03153159056
4.12,0.03251108766,-0.03266537127
4.13,0.0311734727,-0.03374556125
4.14,0.02980375619,-0.03477137124
4.15,0.02840412058,-0.03574209929
4.16,0.02697674486,-0.03665712889
4.17,0.02552380143,-0.03751592716
4.18,0.02404745302,-0.03831804282
4.19,0.0225498499,-0.03906310409
4.2,0.02103312718,-0.03975081658
4.21,0.01949940237,-0.04038096097
4.22,0.01795077303,-0.04095339077
4.23,0.01638931466,-0.04146802996
4.24,0.0148170788,-0.04192487062
4.25,0.01323609119,-0.0423239705
4.26,0.01164835024,-0.04266545068
4.27,0.01005582554,-0.04294949311
4.28,0.008460456675,-0.04317633822
4.29,0.006864152063,-0.04334628258
4.3,0.005268788045,-0.04345967656
4.31,0.00367620808,-0.04351692199
4.32,0.002088222097,-0.04351846998
4.33,0.0005066059787,-0.04346481868
4.34,-0.001066898824,-0.04335651119
4.35,-0.002630585562,-0.0431941335
4.36,-0.004182782338,-0.04297831254
4.37,-0.005721852163,-0.04270971429
4.38,-0.007246192907,-0.04238904199
4.39,-0.008754237177,-0.04201703445
4.4,-0.01024445211,-0.04159446446
4.41,-0.0117153391,-0.0411221373
4.42,-0.01316543346,-0.04060088934
4.43,-0.01459330409,-0.04003158678
4.44,-0.01599755301,-0.03941512445
4.45,-0.01737681493,-0.03875242477
4.46,-0.01872975683,-0.03804443677
4.47,-0.02005507745,-0.03729213528
4.48,-0.02135150684,-0.03649652009
4.49,-0.02261780588,-0.03565861541
4.5,-0.02385276588,-0.03477946924
4.51,-0.02505520811,-0.03386015297
4.52,-0.02622398345,-0.03290176096
4.53,-0.02735797205,-0.03190541031
4.54,-0.02845608302,-0.03087224065
4.55,-0.02951725421,-0.029803414
4.56,-0.03054045202,-0.02870011473
4.57,-0.03152467131,-0.02756354955
4.58,-0.03246893533,-0.02639494759
4.59,-0.03337229581,-0.02519556051
4.6,-0.03423383305,-0.02396666261
4.61,-0.03505265615,-0.02270955105
4.62,-0.03582790328,-0.02142554604
4.63,-0.0365587421,-0.02011599102
4.64,-0.0372443702,-0.01878225294
4.65,-0.03788401572,-0.01742572243
4.66,-0.03847693798,-0.01604781404
4.67,-0.03902242824,-0.01464996639
4.68,-0.03951981056,-0.01323364236
4.69,-0.03996844273,-0.01180032921
4.7,-0.0403677173,-0.01035153862
4.71,-0.04071706272,-0.008888806747
4.72,-0.04101594447,-0.007413694154
4.73,-0.0412638664,-0.005927785714
4.74,-0.04146037203,-0.00443269041
4.75,-0.04160504597,-0.002930041059
4.76,-0.04169751541,-0.001421493942
4.77,-0.04173745164,9.12716672E-05
4.78,-0.04172457161,0.001606554072
4.79,-0.04165863957,0.00312262984
4.8,-0.04153946872,0.004637754602
4.81,-0.04136692286,0.006150163973
4.82,-0.04114091815,0.007658074599
4.83,-0.04086142473,0.009159685325
4.84,-0.04052846849,0.01065317851
4.85,-0.04014213272,0.01213672144
4.86,-0.03970255982,0.01360846793
4.87,-0.03920995293,0.01506656001
4.88,-0.0386645775,0.01650912979
4.89,-0.03806676291,0.0179343014
4.9,-0.03741690393,0.01934019316
4.91,-0.03671546217,0.02072491977
4.92,-0.03596296742,0.02208659473
4.93,-0.03516001889,0.02342333285
4.94,-0.03430728644,0.02473325284
4.95,-0.0334055116,0.02601448011
4.96,-0.0324555085,0.02726514959
4.97,-0.03145816472,0.02848340876
4.98,-0.03041444197,0.02966742068
4.99,-0.02932537662,0.03081536721
5,-0.02819208009,0.03192545224
5.01,-0.02701573911,0.03299590507
5.02,-0.02579761578,0.03402498381
5.03,-0.02453904746,0.03501097888
5.04,-0.02324144649,0.03595221654
5.05,-0.02190629978,0.03684706249
5.06,-0.02053516808,0.03769392548
5.07,-0.01912968523,0.03849126096
5.08,-0.01769155705,0.03923757475
5.09,-0.01622256016,0.03993142669
5.1,-0.01472454054,0.0405714343
5.11,-0.01319941185,0.04115627641
5.12,-0.01164915366,0.04168469677
5.13,-0.01007580935,0.04215550759
5.14,-0.008481483895,0.04256759305
5.15,-0.006868341402,0.04291991274
5.16,-0.005238602468,0.04321150501
5.17,-0.003594541333,0.04344149021
5.18,-0.001938482834,0.04360907386
5.19,-0.0002727991787,0.04371354971
5.2,0.001400093473,0.04375430258
5.21,0.003077738608,0.04373081125
5.22,0.004757643128,0.04364265096
5.23,0.006437281291,0.04348949595
5.24,0.008114098806,0.04327112172
5.25,0.009785517084,0.04298740716
5.26,0.01144893763,0.04263833644
5.27,0.01310174657,0.04222400075
5.28,0.01474131929,0.04174459981
5.29,0.01636502521,0.04120044313
5.3,0.01797023266,0.04059195113
5.31,0.01955431378,0.03991965595
5.32,0.02111464963,0.03918420202
5.33,0.02264863521,0.0383863465
5.34,0.0241536847,0.03752695927
5.35,0.02562723658,0.03660702291
5.36,0.02706675887,0.0356276322
5.37,0.0284697544,0.03458999351
5.38,0.02983376601,0.03349542387
5.39,0.03115638179,0.03234534977
5.4,0.03243524026,0.03114130576
5.41,0.03366803555,0.02988493268
5.42,0.03485252247,0.02857797572
5.43,0.03598652157,0.02722228219
5.44,0.03706792404,0.02581979904
5.45,0.03809469663,0.02437257008
5.46,0.03906488631,0.02288273304
5.47,0.03997662493,0.02135251628
5.48,0.04082813369,0.01978423535
5.49,0.04161772746,0.01818028927
5.5,0.04234381892,0.01654315658
5.51,0.0430049226,0.01487539122
5.52,0.04359965861,0.01317961811
5.53,0.0441267563,0.01145852863
5.54,0.04458505761,0.009714875882
5.55,0.04497352025,0.007951469683
5.56,0.04529122065,0.006171171524
5.57,0.04553735666,0.004376889282
5.58,0.04571124998,0.002571571811
5.59,0.04581234838,0.0007582034054
5.6,0.04584022761,-0.001060201867
5.61,0.04579459308,-0.002880605932
5.62,0.04567528126,-0.004699952576
5.63,0.04548226075,-0.006515173385
5.64,0.04521563311,-0.008323193755
5.65,0.04487563343,-0.01012093895
5.66,0.0444626305,-0.01190534019
5.67,0.04397712683,-0.01367334078
5.68,0.04341975823,-0.01542190222
5.69,0.04279129322,-0.01714801032
5.7,0.04209263205,-0.01884868127
5.71,0.04132480547,-0.02052096774
5.72,0.04048897323,-0.0221619648
5.73,0.03958642222,-0.02376881592
5.74,0.03861856437,-0.02533871875
5.75,0.03758693431,-0.0268689309
5.76,0.03649318663,-0.02835677555
5.77,0.03533909301,-0.02979964696
5.78,0.03412653898,-0.03119501583
5.79,0.03285752047,-0.03254043453
5.8,0.03153414011,-0.03383354212
5.81,0.03015860329,-0.03507206919
5.82,0.02873321392,-0.03625384259
5.83,0.02726037014,-0.03737678988
5.84,0.02574255957,-0.03843894354
5.85,0.02418235462,-0.03943844507
5.86,0.02258240739,-0.04037354876
5.87,0.02094544456,-0.04124262524
5.88,0.01927426199,-0.04204416478
5.89,0.01757171927,-0.04277678039
5.9,0.01584073405,-0.04343921051
5.91,0.01408427632,-0.04403032161
5.92,0.01230536247,-0.04454911035
5.93,0.01050704942,-0.04499470558
5.94,0.008692428485,-0.04536636996
5.95,0.006864619299,-0.04566350134
5.96,0.005026763642,-0.04588563386
5.97,0.003182019225,-0.0460324387
5.98,0.001333553461,-0.04610372457
5.99,-0.0005154627794,-0.04609943791
6,-0.002361861399,-0.04601966276
