"Freq [GHz]","re(S(Tx_p1,Tx_p1)) []","im(S(Tx_p1,Tx_p1)) []"
1,-0.00571137094,-0.05833690244
1.01,-0.007633978768,-0.05791957265
1.02,-0.009541349561,-0.05743623558
1.03,-0.0114306374,-0.05688737252
1.04,-0.01329903793,-0.05627361636
1.05,-0.01514379581,-0.05559574678
1.06,-0.01696221187,-0.05485468518
1.07,-0.01875164985,-0.05405148937
1.08,-0.02050954275,-0.05318734797
1.09,-0.02223339881,-0.05226357468
1.1,-0.02392080711,-0.05128160232
1.11,-0.02556944275,-0.05024297667
1.12,-0.02717707162,-0.04914935017
1.13,-0.02874155477,-0.04800247557
1.14,-0.03026085244,-0.04680419931
1.15,-0.03173302755,-0.04555645495
1.16,-0.03315624893,-0.04426125644
1.17,-0.03452879405,-0.04292069143
1.18,-0.03584905138,-0.04153691441
1.19,-0.03711552234,-0.04011214001
1.2,-0.03832682288,-0.03864863617
1.21,-0.03948168468,-0.03714871741
1.22,-0.04057895592,-0.03561473816
1.23,-0.04161760172,-0.03404908614
1.24,-0.0425967042,-0.03245417578
1.25,-0.0435154622,-0.03083244186
1.26,-0.04437319067,-0.02918633315
1.27,-0.04516931963,-0.02751830629
1.28,-0.04590339299,-0.02583081977
1.29,-0.04657506687,-0.02412632807
1.3,-0.04718410776,-0.02240727607
1.31,-0.04773039038,-0.02067609356
1.32,-0.04821389519,-0.01893519001
1.33,-0.04863470578,-0.01718694957
1.34,-0.04899300592,-0.01543372629
1.35,-0.04928907649,-0.01367783957
1.36,-0.04952329209,-0.01192156992
1.37,-0.04969611762,-0.01016715489
1.38,-0.04980810457,-0.00841678536
1.39,-0.04985988724,-0.006672602047
1.4,-0.04985217876,-0.004936692292
1.41,-0.04978576712,-0.003211087152
1.42,-0.04966151095,-0.001497758757
1.43,-0.0494803354,0.0002013820465
1.44,-0.04924322778,0.001884487763
1.45,-0.04895123336,0.003549776036
1.46,-0.04860545095,0.005195531158
1.47,-0.04820702864,0.00682010529
1.48,-0.04775715949,0.00842191942
1.49,-0.04725707718,0.009999464045
1.5,-0.04670805185,0.01155129959
1.51,-0.04611138591,0.01307605656
1.52,-0.04546840989,0.01457243547
1.53,-0.04478047851,0.01603920651
1.54,-0.04404896673,0.01747520897
1.55,-0.04327526597,0.01887935047
1.56,-0.04246078047,0.02025060597
1.57,-0.04160692376,0.02158801656
1.58,-0.04071511532,0.02289068808
1.59,-0.03978677737,0.02415778958
1.6,-0.03882333182,0.02538855156
1.61,-0.03782619746,0.02658226413
1.62,-0.03679678726,0.027738275
1.63,-0.03573650592,0.02885598732
1.64,-0.0346467476,0.02993485747
1.65,-0.03352889381,0.03097439272
1.66,-0.03238431159,0.03197414884
1.67,-0.03121435183,0.03293372757
1.68,-0.03002034782,0.03385277416
1.69,-0.02880361399,0.03473097477
1.7,-0.02756544493,0.03556805394
1.71,-0.02630711451,0.03636377194
1.72,-0.02502987532,0.03711792226
1.73,-0.02373495821,0.03783032903
1.74,-0.0224235721,0.03850084451
1.75,-0.02109690394,0.03912934663
1.76,-0.0197561189,0.0397157366
1.77,-0.01840236071,0.04025993658
1.78,-0.01703675218,0.04076188743
1.79,-0.01566039589,0.04122154659
1.8,-0.01427437503,0.04163888608
1.81,-0.01287975442,0.04201389054
1.82,-0.0114775816,0.04234655549
1.83,-0.01006888814,0.04263688569
1.84,-0.008654691004,0.04288489363
1.85,-0.007235994001,0.04309059822
1.86,-0.005813789401,0.04325402362
1.87,-0.004389059571,0.04337519819
1.88,-0.002962778711,0.04345415369
1.89,-0.001535914626,0.0434909246
1.9,-0.0001094305568,0.04348554765
1.91,0.001315712976,0.04343806152
1.92,0.002738556298,0.04334850669
1.93,0.004158138717,0.04321692553
1.94,0.005573496661,0.04304336252
1.95,0.006983661847,0.04282786472
1.96,0.008387659486,0.04257048231
1.97,0.009784506538,0.04227126944
1.98,0.01117321003,0.04193028511
1.99,0.01255276546,0.04154759435
2,0.01392215527,0.04112326946
2.01,0.01528034743,0.04065739147
2.02,0.01662629417,0.04015005171
2.03,0.01795893073,0.03960135356
2.04,0.01927717438,0.03901141426
2.05,0.0205799235,0.03838036695
2.06,0.0218660568,0.0377083627
2.07,0.02313443276,0.03699557278
2.08,0.0243838892,0.03624219087
2.09,0.02561324303,0.03544843547
2.1,0.0268212902,0.03461455236
2.11,0.02800680581,0.03374081702
2.12,0.02916854443,0.03282753723
2.13,0.03030524066,0.0318750556
2.14,0.03141560977,0.03088375216
2.15,0.03249834869,0.02985404695
2.16,0.0335521371,0.02878640256
2.17,0.03457563876,0.02768132672
2.18,0.03556750308,0.02653937478
2.19,0.03652636682,0.02536115217
2.2,0.03745085603,0.02414731679
2.21,0.03833958823,0.02289858131
2.22,0.03919117472,0.02161571537
2.23,0.04000422309,0.02029954774
2.24,0.04077733998,0.01895096821
2.25,0.0415091339,0.01757092951
2.26,0.04219821838,0.01616044898
2.27,0.0428432151,0.01472061013
2.28,0.04344275734,0.01325256398
2.29,0.04399549347,0.01175753026
2.3,0.04450009065,0.01023679842
2.31,0.04495523854,0.008691728391
2.32,0.04535965327,0.007123751195
2.33,0.0457120814,0.00553436928
2.34,0.04601130401,0.003925156657
2.35,0.04625614086,0.002297758788
2.36,0.0464454546,0.0006538922363
2.37,0.04657815507,-0.001004655937
2.38,0.04665320352,-0.002676029024
2.39,0.04666961701,-0.004358301789
2.4,0.04662647265,-0.006049481834
2.41,0.04652291196,-0.007747511245
2.42,0.04635814507,-0.009450268483
2.43,0.04613145501,-0.01115557056
2.44,0.04584220182,-0.01286117546
2.45,0.04548982665,-0.01456478485
2.46,0.04507385575,-0.01626404701
2.47,0.04459390433,-0.01795656006
2.48,0.04404968033,-0.01963987542
2.49,0.04344098803,-0.02131150152
2.5,0.04276773146,-0.02296890776
2.51,0.04202991774,-0.02460952867
2.52,0.04122766014,-0.02623076835
2.53,0.04036118099,-0.02783000511
2.54,0.03943081431,-0.02940459625
2.55,0.03843700835,-0.03095188316
2.56,0.0373803277,-0.03246919648
2.57,0.03626145533,-0.03395386154
2.58,0.03508119422,-0.03540320389
2.59,0.03384046882,-0.03681455497
2.6,0.03254032616,-0.03818525799
2.61,0.03118193671,-0.03951267386
2.62,0.02976659486,-0.0407941872
2.63,0.02829571923,-0.04202721253
2.64,0.02677085251,-0.04320920044
2.65,0.02519366105,-0.04433764387
2.66,0.02356593416,-0.04541008435
2.67,0.02188958298,-0.04642411837
2.68,0.0201666391,-0.04737740365
2.69,0.01839925283,-0.04826766541
2.7,0.01658969105,-0.04909270266
2.71,0.01474033486,-0.04985039438
2.72,0.01285367678,-0.0505387056
2.73,0.01093231764,-0.05115569348
2.74,0.008978963201,-0.05169951319
2.75,0.006996420371,-0.05216842367
2.76,0.004987593132,-0.05256079333
2.77,0.002955478151,-0.05287510545
2.78,0.0009031600863,-0.05310996348
2.79,-0.001166193421,-0.05326409616
2.8,-0.003249337034,-0.05333636231
2.81,-0.005342953288,-0.05332575551
2.82,-0.00744365844,-0.05323140847
2.83,-0.009548008561,-0.05305259709
2.84,-0.01165250588,-0.05278874436
2.85,-0.01375360537,-0.05243942383
2.86,-0.01584772152,-0.05200436285
2.87,-0.01793123534,-0.05148344548
2.88,-0.02000050154,-0.05087671502
2.89,-0.02205185587,-0.05018437629
2.9,-0.02408162261,-0.04940679741
2.91,-0.02608612223,-0.04854451137
2.92,-0.02806167908,-0.04759821714
2.93,-0.0300046293,-0.04656878038
2.94,-0.03191132866,-0.04545723384
2.95,-0.03377816059,-0.04426477728
2.96,-0.03560154416,-0.0429927771
2.97,-0.03737794211,-0.04164276546
2.98,-0.03910386885,-0.04021643905
2.99,-0.04077589849,-0.0387156575
3,-0.04239067275,-0.03714244128
3.01,-0.04394490884,-0.03549896928
3.02,-0.04543540725,-0.03378757599
3.03,-0.04685905947,-0.03201074825
3.04,-0.04821285544,-0.03017112161
3.05,-0.04949389105,-0.02827147633
3.06,-0.0506993753,-0.02631473297
3.07,-0.05182663735,-0.02430394764
3.08,-0.05287313336,-0.02224230687
3.09,-0.05383645304,-0.02013312211
3.1,-0.05471432606,-0.01797982391
3.11,-0.05550462805,-0.01578595581
3.12,-0.05620538646,-0.0135551678
3.13,-0.05681478601,-0.0112912096
3.14,-0.05733117389,-0.008997923547
3.15,-0.05775306459,-0.00667923732
3.16,-0.05807914441,-0.004339156296
3.17,-0.05830827556,-0.001981755738
3.18,-0.05843949999,0.0003888272607
3.19,-0.05847204271,0.002768402036
3.2,-0.05840531477,0.005152732794
3.21,-0.05823891588,0.007537547215
3.22,-0.05797263654,0.009918545205
3.23,-0.05760645979,0.01229140777
3.24,-0.05714056247,0.01465180597
3.25,-0.05657531619,0.01699541001
3.26,-0.05591128767,0.01931789832
3.27,-0.05514923878,0.02161496671
3.28,-0.05429012604,0.02388233755
3.29,-0.05333509979,0.02611576889
3.3,-0.05228550277,0.0283110636
3.31,-0.05114286837,0.03046407847
3.32,-0.04990891834,0.03257073312
3.33,-0.0485855602,0.03462701898
3.34,-0.04717488403,0.03662900801
3.35,-0.04567915901,0.03857286135
3.36,-0.04410082941,0.04045483777
3.37,-0.04244251023,0.04227130197
3.38,-0.04070698242,0.04401873265
3.39,-0.03889718771,0.04569373033
3.4,-0.03701622304,0.04729302501
3.41,-0.03506733463,0.04881348343
3.42,-0.03305391173,0.05025211618
3.43,-0.03097947993,0.05160608444
3.44,-0.02884769426,0.05287270638
3.45,-0.02666233189,0.0540494633
3.46,-0.02442728459,0.05513400534
3.47,-0.02214655084,0.05612415687
3.48,-0.01982422779,0.0570179215
3.49,-0.0174645029,0.05781348668
3.5,-0.01507164535,0.05850922792
3.51,-0.0126499973,0.05910371254
3.52,-0.01020396497,0.05959570309
3.53,-0.007738009506,0.05998416026
3.54,-0.005256637769,0.06026824536
3.55,-0.002764392971,0.0604473224
3.56,-0.000265845242,0.06052095967
3.57,0.002234417884,0.06048893089
3.58,0.004731801028,0.06035121587
3.59,0.007221710549,0.06010800077
3.6,0.009699564123,0.05975967783
3.61,0.01216080031,0.0593068447
3.62,0.01460088808,0.05875030325
3.63,0.01701533623,0.05809105798
3.64,0.01939970279,0.05733031396
3.65,0.02174960424,0.05646947432
3.66,0.02406072463,0.05551013726
3.67,0.02632882457,0.05445409272
3.68,0.02854974996,0.05330331856
3.69,0.03071944061,0.05205997631
3.7,0.03283393863,0.05072640657
3.71,0.0348893965,0.04930512398
3.72,0.03688208501,0.04779881183
3.73,0.03880840084,0.0462103163
3.74,0.04066487386,0.04454264031
3.75,0.04244817413,0.04279893713
3.76,0.04415511862,0.04098250352
3.77,0.04578267752,0.03909677273
3.78,0.04732798023,0.03714530709
3.79,0.04878832099,0.03513179038
3.8,0.05016116411,0.03306001997
3.81,0.05144414885,0.03093389868
3.82,0.05263509385,0.02875742646
3.83,0.0537320012,0.0265346919
3.84,0.05473306005,0.02426986352
3.85,0.05563664979,0.02196718093
3.86,0.05644134288,0.0196309459
3.87,0.05714590717,0.01726551329
3.88,0.05774930774,0.01487528188
3.89,0.05825070847,0.01246468517
3.9,0.05864947294,0.01003818214
3.91,0.05894516508,0.007600247976
3.92,0.05913754927,0.005155364789
3.93,0.05922659003,0.002708012406
3.94,0.05921245126,0.0002626591556
3.95,0.05909549509,-0.002176247246
3.96,0.05887628022,-0.004604288733
3.97,0.05855555992,-0.007017085809
3.98,0.05813427955,-0.009410306346
3.99,0.05761357373,-0.01177967422
4,0.05699476304,-0.0141209778
4.01,0.05627935044,-0.01643007819
4.02,0.05546901716,-0.01870291739
4.03,0.05456561838,-0.02093552603
4.04,0.05357117842,-0.02312403111
4.05,0.05248788574,-0.02526466326
4.06,0.05131808744,-0.02735376385
4.07,0.05006428359,-0.02938779181
4.08,0.0487291212,-0.03136333009
4.09,0.04731538794,-0.03327709182
4.1,0.04582600554,-0.03512592624
4.11,0.04426402304,-0.03690682411
4.12,0.0426326097,-0.03861692296
4.13,0.04093504782,-0.04025351184
4.14,0.03917472526,-0.04181403579
4.15,0.03735512787,-0.04329609991
4.16,0.0354798317,-0.04469747303
4.17,0.03355249516,-0.04601609102
4.18,0.03157685097,-0.04725005971
4.19,0.02955669808,-0.0483976574
4.2,0.02749589352,-0.04945733701
4.21,0.02539834415,-0.05042772777
4.22,0.02326799839,-0.05130763658
4.23,0.021108838,-0.05209604895
4.24,0.01892486972,-0.05279212952
4.25,0.01672011712,-0.05339522221
4.26,0.01449861231,-0.05390485003
4.27,0.01226438785,-0.05432071436
4.28,0.01002146866,-0.05464269406
4.29,0.007773864055,-0.05487084401
4.3,0.005525559902,-0.05500539341
4.31,0.003280510882,-0.05504674368
4.32,0.001042632927,-0.054995466
4.33,-0.001184204189,-0.05485229856
4.34,-0.003396184083,-0.0546181434
4.35,-0.005589550796,-0.05429406302
4.36,-0.00776061562,-0.05388127663
4.37,-0.009905763699,-0.05338115613
4.38,-0.0120214604,-0.05279522179
4.39,-0.01410425745,-0.05212513768
4.4,-0.01615079877,-0.05137270683
4.41,-0.0181578261,-0.05053986618
4.42,-0.02012218431,-0.04962868129
4.43,-0.02204082642,-0.04864134081
4.44,-0.02391081838,-0.04758015084
4.45,-0.02572934343,-0.04644752901
4.46,-0.02749370632,-0.04524599847
4.47,-0.02920133705,-0.04397818171
4.48,-0.03084979443,-0.04264679427
4.49,-0.03243676919,-0.0412546383
4.5,-0.03396008691,-0.03980459609
4.51,-0.03541771047,-0.03829962342
4.52,-0.03680774231,-0.03674274295
4.53,-0.03812842628,-0.03513703754
4.54,-0.03937814918,-0.03348564347
4.55,-0.04055544199,-0.03179174373
4.56,-0.04165898076,-0.03005856127
4.57,-0.04268758721,-0.02828935232
4.58,-0.04364022897,-0.02648739963
4.59,-0.04451601955,-0.02465600591
4.6,-0.04531421795,-0.0227984872
4.61,-0.04603422806,-0.0209181664
4.62,-0.04667559767,-0.01901836687
4.63,-0.04723801724,-0.01710240611
4.64,-0.04772131841,-0.01517358959
4.65,-0.0481254722,-0.01323520468
4.66,-0.04845058697,-0.01129051479
4.67,-0.04869690611,-0.009342753558
4.68,-0.04886480555,-0.007395119269
4.69,-0.04895479093,-0.005450769457
4.7,-0.04896749468,-0.003512815654
4.71,-0.04890367278,-0.001584318343
4.72,-0.04876420138,0.0003317178797
4.73,-0.04855007324,0.002232348944
4.74,-0.04826239396,0.004114695732
4.75,-0.04790237808,0.005975948274
4.76,-0.04747134502,0.007813369736
4.77,-0.04697071489,0.009624300157
4.78,-0.04640200418,0.01140615997
4.79,-0.04576682132,0.01315645328
4.8,-0.04506686216,0.01487277088
4.81,-0.0443039054,0.01655279309
4.82,-0.04347980784,0.01819429227
4.83,-0.04259649973,0.01979513515
4.84,-0.04165597992,0.02135328488
4.85,-0.04066031107,0.02286680288
4.86,-0.03961161483,0.0243338504
4.87,-0.03851206697,0.02575268989
4.88,-0.03736389255,0.0271216861
4.89,-0.03616936107,0.02843930693
4.9,-0.03493078171,0.02970412414
4.91,-0.0336504985,0.03091481373
4.92,-0.03233088566,0.03207015615
4.93,-0.03097434289,0.03316903631
4.94,-0.0295832908,0.03421044334
4.95,-0.02816016635,0.0351934702
4.96,-0.02670741846,0.03611731305
4.97,-0.02522750362,0.03698127044
4.98,-0.02372288167,0.03778474234
4.99,-0.02219601162,0.03852722899
5,-0.0206493477,0.03920832956
5.01,-0.01908533538,0.0398277407
5.02,-0.01750640763,0.04038525488
5.03,-0.01591498126,0.04088075864
5.04,-0.01431345342,0.04131423071
5.05,-0.01270419826,0.04168573995
5.06,-0.01108956362,0.04199544327
5.07,-0.009471868061,0.04224358333
5.08,-0.007853397853,0.04243048626
5.09,-0.006236404247,0.04255655923
5.1,-0.004623100841,0.04262228793
5.11,-0.003015661114,0.04262823406
5.12,-0.001416216112,0.04257503263
5.13,0.0001731477,0.04246338939
5.14,0.001750390447,0.04229407802
5.15,0.003313520687,0.04206793744
5.16,0.004860597109,0.04178586905
5.17,0.006389730076,0.04144883391
5.18,0.007899083024,0.04105784995
5.19,0.009386873711,0.0406139892
5.2,0.01085137533,0.04011837499
5.21,0.01229091747,0.03957217917
5.22,0.01370388697,0.03897661936
5.23,0.0150887286,0.03833295621
5.24,0.01644394566,0.03764249075
5.25,0.01776810041,0.03690656168
5.26,0.01905981442,0.03612654278
5.27,0.02031776884,0.03530384037
5.28,0.02154070441,0.03443989077
5.29,0.02272742161,0.03353615784
5.3,0.02387678048,0.03259413064
5.31,0.02498770051,0.03161532106
5.32,0.02605916036,0.03060126158
5.33,0.02709019754,0.02955350307
5.34,0.02807990801,0.02847361269
5.35,0.02902744573,0.02736317186
5.36,0.02993202208,0.02622377426
5.37,0.03079290535,0.02505702397
5.38,0.03160942004,0.02386453367
5.39,0.03238094623,0.02264792284
5.4,0.03310691886,0.02140881622
5.41,0.03378682699,0.0201488421
5.42,0.03442021303,0.01886963093
5.43,0.03500667195,0.01757281381
5.44,0.03554585049,0.01626002118
5.45,0.03603744633,0.01493288151
5.46,0.03648120728,0.01359302011
5.47,0.03687693046,0.01224205796
5.48,0.03722446148,0.01088161062
5.49,0.03752369365,0.00951328725
5.5,0.03777456714,0.00813868958
5.51,0.03797706821,0.006759411054
5.52,0.03813122847,0.005377035942
5.53,0.03823712409,0.003993138537
5.54,0.03829487509,0.00260928239
5.55,0.03830464464,0.001227019575
5.56,0.03826663839,-0.0001521099971
5.57,0.03818110378,-0.00152657924
5.58,0.03804832949,-0.002894874525
5.59,0.03786864478,-0.004255496286
5.6,0.03764241898,-0.005606959611
5.61,0.03737006093,-0.006947794814
5.62,0.03705201852,-0.008276547996
5.63,0.03668877817,-0.009591781598
5.64,0.03628086444,-0.01089207496
5.65,0.03582883957,-0.01217602485
5.66,0.03533330315,-0.01344224604
5.67,0.03479489175,-0.01468937189
5.68,0.03421427854,-0.01591605484
5.69,0.03359217304,-0.01712096711
5.7,0.0329293208,-0.0183028012
5.71,0.03222650312,-0.01946027059
5.72,0.0314845368,-0.02059211036
5.73,0.03070427387,-0.02169707786
5.74,0.02988660138,-0.02277395342
5.75,0.02903244114,-0.0238215411
5.76,0.02814274947,-0.02483866938
5.77,0.02721851701,-0.02582419207
5.78,0.0262607684,-0.02677698903
5.79,0.0252705621,-0.02769596709
5.8,0.02424899006,-0.02858006093
5.81,0.02319717745,-0.02942823404
5.82,0.02211628237,-0.03023947964
5.83,0.0210074955,-0.03101282172
5.84,0.01987203971,-0.03174731606
5.85,0.01871116969,-0.0324420513
5.86,0.0175261715,-0.03309615006
5.87,0.01631836208,-0.03370877003
5.88,0.01508908874,-0.03427910518
5.89,0.01383972857,-0.03480638691
5.9,0.01257168783,-0.03528988527
5.91,0.01128640123,-0.03572891016
5.92,0.009985331221,-0.03612281265
5.93,0.008669967172,-0.03647098617
5.94,0.007341824497,-0.0367728678
5.95,0.006002443718,-0.03702793956
5.96,0.004653389451,-0.03723572971
5.97,0.003296249322,-0.03739581398
5.98,0.001932632812,-0.0375078169
5.99,0.0005641700171,-0.03757141301
6,-0.0008074896613,-0.03758632819
