"Freq [GHz]","re(S(Tx_p1,Tx_p1)) []","im(S(Tx_p1,Tx_p1)) []"
1,-0.05395399207,-0.2040476002
1.01,-0.06174564966,-0.2020129025
1.02,-0.06949052969,-0.1996631806
1.03,-0.07717407033,-0.1969984019
1.04,-0.08478168418,-0.1940192765
1.05,-0.09229879422,-0.1907272542
1.06,-0.09971086945,-0.1871245211
1.07,-0.1070034602,-0.1832139932
1.08,-0.1141622332,-0.1789993103
1.09,-0.1211730055,-0.1744848269
1.1,-0.1280217792,-0.1696756031
1.11,-0.1346947741,-0.1645773926
1.12,-0.141178461,-0.1591966308
1.13,-0.1474595933,-0.1535404202
1.14,-0.1535252386,-0.1476165157
1.15,-0.1593628094,-0.1414333072
1.16,-0.164960092,-0.1349998025
1.17,-0.1703052765,-0.1283256075
1.18,-0.1753869833,-0.121420906
1.19,-0.180194291,-0.1142964382
1.2,-0.1847167614,-0.1069634781
1.21,-0.1889444648,-0.09943380958
1.22,-0.192868003,-0.09171970145
1.23,-0.1964785316,-0.083833882
1.24,-0.1997677818,-0.07578951204
1.25,-0.2027280793,-0.06760015733
1.26,-0.2053523633,-0.05927976019
1.27,-0.2076342039,-0.05084261022
1.28,-0.2095678172,-0.04230331447
1.29,-0.2111480804,-0.0336767668
1.3,-0.2123705443,-0.02497811682
1.31,-0.2132314451,-0.01622273815
1.32,-0.2137277142,-0.007426196328
1.33,-0.213856987,0.001395783681
1.34,-0.2136176097,0.01022735035
1.35,-0.2130086452,0.01905255866
1.36,-0.2120298766,0.0278554034
1.37,-0.21068181,0.03661985255
1.38,-0.2089656755,0.04532988074
1.39,-0.2068834264,0.05396950267
1.4,-0.204437737,0.06252280649
1.41,-0.2016319993,0.07097398697
1.42,-0.1984703175,0.07930737847
1.43,-0.1949575016,0.08750748763
1.44,-0.1910990589,0.0955590257
1.45,-0.1869011848,0.1034469404
1.46,-0.1823707513,0.1111564475
1.47,-0.1775152949,0.1186730614
1.48,-0.1723430024,0.1259826255
1.49,-0.1668626959,0.133071342
1.5,-0.1610838161,0.1399258003
1.51,-0.1550164044,0.1465330053
1.52,-0.1486710838,0.1528804046
1.53,-0.1420590385,0.1589559147
1.54,-0.1351919928,0.1647479462
1.55,-0.1280821875,0.1702454282
1.56,-0.1207423574,0.1754378315
1.57,-0.1131857056,0.1803151907
1.58,-0.1054258781,0.1848681253
1.59,-0.09747693729,0.1890878592
1.6,-0.08935333418,0.1929662394
1.61,-0.08106988027,0.1964957532
1.62,-0.07264171836,0.1996695441
1.63,-0.06408429283,0.2024814264
1.64,-0.05541331924,0.2049258987
1.65,-0.04664475337,0.2069981552
1.66,-0.03779475978,0.2086940964
1.67,-0.0288796799,0.2100103383
1.68,-0.01991599977,0.2109442194
1.69,-0.01092031751,0.2114938072
1.7,-0.001909310514,0.2116579024
1.71,0.007100297543,0.2114360424
1.72,0.01609176972,0.2108285022
1.73,0.02504838893,0.2098362953
1.74,0.03395349097,0.2084611714
1.75,0.0427904975,0.2067056144
1.76,0.05154294877,0.2045728371
1.77,0.06019453623,0.202066776
1.78,0.06872913468,0.1991920836
1.79,0.0771308342,0.1959541197
1.8,0.08538397151,0.1923589412
1.81,0.09347316094,0.1884132905
1.82,0.1013833248,0.1841245824
1.83,0.109099723,0.1795008899
1.84,0.1166079822,0.1745509285
1.85,0.1238941243,0.169284039
1.86,0.1309445935,0.1637101696
1.87,0.1377462834,0.1578398564
1.88,0.1442865623,0.1516842027
1.89,0.1505532984,0.1452548571
1.9,0.1565348834,0.1385639913
1.91,0.1622202551,0.1316242756
1.92,0.1675989194,0.1244488543
1.93,0.17266097,0.11705132
1.94,0.1773971086,0.1094456869
1.95,0.1817986624,0.1016463632
1.96,0.1858576009,0.09366812295
1.97,0.1895665516,0.08552607704
1.98,0.1929188143,0.07723564358
1.99,0.1959083734,0.06881251768
2,0.19852991,0.06027264067
2.01,0.2007788117,0.05163216891
2.02,0.2026511809,0.04290744216
2.03,0.2041438429,0.03411495158
2.04,0.2052543507,0.02527130753
2.05,0.20598099,0.01639320709
2.06,0.2063227819,0.007497401439
2.07,0.2062794843,-0.001399336758
2.08,0.2058515916,-0.0102802461
2.09,0.2050403339,-0.01912860906
2.1,0.203847673,-0.02792778452
2.11,0.2022762991,-0.03666124009
2.12,0.2003296239,-0.04531258419
2.13,0.1980117743,-0.05386559786
2.14,0.1953275828,-0.06230426612
2.15,0.1922825782,-0.07061280895
2.16,0.1888829737,-0.07877571173
2.17,0.1851356543,-0.08677775516
2.18,0.1810481626,-0.09460404455
2.19,0.1766286838,-0.1022400384
2.2,0.1718860284,-0.1096715762
2.21,0.1668296151,-0.1168849057
2.22,0.1614694512,-0.1238667089
2.23,0.155816113,-0.1306041278
2.24,0.149880724,-0.1370847882
2.25,0.143674933,-0.1432968236
2.26,0.1372108907,-0.1492288975
2.27,0.1305012256,-0.1548702246
2.28,0.1235590184,-0.1602105911
2.29,0.1163977766,-0.1652403735
2.3,0.1090314071,-0.1699505569
2.31,0.1014741893,-0.174332751
2.32,0.0937407461,-0.1783792062
2.33,0.08584601572,-0.182082827
2.34,0.07780522189,-0.1854371851
2.35,0.06963384396,-0.1884365309
2.36,0.06134758653,-0.1910758033
2.37,0.05296234862,-0.1933506389
2.38,0.04449419257,-0.1952573786
2.39,0.03595931262,-0.1967930743
2.4,0.02737400334,-0.197955493
2.41,0.01875462788,-0.1987431199
2.42,0.01011758615,-0.1991551603
2.43,0.001479283035,-0.1991915398
2.44,-0.007143903443,-0.1988529032
2.45,-0.01573565373,-0.1981406118
2.46,-0.02427973828,-0.1970567396
2.47,-0.03276004874,-0.1956040681
2.48,-0.04116062896,-0.1937860794
2.49,-0.04946570556,-0.1916069483
2.5,-0.0576597181,-0.1890715326
2.51,-0.06572734878,-0.1861853629
2.52,-0.0736535516,-0.1829546301
2.53,-0.08142358091,-0.1793861723
2.54,-0.08902301934,-0.1754874605
2.55,-0.09643780503,-0.1712665825
2.56,-0.1036542581,-0.1667322262
2.57,-0.1106591061,-0.1618936617
2.58,-0.1174395094,-0.1567607219
2.59,-0.1239830843,-0.1513437824
2.6,-0.1302779266,-0.1456537405
2.61,-0.1363126334,-0.1397019928
2.62,-0.1420763238,-0.1335004122
2.63,-0.1475586592,-0.1270613237
2.64,-0.1527498619,-0.1203974801
2.65,-0.1576407324,-0.1135220359
2.66,-0.1622226666,-0.1064485213
2.67,-0.1664876702,-0.09919081521
2.68,-0.1704283736,-0.09176311742
2.69,-0.174038044,-0.08417992078
2.7,-0.1773105971,-0.07645598234
2.71,-0.1802406078,-0.06860629434
2.72,-0.1828233184,-0.0606460547
2.73,-0.1850546465,-0.0525906372
2.74,-0.1869311915,-0.04445556146
2.75,-0.1884502391,-0.03625646259
2.76,-0.1896097653,-0.02800906079
2.77,-0.190408438,-0.01972913085
2.78,-0.1908456186,-0.01143247155
2.79,-0.190921361,-0.003134875204
2.8,-0.1906364099,0.0051479028
2.81,-0.1899921977,0.01340017426
2.82,-0.1889908399,0.0216063482
2.83,-0.1876351294,0.0297509607
2.84,-0.1859285291,0.03781870432
2.85,-0.183875164,0.0457944572
2.86,-0.1814798111,0.05366331169
2.87,-0.1787478886,0.0614106025
2.88,-0.1756854439,0.0690219343
2.89,-0.1722991403,0.07648320871
2.9,-0.1685962421,0.08378065066
2.91,-0.1645845999,0.09090083399
2.92,-0.1602726329,0.09783070642
2.93,-0.1556693118,0.1045576136
2.94,-0.1507841401,0.1110693223
2.95,-0.1456271339,0.1173540429
2.96,-0.1402088014,0.1234004509
2.97,-0.1345401217,0.1291977071
2.98,-0.1286325218,0.1347354776
2.99,-0.1224978539,0.1400039516
3,-0.116148371,0.1449938593
3.01,-0.1095967026,0.1496964881
3.02,-0.1028558289,0.1541036974
3.03,-0.09593905541,0.1582079332
3.04,-0.0888599861,0.1620022404
3.05,-0.08163249647,0.1654802747
3.06,-0.07427070618,0.1686363128
3.07,-0.0667889512,0.1714652621
3.08,-0.05920175565,0.1739626677
3.09,-0.05152380338,0.1761247202
3.1,-0.04376990935,0.1779482602
3.11,-0.03595499075,0.1794307828
3.12,-0.02809403813,0.1805704406
3.13,-0.02020208642,0.1813660449
3.14,-0.01229418594,0.1818170665
3.15,-0.00438537352,0.1819236341
3.16,0.003509356311,0.1816865326
3.17,0.01137507992,0.1811071995
3.18,0.01919697297,0.1801877198
3.19,0.02696033852,0.1789308205
3.2,0.03465063477,0.177339863
3.21,0.0422535025,0.1754188349
3.22,0.04975479192,0.1731723407
3.23,0.0571405892,0.1706055902
3.24,0.06439724231,0.1677243878
3.25,0.07151138637,0.1645351184
3.26,0.07846996832,0.1610447342
3.27,0.08526027091,0.1572607392
3.28,0.09186993598,0.153191173
3.29,0.09828698695,0.148844594
3.3,0.1044998505,0.1442300614
3.31,0.1104973775,0.1393571159
3.32,0.1162688627,0.1342357602
3.33,0.1218040642,0.1288764383
3.34,0.1270932211,0.1232900142
3.35,0.1321270708,0.1174877495
3.36,0.1368968653,0.1114812811
3.37,0.1413943855,0.1052825971
3.38,0.1456119562,0.09890401337
3.39,0.149542458,0.0923581484
3.4,0.1531793397,0.08565789859
3.41,0.1565166285,0.07881641257
3.42,0.15954894,0.07184706525
3.43,0.162271486,0.06476343159
3.44,0.1646800819,0.05757925998
3.45,0.1667711525,0.05030844548
3.46,0.1685417371,0.04296500278
3.47,0.1699894928,0.03556303909
3.48,0.1711126968,0.02811672691
3.49,0.171910248,0.02064027684
3.5,0.1723816664,0.0131479103
3.51,0.1725270925,0.005653832433
3.52,0.1723472845,-0.001827794933
3.53,0.1718436149,-0.009282880093
3.54,0.1710180657,-0.01669742808
3.55,0.1698732227,-0.02405756696
3.56,0.1684122684,-0.03134957387
3.57,0.1666389736,-0.03855990057
3.58,0.1645576886,-0.04567519866
3.59,0.1621733329,-0.05268234426
3.6,0.1594913835,-0.05956846223
3.61,0.1565178628,-0.06632094976
3.62,0.1532593251,-0.07292749942
3.63,0.1497228424,-0.07937612148
3.64,0.1459159892,-0.08565516564
3.65,0.1418468261,-0.09175334194
3.66,0.1375238828,-0.09765974096
3.67,0.1329561405,-0.1033638532
3.68,0.1281530128,-0.1088555876
3.69,0.1231243267,-0.1141252893
3.7,0.1178803022,-0.1191637563
3.71,0.1124315318,-0.1239622554
3.72,0.1067889586,-0.1285125371
3.73,0.1009638545,-0.1328068495
3.74,0.09496779789,-0.1368379512
3.75,0.08881265009,-0.1405991232
3.76,0.08251053219,-0.1440841797
3.77,0.07607380102,-0.1472874783
3.78,0.06951502483,-0.150203928
3.79,0.06284695871,-0.1528289976
3.8,0.0560825198,-0.1551587218
3.81,0.04923476212,-0.1571897066
3.82,0.04231685143,-0.1589191341
3.83,0.03534203981,-0.1603447653
3.84,0.0283236403,-0.1614649424
3.85,0.02127500145,-0.1622785897
3.86,0.01420948191,-0.1627852137
3.87,0.007140425096,-0.1629849016
3.88,8.113404403E-05,-0.1628783194
3.89,-0.006955153657,-0.1624667079
3.9,-0.01395529065,-0.1617518789
3.91,-0.02090624432,-0.1607362091
3.92,-0.02779512104,-0.1594226341
3.93,-0.03460919004,-0.1578146399
3.94,-0.04133590679,-0.1559162553
3.95,-0.04796293612,-0.1537320413
3.96,-0.05447817465,-0.1512670813
3.97,-0.06086977284,-0.1485269689
3.98,-0.06712615638,-0.1455177959
3.99,-0.07323604706,-0.1422461385
4,-0.07918848292,-0.1387190435
4.01,-0.08497283772,-0.1349440129
4.02,-0.09057883981,-0.1309289883
4.03,-0.09599659008,-0.1266823339
4.04,-0.1012165793,-0.1222128193
4.05,-0.1062297045,-0.1175296018
4.06,-0.1110272847,-0.1126422069
4.07,-0.1156010755,-0.1075605096
4.08,-0.1199432833,-0.1022947142
4.09,-0.1240465778,-0.09685533366
4.1,-0.1279041045,-0.09125316899
4.11,-0.1315094953,-0.08549928751
4.12,-0.1348568793,-0.0796050011
4.13,-0.1379408913,-0.07358184395
4.14,-0.1407566804,-0.06744154998
4.15,-0.1432999168,-0.06119603001
4.16,-0.1455667983,-0.05485734864
4.17,-0.1475540553,-0.04843770099
4.18,-0.1492589549,-0.04194938924
4.19,-0.1506793037,-0.03540479907
4.2,-0.1518134503,-0.02881637607
4.21,-0.1526602862,-0.02219660211
4.22,-0.1532192454,-0.01555797172
4.23,-0.1534903039,-0.008912968563
4.24,-0.1534739772,-0.002274042054
4.25,-0.1531713177,0.004346415931
4.26,-0.1525839101,0.01093609409
4.27,-0.1517138668,0.01748278449
4.28,-0.1505638216,0.02397440512
4.29,-0.1491369231,0.03039902201
4.3,-0.1474368261,0.03674487112
4.31,-0.1454676837,0.04300037972
4.32,-0.1432341367,0.04915418735
4.33,-0.1407413034,0.05519516629
4.34,-0.1379947683,0.06111244152
4.35,-0.1350005693,0.06689541016
4.36,-0.1317651852,0.0725337602
4.37,-0.1282955212,0.07801748874
4.38,-0.124598895,0.08333691952
4.39,-0.1206830208,0.08848271972
4.4,-0.1165559937,0.09344591612
4.41,-0.1122262728,0.09821791051
4.42,-0.1077026644,0.1027904943
4.43,-0.1029943034,0.1071558622
4.44,-0.09811063554,0.1113066255
4.45,-0.09306139825,0.1152358242
4.46,-0.0878566013,0.118936938
4.47,-0.08250650699,0.1224038972
4.48,-0.07702161002,0.1256310921
4.49,-0.0714126169,0.1286133816
4.5,-0.0656904251,0.1313461009
4.51,-0.05986610197,0.1338250686
4.52,-0.05395086334,0.1360465922
4.53,-0.04795605201,0.1380074737
4.54,-0.04189311603,0.1397050127
4.55,-0.03577358695,0.1411370103
4.56,-0.0296090579,0.1423017708
4.57,-0.02341116176,0.1431981028
4.58,-0.01719154928,0.1438253197
4.59,-0.01096186722,0.1441832387
4.6,-0.00473373672,0.1442721794
4.61,0.001481268349,0.1440929609
4.62,0.007671642726,0.1436468985
4.63,0.01382597096,0.1429357993
4.64,0.01993294834,0.1419619566
4.65,0.02598140149,0.140728144
4.66,0.03196030869,0.1392376079
4.67,0.0378588198,0.1374940602
4.68,0.04366627576,0.1355016688
4.69,0.04937222772,0.1332650485
4.7,0.05496645561,0.1307892505
4.71,0.06043898625,0.1280797512
4.72,0.06578011097,0.1251424402
4.73,0.07098040254,0.1219836081
4.74,0.07603073165,0.1186099325
4.75,0.08092228266,0.1150284648
4.76,0.08564656874,0.1112466148
4.77,0.09019544631,0.1072721362
4.78,0.09456112884,0.1031131104
4.79,0.09873619987,0.0987779301
4.8,0.1027136253,0.09427528276
4.81,0.1064867648,0.08961413304
4.82,0.110049383,0.08480370507
4.83,0.1133956587,0.07985346434
4.84,0.1165201948,0.07477309908
4.85,0.1194180259,0.0695725014
4.86,0.1220846264,0.0642617481
4.87,0.1245159167,0.05885108125
4.88,0.1267082691,0.05335088847
4.89,0.1286585129,0.0477716831
4.9,0.1303639379,0.04212408419
4.91,0.1318222983,0.03641879638
4.92,0.1330318143,0.0306665897
4.93,0.133991174,0.02487827932
4.94,0.1346995337,0.01906470536
4.95,0.1351565176,0.01323671267
4.96,0.1353622167,0.007405130739
4.97,0.1353171866,0.00158075367
4.98,0.1350224448,-0.004225679649
4.99,0.1344794666,-0.01000350522
5,0.1336901808,-0.01574215336
5.01,0.1326569645,-0.02143116792
5.02,0.1313826361,-0.02706022513
5.03,0.1298704491,-0.0326191522
5.04,0.128124084,-0.03809794553
5.05,0.1261476398,-0.04348678852
5.06,0.1239456244,-0.04877606894
5.07,0.1215229453,-0.05395639592
5.08,0.1188848983,-0.05901861642
5.09,0.1160371564,-0.06395383112
5.1,0.1129857575,-0.0687534099
5.11,0.1097370923,-0.07340900668
5.12,0.1062978906,-0.07791257364
5.13,0.1026752077,-0.08225637497
5.14,0.09887640973,-0.08643299978
5.15,0.09490915937,-0.09043537454
5.16,0.09078139999,-0.09425677475
5.17,0.08650134006,-0.09789083591
5.18,0.08207743687,-0.1013315638
5.19,0.07751837992,-0.1045733442
5.2,0.07283307399,-0.1076109513
5.21,0.06803062175,-0.1104395563
5.22,0.06312030625,-0.1130547341
5.23,0.05811157302,-0.1154524705
5.24,0.05301401201,-0.1176291673
5.25,0.04783733935,-0.1195816476
5.26,0.04259137887,-0.1213071598
5.27,0.03728604361,-0.122803381
5.28,0.03193131718,-0.1240684196
5.29,0.02653723508,-0.1251008168
5.3,0.02111386601,-0.1258995478
5.31,0.01567129318,-0.1264640216
5.32,0.01021959572,-0.1267940808
5.33,0.004768830101,-0.1268899997
5.34,-0.0006709882505,-0.126752482
5.35,-0.006089903223,-0.1263826581
5.36,-0.0114780361,-0.1257820811
5.37,-0.01682560341,-0.1249527223
5.38,-0.02212293453,-0.1238969656
5.39,-0.02736048902,-0.1226176017
5.4,-0.03252887363,-0.1211178214
5.41,-0.03761885896,-0.1194012077
5.42,-0.04262139574,-0.1174717281
5.43,-0.04752763077,-0.1153337253
5.44,-0.05232892234,-0.1129919081
5.45,-0.05701685527,-0.1104513409
5.46,-0.06158325543,-0.1077174331
5.47,-0.06602020376,-0.1047959278
5.48,-0.0703200498,-0.1016928899
5.49,-0.07447542461,-0.09841469361
5.5,-0.07847925315,-0.09496800939
5.51,-0.08232476608,-0.09135979066
5.52,-0.08600551091,-0.08759725983
5.53,-0.08951536257,-0.08368789394
5.54,-0.09284853328,-0.07963940992
5.55,-0.09599958184,-0.07545974945
5.56,-0.09896342212,-0.07115706349
5.57,-0.101735331,-0.06673969648
5.58,-0.1043109555,-0.06221617025
5.59,-0.1066863192,-0.05759516769
5.6,-0.1088578282,-0.05288551617
5.61,-0.110822276,-0.04809617079
5.62,-0.1125768476,-0.04323619744
5.63,-0.1141191233,-0.03831475578
5.64,-0.1154470817,-0.03334108204
5.65,-0.1165591013,-0.02832447181
5.66,-0.1174539621,-0.0232742628
5.67,-0.1181308462,-0.01819981757
5.68,-0.1185893377,-0.0131105063
5.69,-0.1188294217,-0.008015689586
5.7,-0.1188514828,-0.0029247014
5.71,-0.1186563024,0.002153167901
5.72,-0.1182450563,0.00720868838
5.73,-0.1176193106,0.01223270715
5.74,-0.1167810169,0.01721616477
5.75,-0.1157325078,0.02215011147
5.76,-0.1144764907,0.02702572302
5.77,-0.1130160414,0.03183431633
5.78,-0.1113545969,0.03656736478
5.79,-0.1094959479,0.04121651313
5.8,-0.1074442301,0.04577359207
5.81,-0.1052039154,0.05023063238
5.82,-0.1027798025,0.0545798787
5.83,-0.1001770065,0.05881380276
5.84,-0.09740094868,0.06292511621
5.85,-0.09445734488,0.06690678297
5.86,-0.09135219422,0.07075203099
5.87,-0.0880917669,0.07445436354
5.88,-0.08468259164,0.07800756997
5.89,-0.08113144271,0.0814057358
5.9,-0.07744532662,0.08464325237
5.91,-0.07363146839,0.08771482575
5.92,-0.06969729744,0.09061548513
5.93,-0.0656504333,0.09334059059
5.94,-0.06149867087,0.09588584014
5.95,-0.05724996557,0.09824727623
5.96,-0.05291241817,0.1004212915
5.97,-0.04849425942,0.1024046341
5.98,-0.04400383459,0.1041944117
5.99,-0.03944958776,0.1057880959
6,-0.03484004606,0.1071835249
