"Freq [GHz]","re(S(Rx_p1,Tx_p1)) []","im(S(Rx_p1,Tx_p1)) []"
1,0.03457063884,-0.01494549098
1.01,0.02555683539,-0.02732282104
1.02,0.01243663734,-0.0350079997
1.03,-0.002551636183,-0.03679205936
1.04,-0.01689218498,-0.03246844395
1.05,-0.02821759073,-0.02285138901
1.06,-0.0347023212,-0.009622166583
1.07,-0.03535788473,0.004967563758
1.08,-0.03018172951,0.0184823196
1.09,-0.02013787916,0.02871216881
1.1,-0.006976342002,0.03403548816
1.11,0.007074559058,0.03367527388
1.12,0.01968822021,0.02780868597
1.13,0.02882673898,0.01751531301
1.14,0.03307012051,0.004577135786
1.15,0.03183457084,-0.008832388276
1.16,0.02544688422,-0.02051534192
1.17,0.01506692191,-0.02861009783
1.18,0.00247562922,-0.03188651986
1.19,-0.01023233527,-0.02992916688
1.2,-0.0209979355,-0.02318209801
1.21,-0.02813064718,-0.01285251305
1.22,-0.03057128864,-0.0006936261502
1.23,-0.02804455592,0.01129392556
1.24,-0.0210804059,0.02119109868
1.25,-0.01090539257,0.02746586222
1.26,0.0007740707197,0.02920684903
1.27,0.01205808793,0.02625041176
1.28,0.02116123686,0.01918459607
1.29,0.02669247396,0.009233728188
1.3,0.02786370655,-0.001953944585
1.31,0.024596652,-0.01257871081
1.32,0.0175147245,-0.02097707575
1.33,0.0078251641,-0.02587911149
1.34,-0.002886479951,-0.02659635069
1.35,-0.01291461726,-0.02311331987
1.36,-0.0207028532,-0.01607168485
1.37,-0.02508221317,-0.006652921499
1.38,-0.02544260247,0.003619196635
1.39,-0.02181319264,0.01312345257
1.4,-0.01484213595,0.02039440614
1.41,-0.005681644446,0.02434499097
1.42,0.004201352359,0.02442536924
1.43,0.0132580993,0.0206955808
1.44,0.02009790664,0.01380320176
1.45,0.02369845893,0.004871792349
1.46,0.02355539051,-0.004680821437
1.47,0.01974989042,-0.01336533921
1.48,0.01292589925,-0.01985030591
1.49,0.004182182043,-0.02316322686
1.5,-0.005102830743,-0.02283370299
1.51,-0.01348586372,-0.01895805754
1.52,-0.0196802991,-0.01217700867
1.53,-0.02275093814,-0.003571040033
1.54,-0.02225308337,0.005509691694
1.55,-0.0182956793,0.01365454999
1.56,-0.01151979091,0.01960883159
1.57,-0.002996395387,0.02246475174
1.58,0.005940539514,0.02179839927
1.59,0.01390015383,0.01773229131
1.6,0.01964867919,0.01091435792
1.61,0.02229889949,0.002416718882
1.62,0.02144636296,-0.006430348339
1.63,0.01723157957,-0.01424407139
1.64,0.01031853088,-0.01980322445
1.65,0.001792437414,-0.02223785538
1.66,-0.00700797935,-0.02116546353
1.67,-0.01469837335,-0.0167523021
1.68,-0.02006500591,-0.009689728201
1.69,-0.02225588572,-0.001088477014
1.7,-0.02091680562,0.0076935352
1.71,-0.01625039226,0.01526372311
1.72,-0.008987964122,0.02041480479
1.73,-0.000277504677,0.02231767154
1.74,0.008495661053,0.02065627231
1.75,0.01592794215,0.01568226889
1.76,0.020821935,0.008179585442
1.77,0.02238038265,-0.0006567927922
1.78,0.02033799872,-0.009409554725
1.79,0.01500895234,-0.01666587125
1.8,0.007241071468,-0.02124609149
1.81,-0.001717154343,-0.02239716776
1.82,-0.01041632511,-0.01991874195
1.83,-0.01744087177,-0.01420030788
1.84,-0.02164071502,-0.006162138646
1.85,-0.0223216467,0.002891549834
1.86,-0.01936247434,0.01148404338
1.87,-0.01323866375,0.01820793274
1.88,-0.004947514892,0.02195747381
1.89,0.004153699129,0.02211274785
1.9,0.01257047328,0.01864445783
1.91,0.0189180114,0.01212116715
1.92,0.0221512307,0.003617012026
1.93,0.02173916393,-0.00546532275
1.94,0.01775416065,-0.01362714663
1.95,0.01086048412,-0.01952301124
1.96,0.002203838949,-0.02218479079
1.97,-0.006779838274,-0.02118278689
1.98,-0.0146042324,-0.01669659707
1.99,-0.01998072062,-0.009483740114
2,-0.02203279289,-0.0007513849502
2.01,-0.02044067682,0.008047003979
2.02,-0.01549193692,0.01545555781
2.03,-0.008029867816,0.02025908225
2.04,0.0006910882715,0.02168427482
2.05,0.009217909687,0.01952535984
2.06,0.01614316393,0.01417348498
2.07,0.02033930246,0.006545735186
2.08,0.02114365719,-0.002073294375
2.09,0.01846348656,-0.01024971639
2.1,0.01278433272,-0.01664088862
2.11,0.005081550476,-0.02021749676
2.12,-0.003348737202,-0.02043010809
2.13,-0.01110962763,-0.01729308048
2.14,-0.01693663002,-0.01137311936
2.15,-0.01990476776,-0.00368608408
2.16,-0.01957544437,0.004478973538
2.17,-0.0160597486,0.01177770932
2.18,-0.009989401707,0.01703312459
2.19,-0.002402219883,0.01942579742
2.2,0.005436912138,0.0186208733
2.21,0.01224833552,0.01481230688
2.22,0.01694724975,0.008679130242
2.23,0.01881618697,0.001263266979
2.24,0.01761297409,-0.006208877237
2.25,0.01359829308,-0.01253020222
2.26,0.007480671124,-0.01670801339
2.27,0.0002903440026,-0.01811888509
2.28,-0.006795316033,-0.01659935777
2.29,-0.01264500063,-0.01245980517
2.3,-0.01635350689,-0.006421717294
2.31,-0.01738010003,0.0005089871883
2.32,-0.0156244312,0.007210172155
2.33,-0.01143002874,0.01262495898
2.34,-0.005517313987,0.01592716669
2.35,0.001140794072,0.01664509828
2.36,0.007479064533,0.01472563809
2.37,0.01250954014,0.01053071887
2.38,0.01547371351,0.004769105321
2.39,0.01595426121,-0.001623620811
2.4,0.01393047343,-0.007636494704
2.41,0.009770800261,-0.01234162085
2.42,0.004165804135,-0.01503512806
2.43,-0.001986264529,-0.01533971739
2.44,-0.007722356908,-0.01325448608
2.45,-0.01216348897,-0.009146156845
2.46,-0.01464699311,-0.003684803234
2.47,-0.01482280927,0.002264695806
2.48,-0.01270040716,0.007778054846
2.49,-0.00864060349,0.0120129904
2.5,-0.003294777882,0.01433549644
2.51,0.002498386255,0.01441259459
2.52,0.007842549605,0.01225847165
2.53,0.01192014884,0.008227959185
2.54,0.01411535314,0.002959065182
2.55,0.01410552349,-0.002726351675
2.56,0.0119079252,-0.007948682209
2.57,0.007875062108,-0.01190456856
2.58,0.002639535842,-0.01398885927
2.59,-0.002983266459,-0.01388635752
2.6,-0.008120126261,-0.01161961605
2.61,-0.01197389989,-0.007545473089
2.62,-0.01394621705,-0.002300598371
2.63,-0.01373029287,0.00329604284
2.64,-0.01135945549,0.008369312974
2.65,-0.007203510772,0.01212357939
2.66,-0.001912911472,0.01396715806
2.67,0.003681273896,0.01360611342
2.68,0.008696609218,0.0110924005
2.69,0.01233793584,0.0068181713
2.7,0.01402373552,0.001456356036
2.71,0.01348004337,-0.004143884926
2.72,0.01078649609,-0.009090902765
2.73,0.006366441872,-0.01259258045
2.74,0.0009218639623,-0.01408397724
2.75,-0.004677207648,-0.01331982952
2.76,-0.009531561674,-0.01041645283
2.77,-0.01285779958,-0.005835554081
2.78,-0.01411592912,-0.0003118331886
2.79,-0.0130985032,0.005264492371
2.8,-0.009966261772,0.009991516226
2.81,-0.005223855521,0.0131024862
2.82,0.0003609329013,0.01409152189
2.83,0.005881639217,0.01279728866
2.84,0.01044101221,0.009430480684
2.85,0.01329803425,0.004540193796
2.86,0.01398970184,-0.001075577035
2.87,0.01240725431,-0.006500715418
2.88,0.008814045251,-0.0108514595
2.89,0.003801962655,-0.01342161908
2.9,-0.001806420628,-0.01379839148
2.91,-0.007093690077,-0.01192952448
2.92,-0.01119879045,-0.008130720377
2.93,-0.01345840808,-0.003032193221
2.94,-0.01351506738,0.002526523474
2.95,-0.01137413341,0.007635801263
2.96,-0.007400544376,0.01146585862
2.97,-0.002256222883,0.01340246358
2.98,0.003210994143,0.01314600506
2.99,0.008108080272,0.01075784159
3,0.01164362073,0.006646771455
3.01,0.01325635869,0.001498501638
3.02,0.0127044772,-0.003839578396
3.03,0.01010138792,-0.008498763346
3.04,0.005892848421,-0.01173109659
3.05,0.000779998455,-0.01302975794
3.06,-0.004398249394,-0.0122083422
3.07,-0.008803562924,-0.009426683057
3.08,-0.01173432417,-0.005159870933
3.09,-0.01273735988,-0.0001164842548
3.1,-0.01167749271,0.004879752933
3.11,-0.008754365778,0.009024981535
3.12,-0.004464790439,0.01166466488
3.13,0.0004822467258,0.01239663075
3.14,0.005283257996,0.01113155623
3.15,0.009170979974,0.008101982443
3.16,0.0115368441,0.003819444663
3.17,0.01202568723,-0.001012336412
3.18,0.0105880926,-0.00561338011
3.19,0.00748286984,-0.009253337857
3.2,0.003230321372,-0.01136704665
3.21,-0.001475226618,-0.01164155295
3.22,-0.005878867021,-0.01006137187
3.23,-0.009285985167,-0.006905677664
3.24,-0.01117126854,-0.002698875293
3.25,-0.01125887272,0.001876667248
3.26,-0.009561693111,0.006091182195
3.27,-0.006374392282,0.00928347993
3.28,-0.00222220704,0.01096400632
3.29,0.002225560349,0.01088906621
3.3,0.006263133154,0.009095145417
3.31,0.009259708046,0.005888718764
3.32,0.01075728413,0.00179395689
3.33,0.01053985968,-0.002532757744
3.34,0.008663714428,-0.006407613319
3.35,0.005444717367,-0.009226821345
3.36,0.001405325354,-0.01055999175
3.37,-0.002809871938,-0.01021514291
3.38,-0.00653648671,-0.008265672329
3.39,-0.009194418371,-0.005035635792
3.4,-0.01037752128,-0.001046170907
3.41,-0.009915128667,0.003068140541
3.42,-0.007896220894,0.006659648019
3.43,-0.004652898171,0.009168992805
3.44,-0.0007061359717,0.0102117164
3.45,0.003317401274,0.009636810858
3.46,0.006784316179,0.007548359306
3.47,0.009153696268,0.00428719521
3.48,0.0100611546,0.0003757229785
3.49,0.009374703512,-0.003565264695
3.5,0.007213916147,-0.006914637113
3.51,0.003929579673,-0.009148457613
3.52,4.720880116E-05,-0.009921754203
3.53,-0.00381658496,-0.009121796443
3.54,-0.007051656289,-0.006884635529
3.55,-0.009150458908,-0.003572435384
3.56,-0.009787639584,0.0002847229189
3.57,-0.008870606508,0.004073304389
3.58,-0.006553169864,0.007193668348
3.59,-0.003210183719,0.009154900251
3.6,0.0006227188838,0.009652135645
3.61,0.004334684541,0.008614165734
3.62,0.007336875266,0.006213832333
3.63,0.009155919178,0.002839632366
3.64,0.00950872569,-0.000966879035
3.65,0.008346792918,-0.004597855054
3.66,0.005863009569,-0.007476216243
3.67,0.002459948256,-0.009147495874
3.68,-0.001315196564,-0.009351817256
3.69,-0.004858543198,-0.008064548587
3.7,-0.007606201193,-0.005499216636
3.71,-0.009124190694,-0.002072323073
3.72,-0.009177218504,0.001664179888
3.73,-0.007765357375,0.005111820132
3.74,-0.005122862433,0.007721600131
3.75,-0.001679462827,0.009081622478
3.76,0.002009499657,0.008982313031
3.77,0.005352725276,0.007448865752
3.78,0.007817905624,0.004735851692
3.79,0.00901668093,0.001285048611
3.8,0.008766000866,-0.002346534335
3.81,0.007116154645,-0.005576697144
3.82,0.004341158732,-0.007891568414
3.83,0.0008932804396,-0.008927540767
3.84,-0.002670755944,-0.008528517496
3.85,-0.005779818754,-0.006769428239
3.86,-0.007940073901,-0.003942468184
3.87,-0.008813580886,-0.0005085476573
3.88,-0.00827123689,0.002977972964
3.89,-0.006411756019,0.005958945333
3.9,-0.003543910101,0.007961953516
3.91,-0.0001351994333,0.008675298166
3.92,0.003264498126,0.007996516363
3.93,0.006111798583,0.006046878609
3.94,0.007956803514,0.003149853193
3.95,0.008514253927,-0.0002226522597
3.96,0.007707576703,-0.003527315272
3.97,0.005679031421,-0.006237082685
3.98,0.002764688907,-0.007925329321
3.99,-0.0005613610933,-0.008333029519
4,-0.003764283091,-0.007408362147
4.01,-0.006334620583,-0.005312719431
4.02,-0.007869375494,-0.002392552782
4.03,-0.008135126803,0.0008780270401
4.04,-0.007103314588,0.003974355446
4.05,-0.004952399851,0.006405455164
4.06,-0.002036978726,0.007791869164
4.07,0.001170791183,0.007924749473
4.08,0.004157748745,0.006797028916
4.09,0.006451836449,0.004602083887
4.1,0.007696615057,0.001700540602
4.11,0.007706442069,-0.001439062633
4.12,0.006493815204,-0.00431597212
4.13,0.004264926621,-0.00647703572
4.14,0.00138457379,-0.0075879286
4.15,-0.001683589493,-0.007484625637
4.16,-0.004451664879,-0.006197249481
4.17,-0.006484982422,-0.003942906187
4.18,-0.007470157922,-0.001089066915
4.19,-0.007263122352,0.001906322676
4.2,-0.005909820469,0.004568246007
4.21,-0.003636682731,0.006479784936
4.22,-0.0008127697369,0.007347195387
4.23,0.002110085863,0.007044780332
4.24,0.004669445543,0.005632761231
4.25,0.006465241885,0.003345677186
4.26,0.007222091239,0.0005534959517
4.27,0.006831284083,-0.002298128451
4.28,0.005366098943,-0.004758828037
4.29,0.00306834108,-0.006444455381
4.3,0.0003085386451,-0.007096849458
4.31,-0.002473672895,-0.006623176257
4.32,-0.004839415944,-0.005108887056
4.33,-0.006419619146,-0.002802531466
4.34,-0.006972423186,-7.508820446E-05
4.35,-0.006420048547,0.002639558329
4.36,-0.004859531917,0.004913476939
4.37,-0.002545884233,0.006391989905
4.38,0.0001494409768,0.006848861752
4.39,0.002798033895,0.006220813411
4.4,0.004982474022,0.004616112747
4.41,0.006361988847,0.002296102478
4.42,0.006725522096,-0.0003672163916
4.43,0.006023963166,-0.002950690637
4.44,0.004376623906,-0.005047120583
4.45,0.002051131865,-0.006329348547
4.46,-0.0005799044188,-0.00660126067
4.47,-0.003098470136,-0.005827759358
4.48,-0.005107459774,-0.004139125825
4.49,-0.006293232583,-0.0018092551
4.5,-0.006474564118,0.0007886331742
4.51,-0.005630354099,0.003241674349
4.52,-0.003901847433,0.005162907949
4.53,-0.001569173547,0.006252302756
4.54,0.0009939319227,0.006343636435
4.55,0.00337993021,0.00542989694
4.56,0.005212254691,0.003663310356
4.57,0.006204768068,0.00133013815
4.58,0.006206506754,-0.00119561528
4.59,0.00522469917,-0.003512119655
4.6,0.003422529108,-0.005253670127
4.61,0.001092146078,-0.006148489889
4.62,-0.001392641411,-0.006061230752
4.63,-0.003636342374,-0.005013501291
4.64,-0.005284803958,-0.003179287962
4.65,-0.006081216915,-0.0008561552967
4.66,-0.005906222481,0.001583027772
4.67,-0.004795828475,0.003750005114
4.68,-0.002934428374,0.005303049855
4.69,-0.0006242177956,0.006000977552
4.7,0.001763927064,0.005740685757
4.71,0.003850110858,0.004572350058
4.72,0.005305993673,0.002690032697
4.73,0.005906583553,0.0003994206884
4.74,0.005565044125,-0.001931935964
4.75,0.004345114828,-0.003933757228
4.76,0.002449386109,-0.005291984661
4.77,0.0001855637271,-0.005798128022
4.78,-0.002083637174,-0.005381228348
4.79,-0.003998769584,-0.004117537615
4.8,-0.0052606982,-0.002216646716
4.81,-0.005677325232,1.341895584E-05
4.82,-0.005192691486,0.002216287698
4.83,-0.003894068811,0.004044324294
4.84,-0.001996239383,0.005213527552
4.85,0.0001941945709,0.005547557983
4.86,0.002328497518,0.005004085108
4.87,0.004071391398,0.003679569412
4.88,0.00515366709,0.001792081308
4.89,0.005413568069,-0.0003547596658
4.9,0.004820625383,-0.002420721448
4.91,0.003478507582,-0.004082857025
4.92,0.001606811772,-0.005085824804
4.93,-0.0004949786532,-0.00528082388
4.94,-0.002495423621,-0.004647271231
4.95,-0.004083265708,-0.003294154232
4.96,-0.005015602297,-0.001441210357
4.97,-0.005154691539,0.0006167926486
4.98,-0.004487894788,0.002556857209
4.99,-0.003127962345,0.00407822396
5,-0.001293942223,0.004948670988
5.01,0.0007240437941,0.005039590239
5.02,0.002610502792,0.004344627244
5.03,0.004073594096,0.002979265781
5.04,0.004889923182,0.001161682624
5.05,0.004938311089,-0.0008219594365
5.06,0.004217511652,-0.002662292658
5.07,0.002845346913,-0.004074652636
5.08,0.001039576353,-0.004842771457
5.09,-0.0009164198154,-0.004851625578
5.1,-0.002717788729,-0.004104509064
5.11,-0.004085378831,-0.002721829892
5.12,-0.004808715775,-0.0009219139795
5.13,-0.004778226915,0.001013168101
5.14,-0.004001816821,0.002781469781
5.15,-0.002603288601,0.004107984748
5.16,-0.0008028769321,0.004787218179
5.17,0.001117106715,0.004714965817
5.18,0.002856230224,0.003904396814
5.19,0.004142723142,0.002483934188
5.2,0.004775850129,0.0006772209874
5.21,0.004657288777,-0.001231771869
5.22,0.003806593148,-0.002943122691
5.23,0.00235826677,-0.004187942125
5.24,0.0005408176208,-0.004770631821
5.25,-0.001359014252,-0.004599774181
5.26,-0.003041317817,-0.003702740223
5.27,-0.004240318261,-0.002221623175
5.28,-0.004766476057,-0.0003910300321
5.29,-0.004536684928,0.001498863749
5.3,-0.003587706371,0.003148225699
5.31,-0.002070602711,0.004295198721
5.32,-0.0002269414412,0.004757673845
5.33,0.001649536002,0.004462496714
5.34,0.003259728407,0.00345736073
5.35,0.004347008899,0.001903384211
5.36,0.004738395575,4.946445291E-05
5.37,0.004372395841,-0.001807549129
5.38,0.003308972577,-0.003370499565
5.39,0.001719949956,-0.004389714488
5.4,-0.0001386557708,-0.00470320827
5.41,-0.001967946404,-0.004262752254
5.42,-0.00347441541,-0.003141545981
5.43,-0.004417345654,-0.00152221062
5.44,-0.004647611789,0.0003329599126
5.45,-0.004131558675,0.002124644825
5.46,-0.002956066054,0.003565072602
5.47,-0.00131399677,0.004424584073
5.48,0.0005275498442,0.004568573807
5.49,0.002270932837,0.003978795223
5.5,0.003636412299,0.002755603977
5.51,0.004407382905,0.001100866387
5.52,0.004465007383,-0.0007155525056
5.53,0.003806649396,-0.002400116474
5.54,0.002545215612,-0.0036834122
5.55,0.0008896882628,-0.004363549419
5.56,-0.0008897722977,-0.004338105004
5.57,-0.002506268759,-0.003619512314
5.58,-0.003702763997,-0.002331584905
5.59,-0.004293189786,-0.0006879995883
5.6,-0.004191437012,0.001043481689
5.61,-0.003423693741,0.00258498957
5.62,-0.00212240768,0.003693423152
5.63,-0.0005031914007,0.00419891207
5.64,0.0011712491,0.004030748412
5.65,0.002634052227,0.003226847882
5.66,0.003656916479,0.00192557108
5.67,0.004085713175,0.000341628712
5.68,0.003863441591,-0.001269671862
5.69,0.003037165003,-0.002653813257
5.7,0.001748239058,-0.003597325511
5.71,0.0002078437482,-0.00396053212
5.72,-0.001337883264,-0.003697798064
5.73,-0.002647296113,-0.00286244051
5.74,-0.003520922243,-0.001595986216
5.75,-0.003831519151,-0.0001039389327
5.76,-0.003542049847,0.00137773807
5.77,-0.002709165352,0.002619919274
5.78,-0.001472120446,0.00343550171
5.79,-2.930073268E-05,0.003707128096
5.8,0.001393640483,0.003403443519
5.81,0.002578906752,0.002581780038
5.82,0.003349513502,0.001377299936
5.83,0.003595171923,-1.933308577E-05
5.84,0.003287439188,-0.001392045062
5.85,0.002482201169,-0.002532475978
5.86,0.00130949348,-0.00327112694
5.87,-4.747489165E-05,-0.003501981742
5.88,-0.001380716742,-0.003197155344
5.89,-0.002488930541,-0.002409675484
5.9,-0.003207366316,-0.001264271055
5.91,-0.003431780969,6.223325532E-05
5.92,-0.003133120143,0.001367868392
5.93,-0.002360957815,0.002455788526
5.94,-0.001235360052,0.00316342726
5.95,7.151143524E-05,0.003386340079
5.96,0.001361299355,0.00309333508
5.97,0.002439055545,0.002330760513
5.98,0.00314224376,0.00121537132
5.99,0.003364927343,-8.31729643E-05
6,0.003073611305,-0.001367640721
