"Freq [GHz]","re(S(Rx_p1,Tx_p1)) []","im(S(Rx_p1,Tx_p1)) []"
1,0.002725430102,-0.01499866164
1.01,-0.003428613771,-0.01444553301
1.02,-0.008691005724,-0.01154476866
1.03,-0.01224059709,-0.006908339716
1.04,-0.01359045037,-0.001401534063
1.05,-0.01264903447,0.004018410218
1.06,-0.009710166872,0.008468817236
1.07,-0.005378269368,0.0112841921
1.08,-0.0004463509335,0.01211212642
1.09,0.004248901734,0.01094949529
1.1,0.007968432036,0.008117335676
1.11,0.01018477143,0.004183563162
1.12,0.01065161294,-0.0001490612368
1.13,0.009421098333,-0.004167833486
1.14,0.006810608232,-0.007265780906
1.15,0.003329299572,-0.009029686895
1.16,-0.0004195409998,-0.009288570398
1.17,-0.003841837852,-0.008118638274
1.18,-0.006444316386,-0.005808466461
1.19,-0.007900828844,-0.002794368742
1.2,-0.00808567608,0.0004203385708
1.21,-0.007072546756,0.003347527049
1.22,-0.005103443171,0.005584914202
1.23,-0.002536171834,0.006865808471
1.24,0.0002188623189,0.0070831921
1.25,0.00276176141,0.006288080184
1.26,0.004757046709,0.004666014253
1.27,0.005972140436,0.002498161716
1.28,0.006297478597,0.000114600182
1.29,0.005748403086,-0.002152910274
1.3,0.004451382328,-0.004012667348
1.31,0.002618590185,-0.00524514139
1.32,0.0005154354748,-0.005723287795
1.33,-0.001574536181,-0.005420588896
1.34,-0.003383571764,-0.004407625507
1.35,-0.00468947505,-0.002838780952
1.36,-0.005338976498,-0.0009311170904
1.37,-0.005263119744,0.001062309171
1.38,-0.004483604583,0.002882253077
1.39,-0.003109536709,0.004293591841
1.4,-0.001324639019,0.005113325355
1.41,0.0006342470502,0.005233355925
1.42,0.00250560386,0.004635267021
1.43,0.004035856229,0.003394818003
1.44,0.005012515404,0.001674804178
1.45,0.005293649723,-0.0002937322463
1.46,0.004829470684,-0.002240360012
1.47,0.003672467418,-0.003890993727
1.48,0.00197382621,-0.00500597845
1.49,-3.429901823E-05,-0.005415219944
1.5,-0.002069000766,-0.005045048794
1.51,-0.003835620858,-0.003932353757
1.52,-0.005070238785,-0.00222315653
1.53,-0.005579465407,-0.0001550126846
1.54,-0.005271414894,0.001974918737
1.55,-0.0041727588,0.003851983767
1.56,-0.002428659311,0.005190389702
1.57,-0.0002848691063,0.005776948149
1.58,0.001946000235,0.005505446578
1.59,0.003929522199,0.00439605021
1.6,0.005359375508,0.00259621106
1.61,0.0060047073,0.0003622601326
1.62,0.00574761515,-0.001976213401
1.63,0.004604660363,-0.004064377422
1.64,0.002728540008,-0.005575668518
1.65,0.0003889369184,-0.006262797769
1.66,-0.002065278169,-0.005998323895
1.67,-0.004257368541,-0.004798158029
1.68,-0.005840166134,-0.002823725883
1.69,-0.006550959913,-0.0003616330261
1.7,-0.00625521072,0.002216884144
1.71,-0.004971833952,0.004511197764
1.72,-0.00287535395,0.006153158978
1.73,-0.0002736548543,0.006866142862
1.74,0.002436157053,0.006511832072
1.75,0.004827682317,0.005116818501
1.76,0.006512058524,0.002873954636
1.77,0.007201290291,0.0001171956207
1.78,0.006757764895,-0.002727120785
1.79,0.005221402246,-0.00520566682
1.8,0.00280913291,-0.006910281791
1.81,-0.0001143263107,-0.007545439074
1.82,-0.003090774358,-0.006979831391
1.83,-0.005640000049,-0.005273008525
1.84,-0.007337352817,-0.00267173279
1.85,-0.007884864185,0.000424490429
1.86,-0.007163935638,0.003524152424
1.87,-0.005260204531,0.006121641365
1.88,-0.002455483724,0.007779978106
1.89,0.0008130105828,0.008204794219
1.9,0.004020437011,0.007296936215
1.91,0.006638673536,0.005174228428
1.92,0.008223651288,0.002157793652
1.93,0.008491155703,-0.001275852586
1.94,0.007368061177,-0.00456991296
1.95,0.005009714427,-0.00717780386
1.96,0.001779623265,-0.00865427561
1.97,-0.001806137746,-0.008731879224
1.98,-0.005161371728,-0.007369564089
1.99,-0.007725869154,-0.004764553896
2,-0.009059361629,-0.001324627161
2.01,-0.008917482171,0.002395456211
2.02,-0.007296563811,0.005783502734
2.03,-0.004439071176,0.008270923929
2.04,-0.0007979219863,0.009428530031
2.05,0.00303514967,0.009040876017
2.06,0.006425870935,0.007146241698
2.07,0.008802655482,0.00403486111
2.08,0.00975327296,0.0002049047775
2.09,0.00909656843,-0.003717178929
2.1,0.006916732662,-0.007079236776
2.11,0.003553697071,-0.009312084698
2.12,-0.0004495083488,-0.01002614197
2.13,-0.004434343242,-0.009079588289
2.14,-0.007735182226,-0.006606107183
2.15,-0.009790719325,-0.002996867888
2.16,-0.01023968425,0.001160998928
2.17,-0.008984521451,0.005179819323
2.18,-0.006211793319,0.0083852088
2.19,-0.002365160884,0.01022947637
2.2,0.001925289451,0.01038550776
2.21,0.005946185158,0.008804999333
2.22,0.00901962041,0.005730650978
2.23,0.01061774924,0.001659517944
2.24,0.0104538128,-0.002737077351
2.25,0.008533849662,-0.006724238463
2.26,0.005159724849,-0.009626563063
2.27,0.0008822020514,-0.01094295413
2.28,-0.003588766894,-0.01043359833
2.29,-0.007501979464,-0.008163936933
2.3,-0.01019155519,-0.004497515913
2.31,-0.0111907656,-3.816968154E-05
2.32,-0.01031357355,0.004469367264
2.33,-0.007689536117,0.008264092553
2.34,-0.003745469831,0.01069772135
2.35,0.0008637183806,0.01134607617
2.36,0.005363893391,0.01008362339
2.37,0.00899214436,0.007107941551
2.38,0.0111267711,0.002909315533
2.39,0.01139453547,-0.001809987281
2.4,0.009736534357,-0.006253493427
2.41,0.006420945303,-0.009665548461
2.42,0.001999910999,-0.01146058664
2.43,-0.002782570922,-0.0113243813
2.44,-0.007116363214,-0.009269616775
2.45,-0.01026317055,-0.00563583838
2.46,-0.01168313933,-0.00103335617
2.47,-0.01112820131,0.003759639383
2.48,-0.008685873362,0.007929333622
2.49,-0.004765685545,0.01076530349
2.5,-3.028802057E-05,0.01178237773
2.51,0.004717130581,0.01080427239
2.52,0.00866987133,0.007994455533
2.53,0.01115566044,0.003828774877
2.54,0.01175173246,-0.0009855572172
2.55,0.01035721024,-0.00563073983
2.56,0.007210294079,-0.009318148642
2.57,0.002847310295,-0.01142303101
2.58,-0.001989283287,-0.01159096192
2.59,-0.00647803228,-0.009797800753
2.6,-0.00985882871,-0.006352954582
2.61,-0.01156231725,-0.001845561791
2.62,-0.01130619609,0.002956951001
2.63,-0.009142045304,0.007240327887
2.64,-0.005444914104,0.01028227689
2.65,-0.0008477834904,0.01157479243
2.66,0.003867528214,0.01090919127
2.67,0.007904065419,0.008409596718
2.68,0.01058502836,0.004509553908
2.69,0.01146757683,-0.0001237630354
2.7,0.01041595243,-0.004704376995
2.71,0.007621863757,-0.008461464048
2.72,0.003569195875,-0.0107694877
2.73,-0.001050384479,-0.01125246614
2.74,-0.005456086641,-0.009844982133
2.75,-0.008910440661,-0.006800099869
2.76,-0.01084297495,-0.002643476082
2.77,-0.01094435183,0.001917931321
2.78,-0.009215458326,0.006116594437
2.79,-0.005963765092,0.009253876672
2.8,-0.001748260443,0.01081633697
2.81,0.002717100413,0.01055951999
2.82,0.00668466781,0.00854562273
2.83,0.009498432166,0.00512936938
2.84,0.01070239385,0.0008951878704
2.85,0.0101141018,-0.003443119228
2.86,0.007851589307,-0.007162924772
2.87,0.004309893429,-0.009653159113
2.88,9.180403389E-05,-0.01051448245
2.89,-0.00409496813,-0.009622883572
2.9,-0.007556625776,-0.007146677175
2.91,-0.009728163477,-0.003514766012
2.92,-0.01026530171,0.0006578509444
2.93,-0.009098586829,0.004674354937
2.94,-0.006441260997,0.007872473124
2.95,-0.002750279756,0.009733515181
2.96,0.00135239636,0.009966173866
2.97,0.005184663263,0.008551623391
2.98,0.0081176096,0.005743037905
2.99,0.009678521743,0.002020268087
3,0.009626736362,-0.001992212697
3.01,0.007990239983,-0.00563005765
3.02,0.005057551111,-0.008298931734
3.03,0.001326852347,-0.009571387897
3.04,-0.002578664516,-0.009254992503
3.05,-0.006014858625,-0.007420908798
3.06,-0.008422745495,-0.004388794321
3.07,-0.009419201012,-0.0006710964108
3.08,-0.008857592276,0.003113553824
3.09,-0.006848802692,0.006343219073
3.1,-0.0037397452,0.008494713972
3.11,-5.346438308E-05,0.009228127027
3.12,0.003598837153,0.008440195731
3.13,0.006619059301,0.006278214262
3.14,0.008519993476,0.003112729332
3.15,0.009003682018,-0.0005259521552
3.16,0.00800778887,-0.004036569765
3.17,0.005712826615,-0.006846167252
3.18,0.002509582029,-0.008503434601
3.19,-0.001067405197,-0.008750959476
3.2,-0.004428991786,-0.007564866475
3.21,-0.007028350491,-0.005155805027
3.22,-0.008449737712,-0.001931637128
3.23,-0.008474734283,0.001571581241
3.24,-0.007115453522,0.004778651574
3.25,-0.004609736763,0.007169537808
3.26,-0.001379615862,0.008363490001
3.27,0.002039714657,0.008179417761
3.28,0.005088471426,0.006662991472
3.29,0.007273763189,0.004076488057
3.3,0.008249061309,0.000853507331
3.31,0.00786888977,-0.002473634716
3.32,0.006210155407,-0.00536169326
3.33,0.003557065126,-0.007345011947
3.34,0.0003525244216,-0.008110384668
3.35,-0.002875687874,-0.007546271565
3.36,-0.005601686181,-0.005758685308
3.37,-0.007386955032,-0.00305155926
3.38,-0.007950683598,0.0001248094158
3.39,-0.007213720029,0.00324851876
3.4,-0.005309308761,0.005811641876
3.41,-0.002559229405,0.007402632164
3.42,0.0005804267603,0.007772224793
3.43,0.003594735333,0.006872318785
3.44,0.005994217156,0.004861807521
3.45,0.007394160934,0.002078738086
3.46,0.00757617066,-0.00101636062
3.47,0.006522118506,-0.003916516064
3.48,0.004415244735,-0.006151199543
3.49,0.001608517948,-0.007362545894
3.5,-0.001434322656,-0.00736258478
3.51,-0.004215233775,-0.006162345089
3.52,-0.006283269854,-0.003968332602
3.53,-0.007307642126,-0.001147215275
3.54,-0.00713061167,0.00183528843
3.55,-0.005791758843,0.004491170264
3.56,-0.003519889918,0.006389918278
3.57,-0.0006941391408,0.007228298188
3.58,0.00221916391,0.006878818227
3.59,0.004743380523,0.005409118018
3.6,0.006469542988,0.003069320566
3.61,0.007122670906,0.0002496420221
3.62,0.006605654959,-0.002584594588
3.63,0.005013680853,-0.004969740329
3.64,0.002617039284,-0.006519729708
3.65,-0.0001846319363,-0.006988675814
3.66,-0.002928956073,-0.006309975159
3.67,-0.005167182269,-0.00460567361
3.68,-0.00653768264,-0.002164778642
3.69,-0.006824516343,0.0006056752293
3.7,-0.00599154136,0.003248538511
3.71,-0.004186656641,0.005332098159
3.72,-0.001715727624,0.006520755798
3.73,0.001009241981,0.006629223843
3.74,0.003538911189,0.005651449866
3.75,0.005460863884,0.003759733696
3.76,0.006467020661,0.001274473594
3.77,0.006403138775,-0.001390165142
3.78,0.005292413672,-0.003795431391
3.79,0.003329567941,-0.005550427479
3.8,0.0008467423041,-0.006375800877
3.81,-0.001742839039,-0.006148269039
3.82,-0.004013844421,-0.00491885903
3.83,-0.005598892719,-0.002902189018
3.84,-0.00624810642,-0.0004389527428
3.85,-0.005868472643,0.002061821483
3.86,-0.004536809202,0.004190909749
3.87,-0.002484597,0.00560602788
3.88,-5.762411869E-05,0.006086906723
3.89,0.002342494378,0.005569427332
3.9,0.004324981315,0.004153549611
3.91,0.005573632185,0.002084190849
3.92,0.005897194515,-0.0002913092961
3.93,0.005258369078,-0.002581710435
3.94,0.003777091162,-0.004416468247
3.95,0.001708070393,-0.005505700898
3.96,-0.0006032039755,-0.005685809432
3.97,-0.002778346984,-0.004943604308
3.98,-0.004468106635,-0.003415472614
3.99,-0.005408345082,-0.001362280944
4,-0.005461013519,0.0008753504894
4.01,-0.004633827315,0.002933687805
4.02,-0.003075967315,0.004484985208
4.03,-0.001051086482,0.00528944457
4.04,0.001107466412,0.005231839275
4.05,0.00305156279,0.004337302719
4.06,0.004474289278,0.002764281526
4.07,0.005158042769,0.0007763672661
4.08,0.005007263137,-0.001301955903
4.09,0.004061000017,-0.003138195197
4.1,0.002483846898,-0.004444758492
4.11,0.0005372368752,-0.005023527726
4.12,-0.001463870927,-0.004795289571
4.13,-0.003201738007,-0.003809788068
4.14,-0.004405892809,-0.00223531345
4.15,-0.004894681042,-0.0003299585082
4.16,-0.004602057446,0.001600540812
4.17,-0.003585806231,0.003251522407
4.18,-0.002016337384,0.004366983053
4.19,-0.0001482092179,0.00477870849
4.2,0.001720880526,0.004431094504
4.21,0.003297087837,0.00338812052
4.22,0.004336080326,0.001821728171
4.23,0.004680385909,-1.630456785E-05
4.24,0.004282841665,-0.001834438563
4.25,0.003212745036,-0.003347106535
4.26,0.001643972874,-0.004319044105
4.27,-0.0001729310493,-0.004601454503
4.28,-0.001950294254,-0.004154543099
4.29,-0.003408347004,-0.003053062041
4.3,-0.004318814397,-0.001474098405
4.31,-0.004540376824,0.000330961519
4.32,-0.004040551291,0.002075951778
4.33,-0.002900614025,0.003484831702
4.34,-0.001302773339,0.004335033939
4.35,0.0004984716028,0.004492518732
4.36,0.002216394602,0.003933034183
4.37,0.003577328812,0.002746177605
4.38,0.004364101838,0.001121501727
4.39,0.004450758988,-0.0006812858627
4.4,0.0038230039,-0.002373453062
4.41,0.002580974247,-0.003683275336
4.42,0.0009237331991,-0.004399675473
4.43,-0.0008822300789,-0.004406456967
4.44,-0.002545597688,-0.003701526296
4.45,-0.003797163855,-0.002397838665
4.46,-0.004433563207,-0.0007057147752
4.47,-0.004350643604,0.001100798455
4.48,-0.003560930559,0.00272820623
4.49,-0.002192161625,0.003911348506
4.5,-0.0004669434201,0.004456880438
4.51,0.001333299241,0.004275254892
4.52,0.002914273656,0.003395828411
4.53,0.004017151404,0.001962453484
4.54,0.004461290024,0.0002101406662
4.55,0.004174211957,-0.001573462176
4.56,0.003203777851,-0.003095456173
4.57,0.001710435221,-0.004106093859
4.58,-5.924846413E-05,-0.004440127238
4.59,-0.001813409591,-0.004044172545
4.6,-0.003263278389,-0.002985484273
4.61,-0.004171050282,-0.001440644791
4.62,-0.004389225406,0.0003339455789
4.63,-0.003884833831,0.002044826325
4.64,-0.002744512705,0.003410300755
4.65,-0.00115963346,0.004207133669
4.66,0.0006059604024,0.00430731021
4.67,0.00226012631,0.003698746522
4.68,0.003531050429,0.002486573469
4.69,0.004212169917,0.0008749017218
4.7,0.004195909514,-0.0008677434867
4.71,0.003490690178,-0.002453414605
4.72,0.002218522076,-0.003622563217
4.73,0.0005937717316,-0.00418669536
4.74,-0.001113165951,-0.004058816278
4.75,-0.0026210842,-0.003266741233
4.76,-0.003684459418,-0.001947266089
4.77,-0.004133503091,-0.0003224021817
4.78,-0.003901226432,0.001338158449
4.79,-0.003033221379,0.002761959735
4.8,-0.001678785441,0.003718567486
4.81,-6.511935224E-05,0.004056850106
4.82,0.001540911809,0.003728733612
4.83,0.002876990997,0.002795732377
4.84,0.003728197788,0.001417444748
4.85,0.003961500959,-0.0001758293907
4.86,0.00354638554,-0.001721631738
4.87,0.002558459594,-0.002968588783
4.88,0.001165711651,-0.003717235555
4.89,-0.0004000822799,-0.003851810684
4.9,-0.00188193085,-0.003357987153
4.91,-0.003039765542,-0.002323865121
4.92,-0.003689253217,-0.0009243075782
4.93,-0.003731034103,0.0006086042724
4.94,-0.003165777313,0.002024013616
4.95,-0.002092805181,0.00309327793
4.96,-0.0006927252509,0.003646830534
4.97,0.0008029115176,0.003600993517
4.98,0.002149848082,0.002970521412
4.99,0.003130960484,0.001865014227
5,0.003591219046,0.0004699705568
5.01,0.003462154059,-0.0009842695196
5.02,0.002771969847,-0.002260513886
5.03,0.001639819672,-0.003153390813
5.04,0.0002553419902,-0.003522406427
5.05,-0.001153054566,-0.003314063767
5.06,-0.002355870394,-0.002569552368
5.07,-0.003159947723,-0.001416903976
5.08,-0.003439544463,-4.905827685E-05
5.09,-0.003156034144,0.00130842526
5.1,-0.002363128445,0.002434611739
5.11,-0.001196925004,0.003149232226
5.12,0.000147415419,0.003341621889
5.13,0.001448375972,0.002987884647
5.14,0.0024946846,0.002153604928
5.15,0.003119737851,0.0009818424868
5.16,0.003228208659,-0.0003314192616
5.17,0.002810562729,-0.001570153633
5.18,0.001943266364,-0.002533960081
5.19,0.0007748694699,-0.003070599833
5.2,-0.0004995152972,-0.003100083589
5.21,-0.001670933986,-0.002626482377
5.22,-0.002550992119,-0.001735732413
5.23,-0.003002235341,-0.0005800566917
5.24,-0.002959585869,0.0006481695184
5.25,-0.002439491162,0.001748592483
5.26,-0.001535545119,0.002545674756
5.27,-0.0004016046378,0.002916712786
5.28,0.0007745372925,0.002810596065
5.29,0.001802382219,0.002254463444
5.3,0.002519633763,0.001347476296
5.31,0.002817751358,0.0002430627763
5.32,0.002658139043,-0.0008771646082
5.33,0.002076605396,-0.001833351847
5.34,0.001175711851,-0.002476249259
5.35,0.0001066034793,-0.002710337931
5.36,-0.0009564354444,-0.002507689834
5.37,-0.001844395475,-0.001910625961
5.38,-0.002420291026,-0.001023100491
5.39,-0.002600037595,7.457017056E-06
5.4,-0.002364333714,0.001014652543
5.41,-0.00175996104,0.001839910671
5.42,-0.000890641814,0.002357237831
5.43,0.000100773089,0.002492146033
5.44,0.001055721997,0.002231967518
5.45,0.001825130748,0.001626228546
5.46,0.002292425749,0.0007773362019
5.47,0.002390870388,-0.0001766841588
5.48,0.002112722401,-0.001084502414
5.49,0.001509041638,-0.001805272826
5.5,0.0006804380232,-0.002230211499
5.51,-0.0002395842096,-0.002298721235
5.52,-0.00110595643,-0.002006740285
5.53,-0.001784686845,-0.001406227877
5.54,-0.002173335735,-0.0005960629198
5.55,-0.002216252875,0.0002940801308
5.56,-0.001912358079,0.001124288612
5.57,-0.001314411184,0.001766192595
5.58,-0.0005200197626,0.002122628387
5.59,0.0003441214997,0.002142212459
5.6,0.00114225874,0.001826662911
5.61,0.001750751684,0.001229831846
5.62,0.002077123094,0.000448686407
5.63,0.002074067771,-0.0003922924895
5.64,0.001746298609,-0.001160822117
5.65,0.001149225779,-0.001737548078
5.66,0.0003797371466,-0.0020345574
5.67,-0.0004394221179,-0.002008799248
5.68,-0.00117917716,-0.001668347066
5.69,-0.001724460922,-0.001070569833
5.7,-0.001992149895,-0.0003125612208
5.71,-0.001943782644,0.0004845997752
5.72,-0.001591090456,0.001195211231
5.73,-0.0009935282309,0.001708826788
5.74,-0.0002482787777,0.001947483923
5.75,0.0005255943838,0.001877567853
5.76,0.001206248158,0.00151448539
5.77,0.001688324557,0.0009194999295
5.78,0.001899303248,0.0001893483581
5.79,0.001810381179,-0.0005595872805
5.8,0.001440242192,-0.001209934603
5.81,0.0008512532177,-0.001661788595
5.82,0.0001388488481,-0.00184804345
5.83,-0.0005840603788,-0.00174423773
5.84,-0.001205071682,-0.001371487735
5.85,-0.001629770791,-0.0007922232164
5.86,-0.001795979326,-9.958950429E-05
5.87,-0.001682634382,0.0005976471636
5.88,-0.001312079903,0.001192209475
5.89,-0.0007456205909,0.001594725448
5.9,-7.323888089E-05,0.001746950643
5.91,0.0006007616313,0.001629883447
5.92,0.001173872366,0.001265716226
5.93,0.001560771241,0.0007135401877
5.94,0.001705718164,5.96596477E-05
5.95,0.001590223364,-0.000595867272
5.96,0.001235022747,-0.00115436122
5.97,0.0006962582206,-0.001533073622
5.98,5.659278101E-05,-0.00167707953
5.99,-0.0005873239125,-0.001566889255
6,-0.001139167005,-0.001220812873
