"Freq [GHz]","re(S(Antenna1_1_p1,Antenna1_1_p1)) []","im(S(Antenna1_1_p1,Antenna1_1_p1)) []"
3,0.00164033165433202,-0.064985598079884
3.002,0.000417815010778903,-0.0647872494072689
3.004,-0.000794811624461585,-0.0645559345047979
3.006,-0.00199651624596965,-0.0642920863027619
3.008,-0.00318629047165387,-0.063996173164132
3.01,-0.00436315094430392,-0.0636686972135347
3.012,-0.00552614059821128,-0.063310192600263
3.014,-0.00667432978219316,-0.0629212236927909
3.016,-0.00780681723741878,-0.0625023832414695
3.018,-0.00892273092550724,-0.0620542904972787
3.02,-0.0100212287144462,-0.0615775893240113
3.022,-0.0111014989059203,-0.0610729462872647
3.024,-0.0121627606286824,-0.0605410487635196
3.026,-0.0132042640815983,-0.0599826030584012
3.028,-0.0142252906319488,-0.0593983325539514
3.03,-0.0152251527885031,-0.0587889759033943
3.032,-0.0162031940327294,-0.058155285269464
3.034,-0.0171587885343326,-0.057498024625882
3.036,-0.0180913407430519,-0.0568179681350424
3.038,-0.019000284870749,-0.0561158986013749
3.04,-0.0198850842794491,-0.0553926060122317
3.042,-0.0207452307649597,-0.0546488861774833
3.044,-0.0215802437651014,-0.0538855394703189
3.046,-0.0223896694911232,-0.0531033696770298
3.048,-0.0231730799964758,-0.0523031829568277
3.05,-0.0239300721913803,-0.0514857869250013
3.052,-0.0246602668161446,-0.0506519898509641
3.054,-0.0253633073823737,-0.0498025999839872
3.056,-0.0260388590933677,-0.0489384250026541
3.058,-0.0266866077560846,-0.0480602715883142
3.06,-0.0273062586936578,-0.0471689451270584
3.062,-0.0278975356714013,-0.0462652495349945
3.064,-0.0284679961380224,-0.0453606255158496
3.066,-0.0290132932733731,-0.0444478959522007
3.068,-0.029530689090256,-0.0435241148478991
3.07,-0.0300198976925311,-0.0425900050375385
3.072,-0.0304806427853761,-0.0416462930241014
3.074,-0.0309126571210045,-0.0406937096842147
3.076,-0.0313156820389714,-0.0397329910567488
3.078,-0.0316894671098786,-0.0387648792107977
3.08,-0.0320337698929262,-0.0377901231844014
3.082,-0.032348355800361,-0.0368094799866878
3.084,-0.0326329981034252,-0.0358237156494448
3.086,-0.0328874780589145,-0.0348336063224679
3.088,-0.033111585182914,-0.0338399394013771
3.09,-0.0333051176596858,-0.0328435146689575
3.092,-0.0334678829130301,-0.0318451454537389
3.094,-0.0335996983137295,-0.0308456597744329
3.096,-0.033700392060915,-0.0298459014703406
3.098,-0.033769804209343,-0.028846731298085
3.1,-0.0338077878626665,-0.027849027980388
3.102,-0.0338142105247876,-0.0268536891937149
3.104,-0.0337889556113183,-0.0258616324776902
3.106,-0.0337319241150257,-0.0248737960512595
3.108,-0.0336430364339137,-0.0238911395191774
3.11,-0.0335222343342816,-0.0229146444524837
3.112,-0.033369483069709,-0.0219453148264598
3.114,-0.0331847736264483,-0.0209841772998261
3.116,-0.0329681250981588,-0.0200322813173415
3.118,-0.0327195871743022,-0.0190906990217156
3.12,-0.0324392427288435,-0.018160524958018
3.122,-0.0321272104951706,-0.0172428755497636
3.124,-0.0317836478193839,-0.0163388883495408
3.126,-0.0314146335843103,-0.0154450670576132
3.128,-0.0310197528518066,-0.014561790647809
3.13,-0.0305931392351348,-0.0136946896245066
3.132,-0.030135067158454,-0.0128450348332562
3.134,-0.0296458671858016,-0.0120141140513419
3.136,-0.029125928921362,-0.0112032293926017
3.138,-0.0285757038123785,-0.010413694393088
3.14,-0.0279957078177799,-0.00964683079364948
3.142,-0.0273865239115185,-0.0089039650032743
3.144,-0.026748804393772,-0.00818642426500231
3.146,-0.0260832729716042,-0.00749553252241419
3.148,-0.0253907265796275,-0.00683260599708165
3.15,-0.0246720369003209,-0.00619894849891078
3.152,-0.0239281515660562,-0.00559584649198493
3.154,-0.0231600949957001,-0.00502456391526672
3.156,-0.0223689688442337,-0.00448633682431822
3.158,-0.0215559520343748,-0.00398236784197408
3.16,-0.0207223003446045,-0.00351382048360398
3.162,-0.0198693455296897,-0.00308181338415946
3.164,-0.0189984939541968,-0.00268741446154872
3.166,-0.0181112247224831,-0.00233163507094494
3.168,-0.0172090872936259,-0.00201542419834629
3.17,-0.0162936985734511,-0.00173966272898265
3.172,-0.015366739482427,-0.00150515785794487
3.174,-0.0144299510025291,-0.0013126376886267
3.176,-0.0134851297132109,-0.00116274607115256
3.178,-0.0125341228272859,-0.00105603773787165
3.18,-0.0115788227565869,-0.000992973786176137
3.182,-0.0106211612292715,-0.000973917562328681
3.184,-0.00966310298394174,-0.000999130987634014
3.186,-0.00870663910496911,-0.00106877138516568
3.188,-0.00775124890233176,-0.00117969142937033
3.19,-0.00679313991038282,-0.00132603927125089
3.192,-0.00584153002456277,-0.00151766044952049
3.194,-0.00489851281104845,-0.00175435288018895
3.196,-0.00396617577660856,-0.00203579856356453
3.198,-0.0030465923194164,-0.00236156379472978
3.2,-0.00214181367520709,-0.00273110003627825
3.202,-0.00125386094489233,-0.00314374548960178
3.204,-0.000384717270534685,-0.00359872733432174
3.206,0.000463679787574701,-0.00409516462688629
3.208,0.00128944559510316,-0.00463207184075142
3.21,0.00209075544451312,-0.00520836300774158
3.212,0.00286585117484107,-0.00582285643029417
3.214,0.00361304732940895,-0.00647427991972026
3.216,0.00433073682489515,-0.00716127650991632
3.218,0.00501739607625281,-0.00788241059490944
3.22,0.00567158955754129,-0.00863617443119781
3.222,0.00629197374872345,-0.00942099494392343
3.224,0.00687730046073085,-0.010235240773404
3.226,0.00742641952750657,-0.011077229498166
3.228,0.00793828084815101,-0.0119452349685311
3.23,0.00841193578160498,-0.0128374946860178
3.232,0.00884653791138662,-0.0137522171642789
3.234,0.00924134317963649,-0.0146875892158533
3.236,0.00959570942302802,-0.0156417830987211
3.238,0.00990909533287682,-0.0166129634684399
3.24,0.0101810588649553,-0.0175992940987915
3.242,0.0104112551480491,-0.0185989443045286
3.244,0.0105994339191149,-0.0196100950408336
3.246,0.0107454365340145,-0.0206309446405156
3.248,0.0108491925951792,-0.0216597141525559
3.25,0.010910716251222,-0.0226946522702811
3.252,0.0109422594474727,-0.0237591099600909
3.254,0.010929531729698,-0.0248273484112113
3.256,0.010872717672927,-0.025897578550315
3.258,0.0107720764723801,-0.0269680516119566
3.26,0.0106279373556551,-0.0280370620575841
3.262,0.0104406949494202,-0.0291029500373258
3.264,0.0102108046309619,-0.0301641034068066
3.266,0.00993877791790349,-0.0312189593218781
3.268,0.0096251779237209,-0.032266005420327
3.27,0.00927061491658226,-0.0333037806233728
3.272,0.0088757420096731,-0.0343308755650549
3.274,0.00844125101107273,-0.0353459327014651
3.276,0.00796786845419597,-0.0363476460932087
3.278,0.00745635183033589,-0.0373347609225048
3.28,0.0069074860375939,-0.0383060727489931
3.282,0.00632208006037836,-0.0392604265525983
3.284,0.00570096388721501,-0.0401967155738029
3.286,0.00504498567527964,-0.0411138800013635
3.288,0.00435500916444362,-0.0420109055149538
3.29,0.00363191133864491,-0.0428868217284492
3.292,0.00287658033991507,-0.0437407005425998
3.294,0.00208991362332707,-0.0445716544477371
3.296,0.00127281635607105,-0.0453788347949197
3.298,0.000426200039824941,-0.0461614300465945
3.3,-0.000449018638761278,-0.0469186640454579
3.302,-0.00135191874387595,-0.0476497943127535
3.304,-0.0022815758381207,-0.0483541103837853
3.306,-0.00323706252517678,-0.0490309322119524
3.308,-0.00421744883759847,-0.0496796086461601
3.31,-0.00522180245130843,-0.0502995159920326
3.312,-0.00624918876076879,-0.0508900566789607
3.314,-0.00729867082107731,-0.0514506580231826
3.316,-0.00836930918138232,-0.051980771112806
3.318,-0.00946016160606591,-0.0524798698094584
3.32,-0.0105702827170947,-0.0529474498746004
3.322,-0.0116987235718108,-0.0533830282238435
3.324,-0.0128445311672502,-0.0537861423101026
3.326,-0.0140067479178062,-0.0541563496364564
3.328,-0.0151844110947664,-0.0544932273994951
3.33,-0.0163765522528975,-0.0547963722593486
3.332,-0.0175821966518756,-0.0550654002362105
3.334,-0.018800362687961,-0.0552999467284997
3.336,-0.0200300613418806,-0.0554996666489502
3.338,-0.021270295664459,-0.0556642346737832
3.34,-0.0225200602900756,-0.0557933455992023
3.342,-0.0237783410155815,-0.0558867148005909
3.344,-0.0250441144208521,-0.0559440787832947
3.346,-0.0263163475686954,-0.0559651958203198
3.348,-0.0275939977723843,-0.0559498466785616
3.35,-0.028876012437639,-0.0558978353994058
3.352,-0.0301613290004342,-0.0558089901640078
3.354,-0.0314488749475888,-0.0556831641932424
3.356,-0.0327375679306536,-0.0555202367091466
3.358,-0.0340263159812065,-0.0553201139235217
3.36,-0.0353140178252539,-0.0550827300632411
3.362,-0.0365995633000353,-0.0548080484047046
3.364,-0.0378818338711381,-0.0544960623308038
3.366,-0.0391597032584465,-0.0541467963797017
3.368,-0.0404320381669766,-0.053760307287687
3.37,-0.0416976991139764,-0.053336685021346
3.372,-0.0429555413666154,-0.0528760537792851
3.374,-0.0442044159759338,-0.0523785729616509
3.376,-0.0454430360314781,-0.051827137457721
3.378,-0.0466677587520051,-0.0512220597578849
3.38,-0.0478767474356179,-0.0505811323923907
3.382,-0.0490688763628452,-0.0499048967173113
3.384,-0.0502430367199201,-0.0491939308992763
3.386,-0.0513981379432921,-0.0484488496526193
3.388,-0.0525331090827415,-0.0476703039017165
3.39,-0.0536469001791595,-0.0468589803914346
3.392,-0.0547384836534311,-0.0460156012137554
3.394,-0.0558068557006631,-0.045140923277825
3.396,-0.0568510376894398,-0.0442357376958575
3.398,-0.0578700775516352,-0.0433008691045335
3.4,-0.0588630511719716,-0.0423371749107526
3.402,-0.0598290637603884,-0.0413455444548362
3.404,-0.0607672512122769,-0.0403268981105303
3.406,-0.0616767814374409,-0.0392821863014271
3.408,-0.0625568556741699,-0.0382123884407027
3.41,-0.0634067097606577,-0.0371185118033635
3.412,-0.0642256153768591,-0.036001590320505
3.414,-0.065012881238772,-0.0348626833003989
3.416,-0.0657678542500374,-0.0337028740785534
3.418,-0.066489920601688,-0.0325232686042286
3.42,-0.0671785068108354,-0.031324993952226
3.422,-0.0678330807040743,-0.0301091967756193
3.424,-0.0684531523333949,-0.028877041696438
3.426,-0.0690382748204373,-0.0276297096377626
3.428,-0.0695880451289904,-0.0263683961014353
3.43,-0.0701021047587366,-0.0250943093955284
3.432,-0.070580140354367,-0.0238086688146433
3.434,-0.0710218842393461,-0.0225127027792271
3.436,-0.0714271148457843,-0.0212076469366213
3.438,-0.07179565706708,-0.0198947422300553
3.44,-0.0721273825112266,-0.0185752329401493
3.442,-0.0724222096539285,-0.0172503647051182
3.444,-0.0726801039019498,-0.0159213825233582
3.446,-0.0729010775484098,-0.0145895287465925
3.448,-0.0730851896340559,-0.0132560410675452
3.45,-0.073232545704868,-0.0119221505079382
3.452,-0.0733432974626922,-0.0105890794168824
3.454,-0.073417642320951,-0.00925803947353504
3.456,-0.0734558228558364,-0.00793022972397305
3.458,-0.0734581261537531,-0.00660683462666852
3.46,-0.0734248830651468,-0.00528902214046851
3.462,-0.0733564673532156,-0.0039779418459579
3.464,-0.073253294752359,-0.00267472310863561
3.466,-0.0731158219275787,-0.00138047329225199
3.468,-0.0729445453503812,-9.62760265429655E-05
3.47,-0.0727400000770701,0.00117681046553772
3.472,-0.0725027584506287,0.00243775498015653
3.474,-0.0722334287186953,0.0036855548667667
3.476,-0.0719326535714122,0.00491923749557312
3.478,-0.0716011086154933,0.0061378616440031
3.48,-0.0712395007727863,0.00734051880114302
3.482,-0.0708485666184248,0.00852633438336963
3.484,-0.0704290706624502,0.00969446886269351
3.486,-0.0699818035775459,0.0108441188026209
3.488,-0.0695075803796644,0.0119745177936512
3.49,-0.0690072385678756,0.0130849372988338
3.492,-0.0684816362269151,0.0141746873901212
3.494,-0.0679316501006391,0.0152431173895767
3.496,-0.0673581736406759,0.0162896164007974
3.498,-0.0667621150359036,0.0173136137452372
3.5,-0.0661443952299182,0.0183145792824037
3.502,-0.0655167519612874,0.0192628745682108
3.504,-0.0648720535075879,0.0201882327100465
3.506,-0.0642111773677824,0.0210904319763983
3.508,-0.0635349948753951,0.0219692874861258
3.51,-0.062844369433821,0.0228246504147393
3.512,-0.0621401547914832,0.0236564071072487
3.514,-0.0614231933891958,0.0244644780893916
3.516,-0.0606943147558507,0.0252488169992211
3.518,-0.0599543339836714,0.0260094094292414
3.52,-0.0592040502651169,0.0267462716874292
3.522,-0.058444245516344,0.0274594494796315
3.524,-0.0576756830749554,0.0281490165199737
3.526,-0.0568991064835983,0.0288150730730094
3.528,-0.0561152383647829,0.0294577444264701
3.53,-0.0553247793871424,0.0300771793085363
3.532,-0.0545284073221643,0.030673548253649
3.534,-0.0537267762122762,0.0312470419069288
3.536,-0.0529205156240085,0.03179786929523
3.538,-0.0521102300188008,0.0323262560527036
3.54,-0.0512964982198928,0.0328324426130731
3.542,-0.0504798729985899,0.0333166823741727
3.544,-0.0496608807620934,0.0337792398375083
3.546,-0.0488400213579534,0.0342203887312471
3.548,-0.0480177679901083,0.0346404101206604
3.55,-0.0471945672523884,0.0350395905119678
3.552,-0.0463708392782555,0.0354182199560841
3.554,-0.0455469780065035,0.0357765901569864
3.556,-0.044723351566543,0.0361149925921921
3.558,-0.0439003027778648,0.0364337166495755
3.56,-0.043078149778188,0.0367330477886392
3.562,-0.0422571867607671,0.0370132657292329
3.564,-0.0414376848372708,0.037274642682212
3.566,-0.0406198930175853,0.0375174416109596
3.568,-0.0398040393108542,0.0377419145562166
3.57,-0.0389903319409849,0.0379483010068415
3.572,-0.0381789606857949,0.0381368263346909
3.574,-0.0373700983268748,0.0383077003022267
3.576,-0.0365639022211536,0.0384611156466782
3.578,-0.0357605159830177,0.0385972467428514
3.58,-0.034960071281696,0.0387162483679529
3.582,-0.0341626897464455,0.0388182545581062
3.584,-0.0333684849818471,0.0389033775805719
3.586,-0.0325775646912812,0.0389717070120382
3.588,-0.0317900329023318,0.0390233089557307
3.59,-0.0310059922854243,0.0390582253854913
3.592,-0.0302255465769677,0.0390764736363946
3.594,-0.0294488030864901,0.0390780460449042
3.596,-0.0286758752907862,0.0390629097660127
3.598,-0.027906885507336,0.0390310067492538
3.6,-0.0271419676386039,0.0389822539139147
3.602,-0.0263812699816523,0.0389165435082031
3.604,-0.0256249580916478,0.0388337436925234
3.606,-0.0248732176912564,0.0387336993253794
3.608,-0.0241262576131553,0.0386162329927308
3.61,-0.0233843127634627,0.0384811462778747
3.612,-0.0226476470919791,0.0383282212810695
3.614,-0.0219165565531174,0.0381572224181626
3.616,-0.0211913720364834,0.0379678984843845
3.618,-0.0204724622601691,0.0377599850152127
3.62,-0.0197602365779327,0.0375332069497492
3.622,-0.0190551477138398,0.037287281597376
3.624,-0.0183576943600106,0.0370219219265014
3.626,-0.0176583248462526,0.0367483654579572
3.628,-0.0169560146442546,0.0364648264500178
3.63,-0.0162610924433922,0.0361588793230264
3.632,-0.0155744151796161,0.0358301196362142
3.634,-0.0148969041692814,0.0354781694904194
3.636,-0.014229545747298,0.0351026832540325
3.638,-0.0135733915186243,0.0347033535715736
3.64,-0.012929558161007,0.0342799176487945
3.642,-0.0122992267410943,0.0338321637811171
3.644,-0.0116836415006625,0.0333599381076946
3.646,-0.0110841080538959,0.0328631515544805
3.648,-0.010501990961488,0.0323417869272693
3.65,-0.00993871062299105,0.0317959061072139
3.652,-0.00939573944943909,0.0312256572934725
3.654,-0.00887459727494765,0.0306312822287592
3.656,-0.00837684595493752,0.0300131233360654
3.658,-0.0079040831419275,0.0293716306846742
3.66,-0.00745793519367222,0.0287073686959997
3.662,-0.00704004919986038,0.0280210224907222
3.664,-0.00665208412574256,0.027313403770859
3.666,-0.00629570108197125,0.026585456123126
3.668,-0.00597255271559498,0.0258382596247176
3.67,-0.00568427179553544,0.0250730346298721
3.672,-0.00543245899983356,0.0242911446013391
3.674,-0.00521867001332277,0.0234940978778956
3.676,-0.00504440200087651,0.0226835482398746
3.678,-0.00491107957764304,0.02186129414972
3.68,-0.00482004039726477,0.0210292765825019
3.682,-0.00477252052446157,0.0201895753159957
3.684,-0.00476963974291913,0.0193444036238217
3.686,-0.00481238700949376,0.0184961012977835
3.688,-0.00490160623959189,0.0176471259649135
3.69,-0.00503798265146178,0.0168000426875734
3.692,-0.00522202990228595,0.0159575118569612
3.694,-0.00545407823168426,0.0151222754509535
3.696,-0.005734263862877,0.0142971417177311
3.698,-0.00606251986888968,0.013484968426212
3.7,-0.00643856873773471,0.0126886448319773
3.702,-0.00686191681205678,0.0119110725490558
3.704,-0.00733185079094033,0.0111551455574144
3.706,-0.00784743642604993,0.0104237296051718
3.708,-0.00840751952181797,0.00971964126316853
3.71,-0.00901072930349779,0.00904562695857149
3.712,-0.00965548417632842,0.0084043422756896
3.714,-0.0103399998496495,0.007798331853372
3.716,-0.0110622997542702,0.00723001018477872
3.718,-0.0118202276336656,0.00670164362666672
3.72,-0.0126114621434929,0.00621533390374501
3.722,-0.0134335332532475,0.00577300335944777
3.724,-0.0142838402019081,0.00537638218837609
3.726,-0.0151596707423615,0.00502699783659783
3.728,-0.0160582213542371,0.00472616669817566
3.73,-0.016976618131819,0.00447498822310912
3.732,-0.0179119379994616,0.00427434147780593
3.734,-0.0188612299467839,0.00412488414182317
3.736,-0.0198215359497536,0.004027053915447
3.738,-0.0207899112833454,0.0039810722221807
3.74,-0.0217634439469744,0.00398695007666091
3.742,-0.0227392729433785,0.00404449594402636
3.744,-0.0237146051988847,0.00415332539417255
3.746,-0.0246867309378387,0.00431287230423006
3.748,-0.0256530373750402,0.00452240138132342
3.75,-0.0266110206150942,0.00478102175125742
3.752,-0.0275807266893368,0.00507567458603969
3.754,-0.0285385580613887,0.00541939863237014
3.756,-0.0294822366284263,0.00581099569413328
3.758,-0.030409618159103,0.00624916222325287
3.76,-0.0313186955861767,0.00673250424133386
3.762,-0.0322076006537718,0.00725955193739262
3.764,-0.0330746040316958,0.00782877377016694
3.766,-0.0339181140391823,0.00843858992698626
3.768,-0.0347366741109878,0.00908738501305304
3.77,-0.0355289591651378,0.00977351987210845
3.772,-0.0362937710100687,0.0104953424636667
3.774,-0.0370300329679226,0.0112511977429743
3.776,-0.0377367838396712,0.0120394365154936
3.778,-0.0384131713781372,0.0128584232506883
3.78,-0.0390584453892558,0.0137065428660799
3.782,-0.0396719505965784,0.0145822064981629
3.784,-0.0402531193885143,0.0154838562927234
3.786,-0.0408014645445034,0.0164099692728702
3.788,-0.0413165720406306,0.0173590603133475
3.79,-0.0417980940183962,0.0183296843038778
3.792,-0.0422457419777537,0.0193204375528498
3.794,-0.0426592802603099,0.0203299585036349
3.796,-0.0430385198689288,0.0213569278213023
3.798,-0.043383312666037,0.02240006793676
3.8,-0.0436935459657421,0.0234581420994646
3.802,-0.043969137560555,0.0245299530051506
3.804,-0.0442100311810176,0.025614341076556
3.806,-0.0444161923929362,0.0267101824351731
3.808,-0.0445876049508353,0.0278163866396546
3.81,-0.0447242675821828,0.0289318942338607
3.812,-0.0448261912047219,0.0300556741497484
3.814,-0.0448933882515269,0.0311989417634051
3.816,-0.0449245481175344,0.0323525217277126
3.818,-0.0449195231406955,0.0335112767403232
3.82,-0.0448783662529749,0.0346741590670093
3.822,-0.044801140497408,0.0358401366749451
3.824,-0.0446879184399577,0.0370081909052093
3.826,-0.0445387818742471,0.0381773142227063
3.828,-0.0443538217958074,0.0393465080898404
3.83,-0.0441331386252238,0.0405147809646534
3.832,-0.0438768426575316,0.041681146439692
3.834,-0.0435850547130722,0.0428446215456954
3.836,-0.0432579069772385,0.044004225205157
3.838,-0.0428955439943753,0.0451589768800333
3.84,-0.0424981238097079,0.0463078953842204
3.842,-0.0420658192267186,0.0474499978889457
3.844,-0.0415988191722463,0.048584299119916
3.846,-0.0410973301435774,0.0497098107378423
3.848,-0.0405615777163512,0.0508255409239106
3.85,-0.0399918081066857,0.0519304941457644
3.852,-0.0393882897634647,0.0530236711246939
3.854,-0.0387513149712649,0.0541040689898942
3.856,-0.038081201455915,0.0551706816218957
3.858,-0.0373782939781602,0.0562225001735729
3.86,-0.0366429658853945,0.0572585137844423
3.862,-0.0358756206358616,0.0582777104553482
3.864,-0.0350766932471987,0.0592790781023842
3.866,-0.0342466516876101,0.0602616057703255
3.868,-0.03338599817642,0.0612242850018359
3.87,-0.032495270396187,0.0621661113564378
3.872,-0.0315750425920136,0.0630860860679619
3.874,-0.030625926556165,0.06398321783496
